0.04911957338827197,0.05456450285887023,0.006602408284153975,0.019862420967823126,0.025578722977351507,-0.02209023840386887,-0.016157046932573926,0.02810453472435908,-0.0039166341352552154,0.010053265386629172,-0.006389401641232027,0.030822231279751304,0.037643631102489604,0.04465193330885215,0.036575356106506626,0.05163207834217458,0.05926700240172781,0.03656622735332074,0.052313014042188,0.02246134362894039,0.038718397090628506,0.04760360108677212,0.049126372583625975,0.058578800214788077,0.09125272698199342,0.09366660940890671,0.08111154133962689,0.09180251281322892,0.11810537925503482,0.1294611725497795,0.17172488248204512,0.1379217546770638,0.15031982141588604,0.10958423493323252,0.13034013145959875,0.143817183080121,0.11945168439264987,0.1413010335492359,0.1558758442753691,0.18610057221811543,0.1937672549039244,0.20944009294045368,0.19490922451501713,0.21130265356923042,0.19748413201579706,0.19165526820891907,0.18616795402609235,0.20393894243916894,0.22967678136685885,0.27865481840385753,0.2591648849635123,0.2705337902519373,0.25161649595466024,0.26352988857104714,0.2680506835632175,0.29572737232791696,0.3236169221097526,0.3211333666737958,0.3264622152845761,0.3472215521690924,0.3528205550298954,0.37379830420316973,0.3872019320236042,0.40828397604773836,0.47521940235047455,0.4886349484186958,0.47141825312506364,0.4693788766955196,0.48247529320869365,0.5106636298488321,0.48512450783964595,0.5051480016255324,0.5553999373882341,0.6052607058841362,0.6393908305552859,0.7188623569669444,0.7671979465620812,0.8607457633253682,0.9077381287129082,0.8928176088787306,0.8541124151849416,0.7762561110068817,0.4986903471470028,0.05953071903673446,-0.3655634841760914,-0.49395290319979723,-0.47852637624414646,-0.36514544819565775,-0.153777474879061,0.04866450890105245,0.2575453546829952,0.3736078480424188,0.48862985789506114,0.5339168334212581,0.5401106936068223,0.5302092330107248,0.5348490004811434,0.5235322550786953,0.5268902203603903,0.537344228008591,0.532030065569209,0.48808083386701506,0.46668297684587073,0.44496449477604955,0.44589978356898696,0.4542537401002729,0.4777133962746022,0.45519041914389974,0.4402159098332243,0.4557528741448411,0.44070611353204825,0.38746833458249347,0.4336176823640693,0.41871362573869564,0.3962742010747624,0.3968909866445077,0.41294630513579256,0.3986132205681727,0.3233456419150266,0.3399904013078151,0.3186588849708375,0.28228987602987393,0.26146201915895373,0.263828183054703,0.25883265489028034,0.2770500414393238,0.22679037782940697,0.1921157753194064,0.18067266278956598,0.16189923432788111,0.1816473290857768,0.16350469923571645,0.16860437588165647,0.1358152951212673,0.1415517371984783,0.1323225709552791,0.10812614137369357,0.10716740603626293,0.09887768831075182,0.060329230570568826,0.04500832922742404,0.04526934030547996,0.030542030259229677,0.0008217585671623037,0.017235370739010523,-0.011919388677773002,-0.002591399931079127,-0.008274598095012724,0.016876240894081424,0.049934033602608396,0.014481428317048236,-0.005428624650125512,-0.002157795820324483,0.03193276000438148,-0.017781184470264267,0.016809812976632824,0.013441599756866426,-0.004962418756021892,0.0456527343449055,0.06594759117218349,0.05592136852944189,0.08434604706642387,0.0824471406578915,0.09607156408848687,0.07936836179505652,0.05525919144069576,0.039023859004016545,0.06886625869569672,0.09129263149502684,0.07573323857802702,0.08331534276965222,0.06818546043122348,0.06854569461676592,0.0767490783969564,0.09278975695667299,0.07845421752203009,0.0795844866397751,0.08853201468684739,0.11293076380310182,0.09164115988425055,0.06286197712695343,0.0724329863647452,0.0668547311665083,0.08432485104828565,0.056060283455023306,0.03554082169020174,0.015114340014489327,0.0024114446697946663,0.035628485697023704,0.00013270422637188078,0.010534808525836877,0.005692044818385015,0.016159064765032285,-0.026848421388196087,0.006563041718934582,0.01704581476646016,-0.010691771111374166,-0.00024401189730475416,-0.04331619439464825,-0.002369936945360291,-0.030238026874554614,0.04882953187166221,0.013229956140670183,0.023432960765907764,0.018306003993476313,0.013130975331416949,0.015548217915076403,0.010273644696901672,0.02787181994429628,0.030134162972371033,0.03234213763585748,0.01921123774797482,0.05187134383799769,0.008057324154827393,0.0023888877135510387,0.004298061231822167,0.013782678853553158,0.02319909838967585,0.017262153895053485,-0.01931343657094276,-0.0024741283049444663,-0.0009936386805961493,0.015693462925413293,0.024662517633349253,0.05647897199488283,0.034727781451655976,0.04346417074661213,-0.0090102703977228,0.03777384022857718,-0.02250309163724336,0.02411916721994861,0.01717170051794818,0.010146206973596293,0.02596848007453381,0.026432623835971787,0.01153988664409276,-0.011067160435365502,-0.010821639508075435,0.019920014172508924,0.027670754667291898,0.05828234939187354,0.058267514453313865,0.019987403602972006,0.004575972838704096,0.05788416853599944,0.05000945280897301,0.05736827910310465,0.0035477539631230738,-0.019753296368802797,0.01803229786933133,0.032851760362569454,0.0017838633758609588,0.07001922145418922,0.054165881988223405,0.06120682629415094,0.0376542131625878,0.0140758986194363,-0.0018848141084901059,-0.0025846921738710807,-0.003304688200069029,0.011240310106007541,0.048694274140154925,0.05556948035522396,0.05479251015943837,-0.007124881313123574,0.04557243238929631,0.029491876976486187,0.013408660104326005,0.04317347744128767,0.03473222528707856,0.03393531639948278,0.04842571566178628,0.017073124696623768,0.03921755469421305,0.015521105569615227,0.02239914253162806,0.0522109499141035,0.04382551615646037,0.02016757191278557,-0.02640419066111223,0.018732097235505677,0.04095716752126009,0.04791493593707531,0.039607658595363665,0.0313202617192065,0.045978928336066476,0.007170771917330907,0.03716050194927872,0.021327691941424205,0.0590124651956538,0.027952647937837898,0.04277087145442588,0.01941180135909414,0.019007531421974606,0.01099260024210006,0.0,0.0,0.0,0.0,0.0,N
0.2680506835632175,0.29572737232791696,0.3236169221097526,0.3211333666737958,0.3264622152845761,0.3472215521690924,0.3528205550298954,0.37379830420316973,0.3872019320236042,0.40828397604773836,0.47521940235047455,0.4886349484186958,0.47141825312506364,0.4693788766955196,0.48247529320869365,0.5106636298488321,0.48512450783964595,0.5051480016255324,0.5553999373882341,0.6052607058841362,0.6393908305552859,0.7188623569669444,0.7671979465620812,0.8607457633253682,0.9077381287129082,0.8928176088787306,0.8541124151849416,0.7762561110068817,0.4986903471470028,0.05953071903673446,-0.3655634841760914,-0.49395290319979723,-0.47852637624414646,-0.36514544819565775,-0.153777474879061,0.04866450890105245,0.2575453546829952,0.3736078480424188,0.48862985789506114,0.5339168334212581,0.5401106936068223,0.5302092330107248,0.5348490004811434,0.5235322550786953,0.5268902203603903,0.537344228008591,0.532030065569209,0.48808083386701506,0.46668297684587073,0.44496449477604955,0.44589978356898696,0.4542537401002729,0.4777133962746022,0.45519041914389974,0.4402159098332243,0.4557528741448411,0.44070611353204825,0.38746833458249347,0.4336176823640693,0.41871362573869564,0.3962742010747624,0.3968909866445077,0.41294630513579256,0.3986132205681727,0.3233456419150266,0.3399904013078151,0.3186588849708375,0.28228987602987393,0.26146201915895373,0.263828183054703,0.25883265489028034,0.2770500414393238,0.22679037782940697,0.1921157753194064,0.18067266278956598,0.16189923432788111,0.1816473290857768,0.16350469923571645,0.16860437588165647,0.1358152951212673,0.1415517371984783,0.1323225709552791,0.10812614137369357,0.10716740603626293,0.09887768831075182,0.060329230570568826,0.04500832922742404,0.04526934030547996,0.030542030259229677,0.0008217585671623037,0.017235370739010523,-0.011919388677773002,-0.002591399931079127,-0.008274598095012724,0.016876240894081424,0.049934033602608396,0.014481428317048236,-0.005428624650125512,-0.002157795820324483,0.03193276000438148,-0.017781184470264267,0.016809812976632824,0.013441599756866426,-0.004962418756021892,0.0456527343449055,0.06594759117218349,0.05592136852944189,0.08434604706642387,0.0824471406578915,0.09607156408848687,0.07936836179505652,0.05525919144069576,0.039023859004016545,0.06886625869569672,0.09129263149502684,0.07573323857802702,0.08331534276965222,0.06818546043122348,0.06854569461676592,0.0767490783969564,0.09278975695667299,0.07845421752203009,0.0795844866397751,0.08853201468684739,0.11293076380310182,0.09164115988425055,0.06286197712695343,0.0724329863647452,0.0668547311665083,0.08432485104828565,0.056060283455023306,0.03554082169020174,0.015114340014489327,0.0024114446697946663,0.035628485697023704,0.00013270422637188078,0.010534808525836877,0.005692044818385015,0.016159064765032285,-0.026848421388196087,0.006563041718934582,0.01704581476646016,-0.010691771111374166,-0.00024401189730475416,-0.04331619439464825,-0.002369936945360291,-0.030238026874554614,0.04882953187166221,0.013229956140670183,0.023432960765907764,0.018306003993476313,0.013130975331416949,0.015548217915076403,0.010273644696901672,0.02787181994429628,0.030134162972371033,0.03234213763585748,0.01921123774797482,0.05187134383799769,0.008057324154827393,0.0023888877135510387,0.004298061231822167,0.013782678853553158,0.02319909838967585,0.017262153895053485,-0.01931343657094276,-0.0024741283049444663,-0.0009936386805961493,0.015693462925413293,0.024662517633349253,0.05647897199488283,0.034727781451655976,0.04346417074661213,-0.0090102703977228,0.03777384022857718,-0.02250309163724336,0.02411916721994861,0.01717170051794818,0.010146206973596293,0.02596848007453381,0.026432623835971787,0.01153988664409276,-0.011067160435365502,-0.010821639508075435,0.019920014172508924,0.027670754667291898,0.05828234939187354,0.058267514453313865,0.019987403602972006,0.004575972838704096,0.05788416853599944,0.05000945280897301,0.05736827910310465,0.0035477539631230738,-0.019753296368802797,0.01803229786933133,0.032851760362569454,0.0017838633758609588,0.07001922145418922,0.054165881988223405,0.06120682629415094,0.0376542131625878,0.0140758986194363,-0.0018848141084901059,-0.0025846921738710807,-0.003304688200069029,0.011240310106007541,0.048694274140154925,0.05556948035522396,0.05479251015943837,-0.007124881313123574,0.04557243238929631,0.029491876976486187,0.013408660104326005,0.04317347744128767,0.03473222528707856,0.03393531639948278,0.04842571566178628,0.017073124696623768,0.03921755469421305,0.015521105569615227,0.02239914253162806,0.0522109499141035,0.04382551615646037,0.02016757191278557,-0.02640419066111223,0.018732097235505677,0.04095716752126009,0.04791493593707531,0.039607658595363665,0.0313202617192065,0.045978928336066476,0.007170771917330907,0.03716050194927872,0.021327691941424205,0.0590124651956538,0.027952647937837898,0.04277087145442588,0.01941180135909414,0.019007531421974606,0.01099260024210006,0.04121599980758976,-0.020226794237948542,-0.005223773466606164,-0.02075338224129874,0.0019598927150477593,0.0323546232960536,0.024586461910526748,0.009225447620902223,0.032124406242654245,0.009231385138554793,-0.005959541782516934,0.0018383790180207097,0.01734664786452131,0.010003846204094599,-0.004902802193342868,-0.004444668734431275,-0.003899933272974149,-0.0261878082619196,0.020394686979560633,-0.0016906243061509943,-0.008379830412550597,0.030900957077454334,0.016821690339381388,0.018164173582798572,0.06550285269545036,0.0595073504187492,0.03839314914798251,0.03273397889901119,0.05017901319392743,0.03724562314353389,0.07035566128903128,0.01961151319129691,0.053131951497201464,0.02573600224640112,0.05205189046972253,0.03274697692309919,0.05188327832719676,0.07890082502768096,0.052673568583128376,0.0572627080588032,0.11559754041073177,0.07485361489988987,0.08022264166385118,0.1011424951906045,0.1299750133829533,0.08266698000448158,0.0738423548532396,0.06529558753889043,0.0646694875153689,0.1483796313427412,0.178880536638754,0.2020208953471817,0.2407241404810925,0.2491396013650084,0.0,0.0,0.0,0.0,0.0,N
0.7350924599138623,0.42573215553964977,-0.045124121841837984,-0.387186645874191,-0.4859148647909338,-0.41776781516109246,-0.2820827361695599,-0.05589390157599961,0.13860357070904922,0.30148315017848665,0.3716859745659645,0.4409807710428705,0.4406638566545578,0.43193407586798876,0.46070516014549295,0.4429839489535571,0.44760407508635347,0.4975482273622639,0.4858921242538306,0.45853809334594514,0.45374457792020356,0.4792019091970379,0.45090069156189816,0.43765823024417516,0.4165921178577099,0.4030250329385634,0.3740702968488355,0.3679708545668563,0.34655323229272794,0.3327737551136744,0.3266626508227352,0.31296557365882527,0.30699236391830265,0.3164098422269829,0.32595892972083845,0.3203789654866307,0.3226149330298441,0.32504439459043827,0.32768475417638177,0.2923445163602985,0.27252800540313377,0.2682478999445306,0.21074242240003577,0.24520918954057838,0.23411093524602436,0.18509680936110467,0.20515370413064052,0.17966539587784977,0.14684373201091686,0.17546548098174417,0.1585532156420639,0.14959918321236476,0.16388756393368545,0.11736287709638174,0.10936373877717448,0.11696490075560922,0.11724056799253761,0.08726436062430759,0.057599496483147675,0.05880875707948341,0.04504008749951439,0.04685568721239825,0.05661025627348344,0.05137535077433371,0.03878806312592879,0.04940959339051774,0.045027854105964576,0.017996330132863787,0.044724284461957343,0.04879179324884932,0.06840053166783691,0.027130108294135546,0.03195470592448673,0.05994363937962631,0.06524169917873755,0.009634830965481195,0.053586480084555396,0.02133603062883185,0.02749788278040712,0.049140142873086164,0.00984059585253957,-0.006352667340115391,0.031118211134538838,0.05347277966455055,0.0301377052602844,0.022236845680298798,0.04504517893857979,0.05270593312349016,0.05285229499621848,0.045475732945613356,0.053491815627071566,0.0004769713625584451,0.01632664176716889,-0.005948834051764116,0.002414262761393807,0.026124212932094017,0.019323465743776636,-0.0027140213997880283,-0.0017900231841353033,-0.008479150046836756,-0.007507113317215328,-0.006523183333362585,-0.013175917257604973,-0.042754707392526625,0.034639947682240574,0.005046143163920966,0.036574543183718326,0.029884867148518138,0.061390112974000155,0.016466758084649483,-0.005548291450731639,0.002984329990776313,0.011497240906408905,-0.01821840997092261,0.013174655773626922,0.006337621394316598,0.030043610810962514,0.007878074244460999,-0.006668955976881588,0.024609603399521174,0.010016736851609441,-0.004598507022555204,0.0036885057633815,0.042519936368592234,0.035481924240302935,0.020782218866173045,0.028986937481566458,-0.016318274386688265,0.007129909763083288,0.007635631073740294,0.031049182206731522,0.008598995005235031,0.009059533234656239,0.0400735789240307,0.0175864106926355,0.018013658488014603,0.026073406213566214,0.011200738019047385,0.019245156113927676,0.027283013119917335,0.027673475118294745,0.012775571775272691,0.005514013760385783,0.013530538179961037,0.0062595803568848835,0.03719151123077075,0.014629028432517545,0.00734519533162946,0.015339908568399344,0.023330118371794665,0.01603269827124004,0.04693749872963743,0.024346648035584676,0.03231550117169613,0.04027746874723068,0.017665799793941284,0.017969545225655133,0.02590457404313122,0.01090375571405369,-0.019392895603391743,-0.011496691213751799,-0.01889746789393187,0.019537852404943323,-0.04137513776100866,0.004685979238088143,0.02018208374985092,0.02040312954548781,0.020638969485788188,-0.002027919797478091,0.013540838402029314,0.021503445645590515,0.05243258421703718,0.02227900624285737,0.007463753382779575,0.038559026845454904,0.023873713037977824,0.009262692740447005,0.025297817679047208,0.026136344839755916,-0.003498775909840358,0.035737097256236035,0.013945293267443488,0.03047060764798482,0.016545759656760636,0.03330804852509741,0.02727286811540793,-0.016837280036765857,0.03852906609326457,0.009983864679468211,0.04272143948548096,0.045050964232710225,0.024620311990132586,0.03492585962794961,0.05304931248805935,0.01022347222701554,-0.009490027891703374,-0.0213685186767468,0.005160299671931776,0.016614753694235256,0.020644782869962987,0.047824608133168925,0.05995525360992334,0.07232768820197642,0.0543838519787641,0.07490423632604791,0.08040578322753973,0.10910251825786209,0.0922276971652803,0.07563585282558379,0.08989814729072727,0.0968122708493322,0.1422314675687014,0.16502812965734237,0.2110543059638659,0.2421052169268163,0.25818230192658015,0.24400288013211033,0.2989048024409656,0.29298105445607314,0.2873594983232069,0.27439343769879915,0.2846420136551623,0.3104557210840485,0.29069344776842126,0.263551442167405,0.297790318643583,0.286415912420817,0.2829031214675373,0.3330839568299375,0.3605257375558141,0.33464284632922514,0.3547525955310052,0.3597000726315955,0.3800260494505519,0.39277931540834665,0.3367994855818328,0.35724349190349386,0.3623814821854802,0.3368963664492261,0.3571667009208473,0.37730607986183706,0.3896335859135557,0.4093907797149871,0.4365343640518365,0.46337753991323605,0.5280800546725437,0.5694604258606513,0.6638807177763155,0.7807197796187221,0.8358629572847479,0.8368891511844634,0.8754290856825694,0.8215071102604554,0.80495266190501,0.5888012376192013,0.18061086460826756,-0.1981026383338595,-0.4480876329503608,-0.47771511607644995,-0.35578406791837147,-0.22746263417308604,0.021924303599826056,0.23198109845475431,0.3798581809927085,0.4656291864372291,0.4893658507209514,0.4893448558439498,0.5038404369770452,0.4870683792973606,0.4772979520492527,0.4822301697644833,0.4789978411143571,0.4752971829900269,0.463539107608091,0.48198087975527903,0.454255623882667,0.4415402417050703,0.44387772491779004,0.4078186736161979,0.3716089266191334,0.3887751933374165,0.3752961379690956,0.33884593894834464,0.33294562728469373,0.3346999913312347,0.2982877901848993,0.30014938692545284,0.3173847402389427,0.3194508532218072,0.2834445968894577,0.25523433858710903,0.2654041187516422,0.2681221532215022,0.2404796953425628,0.2283397514340011,0.0,0.0,0.0,0.0,0.0,N
0.80495266190501,0.5888012376192013,0.18061086460826756,-0.1981026383338595,-0.4480876329503608,-0.47771511607644995,-0.35578406791837147,-0.22746263417308604,0.021924303599826056,0.23198109845475431,0.3798581809927085,0.4656291864372291,0.4893658507209514,0.4893448558439498,0.5038404369770452,0.4870683792973606,0.4772979520492527,0.4822301697644833,0.4789978411143571,0.4752971829900269,0.463539107608091,0.48198087975527903,0.454255623882667,0.4415402417050703,0.44387772491779004,0.4078186736161979,0.3716089266191334,0.3887751933374165,0.3752961379690956,0.33884593894834464,0.33294562728469373,0.3346999913312347,0.2982877901848993,0.30014938692545284,0.3173847402389427,0.3194508532218072,0.2834445968894577,0.25523433858710903,0.2654041187516422,0.2681221532215022,0.2404796953425628,0.2283397514340011,0.20879103183244813,0.2276941987598468,0.23156995752821427,0.19750369434927134,0.21720146022506626,0.22953922178568847,0.1886747693392748,0.1939523875086661,0.16896195616134613,0.15955566288565096,0.19630194077478685,0.10344914439143825,0.13316611797834946,0.11734117218545323,0.10946414226964866,0.08660972835523048,0.10990808651519984,0.09530129776310343,0.11920144526821681,0.08990812915449085,0.08383236007748593,0.06276287651200128,0.0419781816697562,0.06732228431878486,0.06237570585342332,0.019491724640655253,0.04564512980905039,0.05677424196169632,0.04523170190277517,0.056860050463979794,0.07636996357709858,0.057906013502970144,0.0625927584500563,0.07513991867000766,0.019125262709287875,0.016804009324300432,0.03760218479164827,0.058587186210562026,0.033901858141325354,0.017027665163057443,0.00031426360419201934,-0.008605865659814313,-0.0021002433248229293,-0.018384301585503693,-0.003975815001318313,0.0029117302648297384,0.017555409651182564,0.009383554981284794,0.01659750388570193,-0.014298911034867749,0.0083857018435674,0.015873540845385885,0.008159855950526049,-0.014760182228777863,0.04644746907519525,0.06187460956724754,0.04680044872564859,0.039428251183643556,0.0015464991454904181,-0.02100051905639072,-0.005292887350098583,0.048666940857555394,0.0415381020292914,0.03445004098928684,0.019758901287139804,0.03566938327828951,-0.0018771889591208844,-0.0011862083123544362,0.007173833181487217,0.015558920703115145,0.03160791324942326,0.02475231780933017,0.06376239628695488,0.01108900607261973,0.0042750600809424765,-0.002531500442674042,0.013590337955941834,0.022071645324783302,-0.0076565762398462,0.008458387640245495,0.0016408818645061928,0.010095576837886507,0.0032540411768585058,0.004037976918730584,-0.01812111406811525,0.005547162849585059,-0.001372718199880753,0.02224987634409923,0.015282432967576191,0.008289785019311893,0.008912324907880197,0.03243185843560422,-0.012850220954258446,-0.012313401225534742,-0.011806501267222458,0.011595923388866267,0.01204734524447046,0.03539863693380448,0.04344460758493859,0.03618716354613007,0.028910903627947123,0.02925879086246577,-0.0009750853288022136,0.03754940534983907,0.0072873857042866684,0.007578890916315968,-0.007423722280038962,0.02341223275224237,0.038956870421007345,0.016287462286311387,0.031819998078624415,0.024424198922966513,0.0017427204284365938,0.04783264450988251,0.002224489402970554,-0.005176181798229956,-0.0049343688182582205,-0.01233166995903389,0.018482423983955974,0.003454861398406341,0.026644504798728125,0.011639647728863748,-0.0033497268496530076,-0.003038058701550068,-0.0027052887382020764,-0.025272524098081384,-0.017246066490486645,-0.016827274847019475,0.03712304323180174,-0.0005736020156385747,-0.0076449664725696245,0.008276516144506781,0.0013518641775319411,0.0021566030126100063,-0.012223932622196265,0.004068674802230043,0.01283800081918702,0.006453419989296177,0.007850062053872347,0.017038659959107347,0.018746997715533995,0.012985683825734045,0.03797250727067244,0.024944824305453993,0.03504453364811124,0.04535740602313724,0.0558934014603799,0.0819451628880057,0.0700319601831046,0.058370111609044435,0.05460976589869468,0.08168368961971549,0.0708269181788452,0.07553735604716379,0.057615095449067996,0.07819876387694095,0.06852196842222447,0.12792993172137684,0.10359952399276035,0.13308225982670435,0.10176112600766435,0.10133772466100428,0.15474005552238887,0.23140542774013897,0.20143146380753119,0.2176484583696545,0.2571322375327687,0.2893160843181674,0.3065563606139794,0.301207981727912,0.3038316043992412,0.31442055995663676,0.3024008412000492,0.29068705272534917,0.3021922871242017,0.298696544811613,0.27254413461185106,0.30777532997855184,0.33559994479119115,0.33307498310864114,0.33838740973144465,0.35915670471453165,0.3877177464904346,0.38583779833746484,0.3993381882146192,0.41290667615050763,0.38830466095477606,0.3866303898584562,0.3849241652998566,0.3907901759360341,0.3965477761178702,0.4021558210880407,0.4381370027210385,0.43567308915748404,0.47877275470647135,0.5215377629861843,0.5944820321777762,0.6822681437175395,0.7237069775755592,0.8257180089200373,0.8736149039467312,0.8520461132161206,0.8373531773262569,0.7759686443191622,0.6830939690550407,0.4058147200120392,-0.017750578734682033,-0.3890148804874013,-0.5093894522434167,-0.46298243376533144,-0.31857066313243676,-0.08375535635142085,0.126912166986585,0.28294454731872065,0.43026833894803507,0.44669667491600407,0.46985000157333695,0.47687598009120685,0.49076865144682535,0.46574657865343366,0.5012135128918287,0.5055345055430549,0.5093353794033817,0.4973907005405046,0.46211394318789656,0.472330643052271,0.4440349284171383,0.4613305724516294,0.43256566676872255,0.41891509318202097,0.4051370222500505,0.41419480416924237,0.4002766698668476,0.4092662374081885,0.37242330083512265,0.3356274304984353,0.3447563346324078,0.33870567553672787,0.3327839401561532,0.31937355737904083,0.2984967470167212,0.28545704169808617,0.30319793641096715,0.26003967621787133,0.2706202709438315,0.27382296883398893,0.27730275861619924,0.22758162116207895,0.22400924768293853,0.23602945915651855,0.2254435016716465,0.23046598959659792,0.22053731649807054,0.0,0.0,0.0,0.0,0.0,N
0.6830939690550407,0.4058147200120392,-0.017750578734682033,-0.3890148804874013,-0.5093894522434167,-0.46298243376533144,-0.31857066313243676,-0.08375535635142085,0.126912166986585,0.28294454731872065,0.43026833894803507,0.44669667491600407,0.46985000157333695,0.47687598009120685,0.49076865144682535,0.46574657865343366,0.5012135128918287,0.5055345055430549,0.5093353794033817,0.4973907005405046,0.46211394318789656,0.472330643052271,0.4440349284171383,0.4613305724516294,0.43256566676872255,0.41891509318202097,0.4051370222500505,0.41419480416924237,0.4002766698668476,0.4092662374081885,0.37242330083512265,0.3356274304984353,0.3447563346324078,0.33870567553672787,0.3327839401561532,0.31937355737904083,0.2984967470167212,0.28545704169808617,0.30319793641096715,0.26003967621787133,0.2706202709438315,0.27382296883398893,0.27730275861619924,0.22758162116207895,0.22400924768293853,0.23602945915651855,0.2254435016716465,0.23046598959659792,0.22053731649807054,0.1727381784554885,0.1711285366591341,0.15457984659758472,0.13837725654347785,0.13780514187021797,0.1452228215369037,0.1300645609489013,0.14581990266688732,0.13899737113129268,0.14016076495245286,0.11874154901245264,0.13586794550164438,0.06927266667845086,0.04885575526982115,0.07461217531390686,0.08540500782868851,0.07358714466999039,0.08500123456731812,0.05850919051701289,0.05523577799203293,0.08281528602066324,0.08775008871090399,0.07767378483572016,0.0755024441029817,0.08886883816628569,0.10248099663898547,0.06283923057687185,0.023423706428193688,0.007148457074349195,0.03692739827820446,0.028694042262899174,0.06649372315341735,0.012769441166975669,0.0050562383884520095,-0.010147278011340806,-0.009927977716038691,0.013345323896784727,0.00617311586604395,-0.0008881762265480607,0.015076387492467966,0.0005672828465492542,0.024348187760005285,0.009995135309918515,0.01863022400057104,0.050243863619173545,0.03605327721774754,0.04482162379713483,0.03833151429435012,0.00893115490898662,-0.02810707528891091,-0.026945022514374813,-0.03343932092237727,-0.0017465867786593161,-0.0006420822535897082,-0.007203445479700957,0.0014917464082885217,-0.02040649298108833,-0.004126334857915266,0.004484165544441825,0.005426074050474685,0.029266253434544764,-0.0004088284567977399,-0.014825208097457031,0.04714966203469174,0.0097646377336376,0.018209442437382407,0.018995924851206065,0.042691845902594214,0.05109177795533902,0.04419735412737493,0.01436849723507225,0.05330382206279728,0.0845898650135943,0.024171441128722913,0.017236587780348322,0.033219760101919904,0.0262724173585994,0.026960401143491578,0.027642147474242647,0.028317412409167447,0.036627268638517785,0.014363918209437257,0.022658292987492924,0.00037797553587105354,0.016295167451757065,0.024560245802343332,0.04809659976305417,0.04105440212401568,0.0034323142484012784,-0.011281023873905763,-0.018370082998662617,-0.0025524428136610086,0.013248787937820432,0.021393652679919096,0.044807947963530104,0.03764426978721594,-9.628083415459322e-05,0.023284667005030665,-0.006833787395144521,0.01652952927962494,0.03224443301461083,0.01738793136081031,0.025451419073799043,0.010587291014729227,-0.02720345615629618,-0.011505330288885715,-0.011087896915125859,0.035185103764738435,0.03562188804718202,0.03607668347129935,0.036554810410698496,0.03706140885557017,0.05288434570740172,0.03817966381924136,0.054083509419849754,0.016544195828855687,0.06311195638589719,0.06388602221603062,0.04179440573801757,0.042689164468531576,0.04364905336814828,0.03703552363696969,0.030492717915179667,-0.014184135390702235,0.017629136515741082,0.01895586348623253,0.01272401955227651,0.014220029123385625,-0.007118476067071435,-0.005439386959128071,0.011619897863688217,0.013498132031587973,-0.015083079239358907,-0.005346194954324721,0.019790300661953652,0.03740843127326004,0.024590121591874906,-0.03394143586940332,0.007007380147777333,0.002258131316550808,0.005310170182683662,0.008531199259890928,0.004288894511036705,0.030799618299034874,0.0040164340595370395,0.03092862229696214,0.06569634658007169,0.031913796463818256,0.06713556861630349,0.04910663548571848,0.061890914594618957,0.1054960746629652,0.11115638137207526,0.09416157619231169,0.07744229965480463,0.05336290211210568,0.0907018951320117,0.11304988145699608,0.12041155874680004,0.13571542393978056,0.16660646223115214,0.19780461571098643,0.22931190312239247,0.22292207997202906,0.224483758476457,0.28748589108451167,0.25909702707402843,0.2997839268430358,0.3178440454961731,0.30562934248786344,0.2936974622656741,0.29732161144511104,0.27064188941297423,0.2824187315881213,0.27150648785449893,0.2913799186425112,0.3114564235807046,0.3393592196114043,0.2986539631253997,0.31922389446958976,0.3551972993395473,0.36834232215404755,0.38919842492943785,0.40245449891440827,0.3851560345228504,0.39840251316557845,0.39631112267579294,0.3635628782448257,0.36125136193513874,0.4199025186241053,0.41721139007880176,0.4295487444632447,0.4568687154577563,0.5220476535269596,0.5715450763651562,0.6893640785965186,0.776109980895653,0.8928552088129336,0.9707635750233661,0.9486358827685865,0.9715873622245633,0.886711761523551,0.7015685225571544,0.27852501164735777,-0.2067552641768188,-0.418139638815252,-0.5008874595062061,-0.4091819791553982,-0.2117806890000083,-0.007968027359893288,0.2023305995653117,0.38098326832519924,0.4592912244456662,0.46025126664836014,0.47563099078287546,0.513139688173055,0.5117111784037186,0.47904980894531424,0.49163046229646673,0.48073798369594345,0.4846351280276411,0.480450607744143,0.46059362180774055,0.4403953314557096,0.41226023042919374,0.42208079439140006,0.39348416022159344,0.3647171770351818,0.36638327168409723,0.3832353183783402,0.37709999488352974,0.3480093370020649,0.3189178595643932,0.3127783373542775,0.2990517666674619,0.2854048541213758,0.28714426591728925,0.22787778312010953,0.2680968511963194,0.27027503735918545,0.24971366519120586,0.26756143595573795,0.24741961517967448,0.23515140806551832,0.25369441818967303,0.2342876152594098,0.0,0.0,0.0,0.0,0.0,N
0.886711761523551,0.7015685225571544,0.27852501164735777,-0.2067552641768188,-0.418139638815252,-0.5008874595062061,-0.4091819791553982,-0.2117806890000083,-0.007968027359893288,0.2023305995653117,0.38098326832519924,0.4592912244456662,0.46025126664836014,0.47563099078287546,0.513139688173055,0.5117111784037186,0.47904980894531424,0.49163046229646673,0.48073798369594345,0.4846351280276411,0.480450607744143,0.46059362180774055,0.4403953314557096,0.41226023042919374,0.42208079439140006,0.39348416022159344,0.3647171770351818,0.36638327168409723,0.3832353183783402,0.37709999488352974,0.3480093370020649,0.3189178595643932,0.3127783373542775,0.2990517666674619,0.2854048541213758,0.28714426591728925,0.22787778312010953,0.2680968511963194,0.27027503735918545,0.24971366519120586,0.26756143595573795,0.24741961517967448,0.23515140806551832,0.25369441818967303,0.2342876152594098,0.21514906830734984,0.20392985555734028,0.20063852464521273,0.17471678418682307,0.19494425256017048,0.16198766802049727,0.12934189095527002,0.15050097181361502,0.1566950368524141,0.1479265534077592,0.1318386601832323,0.12371521109232264,0.15412231054056738,0.12372071203198413,0.10892385984054809,0.10208857636725639,0.09557113939380701,0.08936877110169028,0.08347821581669951,0.0778957710207725,0.09554168133279096,0.08292125346603793,0.07059531969480767,0.027992658945732288,0.03916351980896076,0.012404549529837189,0.0011998415469193172,0.013184698219971088,0.04071150622420004,0.04556676694062511,0.05066841693412898,0.04072689072238788,0.03865964369436505,0.029176653391198275,0.02755352342650417,0.01849989215993506,0.0020081698688749123,0.0009950388592698657,-0.007471557659829354,0.022449412129502716,-0.0009464973249690497,-0.016534746969053327,0.013884927640664048,0.05209981332181577,0.02933130809669879,0.02198819149935629,0.022423093137873114,0.015347077836702418,0.023678372518203365,0.01684494347062543,0.0024819128037272646,0.01114868293057363,0.027555914798619262,0.028772758769229828,0.03771695648024311,0.023815921806982554,0.009987063938709703,0.0038647632997283075,0.005441895536348055,0.014711316971062123,0.03930731155956035,0.01044954127420413,0.027469478089632904,0.029227990036618245,-0.007206917988086982,-0.005428474272913415,0.019273319438824883,0.005760248052823639,0.007515822748296729,-0.006032477366200146,0.010957337665518516,-0.010293991755127352,0.014263316840080972,0.0005680173097431222,-0.051385204534707525,0.01122743113156293,0.012652027492821917,0.029302641404434934,0.007688534136165929,0.00894064308468715,-0.005149045750766481,-0.011656952332780616,-0.010583371992617696,0.013355417034280241,0.06016123224746172,0.015214001729274736,0.02370281740683414,0.03213886922771287,0.03288195768144288,-0.00463264196481311,-0.04219672526961157,0.019529991050872535,0.012440879475762417,0.020597224642479785,0.005796971501259239,0.04445978465632751,0.029610383502869174,0.03002672651865566,0.03043062086012299,0.03082663323542324,0.023577723356929852,0.031612516174547474,0.024369334850843388,0.04005943806987327,0.025196504556926163,0.04855729022289053,0.026089328142644808,0.0647762796714752,0.027075120752447713,0.03525196809815815,-0.025312297077306485,-0.024710414854120323,0.029421092187626435,0.03775059084516253,0.03849248797839414,0.031653727480901395,0.0019581510984758126,0.010543990735015038,0.05741782976226641,-0.00260144317878923,0.036811696226700524,-0.015372632388376434,-0.006319025529267315,-0.012434264581373092,-0.0031441628252284596,0.044485192871092906,0.03876619169487031,0.017915732732882793,0.03543343092629959,0.03783844384018532,0.048064300299193424,0.05083706572238636,0.04616547489267377,0.05698237293565972,0.029805825722830113,0.04105834653927033,0.014333202787449897,0.06425982764496455,0.045658117972467833,0.05787420429705447,0.06270780168709084,0.060165610053293565,0.08081983513806826,0.07882783342902672,0.08476110574134861,0.09862493938034914,0.11278274300314037,0.08903161277144002,0.09614844873069171,0.12649515734153158,0.12658443526630578,0.14990871448901483,0.23467688438613396,0.2586265330944046,0.25996462706230744,0.299821204133681,0.2788544506330669,0.2811159700031705,0.30659996814502605,0.32473342600912014,0.3507905206021451,0.3083463471515706,0.32729352768447106,0.3159209520586287,0.32006206083232575,0.316775621375015,0.3442504394872399,0.34897627897934413,0.3844215502069152,0.3359409121053097,0.3563380209957353,0.3462468436865855,0.3591286621496357,0.3720284786956993,0.3543480451496045,0.3595432564632036,0.3570122325787055,0.3772829344634311,0.4279571734955155,0.42493741652632894,0.406387268104164,0.463958391988951,0.5059055037800949,0.5474613670824815,0.5656489417601063,0.6521102730102435,0.6998067518759261,0.785091425073006,0.8238432885874138,0.7930690516893498,0.8073174916007098,0.7366068652325509,0.5120830316498677,0.09545398625402567,-0.28412391647516644,-0.46626789291189985,-0.44339726451178774,-0.32250887992073135,-0.19527455535915397,0.06826672173366925,0.27715341160890056,0.3703283655095564,0.408996326394385,0.40087000168158604,0.3918673280210995,0.35148968928611296,0.3638583326532889,0.3831880155253795,0.3789745856988224,0.3742021589286976,0.3994944109398314,0.46254878191823207,0.44115598225238933,0.47291387423781167,0.5043817433232366,0.5203237846014027,0.49786021641365696,0.46759883938114377,0.4448620551385765,0.4144041079557745,0.39918429200565236,0.34574528101384167,0.3228910302673031,0.3077263082145001,0.31556154306211653,0.277649621115877,0.2704294928846038,0.255716897988898,0.24117495295794228,0.2650313151071267,0.2814564326076587,0.2599023381595187,0.2615171152926163,0.26339154475575216,0.23497364486947603,0.22976612026603174,0.20957304259734652,0.2049704282688154,0.1930430619218998,0.1890819775592916,0.2236601536537216,0.17452052641454568,0.17157292355860518,0.15368992913325044,0.15908218227598062,0.17246936977592855,0.14800456364061837,0.1468203413281662,0.13835108216177788,0.09203043136295233,0.0,0.0,0.0,0.0,0.0,N
0.8073174916007098,0.7366068652325509,0.5120830316498677,0.09545398625402567,-0.28412391647516644,-0.46626789291189985,-0.44339726451178774,-0.32250887992073135,-0.19527455535915397,0.06826672173366925,0.27715341160890056,0.3703283655095564,0.408996326394385,0.40087000168158604,0.3918673280210995,0.35148968928611296,0.3638583326532889,0.3831880155253795,0.3789745856988224,0.3742021589286976,0.3994944109398314,0.46254878191823207,0.44115598225238933,0.47291387423781167,0.5043817433232366,0.5203237846014027,0.49786021641365696,0.46759883938114377,0.4448620551385765,0.4144041079557745,0.39918429200565236,0.34574528101384167,0.3228910302673031,0.3077263082145001,0.31556154306211653,0.277649621115877,0.2704294928846038,0.255716897988898,0.24117495295794228,0.2650313151071267,0.2814564326076587,0.2599023381595187,0.2615171152926163,0.26339154475575216,0.23497364486947603,0.22976612026603174,0.20957304259734652,0.2049704282688154,0.1930430619218998,0.1890819775592916,0.2236601536537216,0.17452052641454568,0.17157292355860518,0.15368992913325044,0.15908218227598062,0.17246936977592855,0.14800456364061837,0.1468203413281662,0.13835108216177788,0.09203043136295233,0.10719607472324184,0.12271468618588038,0.06981094887105392,0.07838675823505077,0.04910001539918404,0.05072023608981155,0.08324359694914493,0.10081729196216921,0.0728710085812333,0.08345575281234169,0.1020003436663406,0.11321609256066095,0.10945525575368954,0.07542806858067604,0.09518313205535811,0.09993957319764324,0.10497204638119659,0.10263034175379426,0.11582954397367778,0.09871113096331076,0.0818305499241804,0.06517693513142164,0.05638046655009425,0.04014663373255948,0.008822099171520109,0.023526418210579336,0.04604018912807795,-6.338164310589573e-05,0.022749417723841994,0.030410114639435784,-0.022942603019527167,-0.015058192887986899,-0.03000321380580442,-0.021938061759051983,-0.021434830855233258,0.002068107655409854,0.01036132524749779,0.01108411211115877,0.0271586163152435,-0.017831982446724452,0.006014640477904487,0.029924677870579054,0.030973021495591762,0.024441687707217566,0.002688173466600881,0.057408766481214214,0.0816219151081295,0.03711887424465542,0.023236677846663625,0.04761471616356224,0.0567606245199753,0.04303052922299219,0.06755336636064893,0.06155312454287137,0.07851673209554322,0.07259189662415888,0.11254775579066768,0.07611671323067681,0.06263280027857097,0.08737366441575069,0.035711907634151115,0.029904795180290367,0.031738862044986896,0.033566313065780694,0.020097739543227175,0.014250839159688215,-0.022188429632566887,0.010112007532673791,0.019449961855578363,0.005820652088369558,0.022709383632181335,-0.006303299540576881,0.03339940406244512,0.011908339781474485,0.005633466711925675,0.014570135980770673,-0.007135058508398255,0.016927681780120964,0.017981191201775912,-0.01926159662767423,-0.04131474441435707,0.00530951498727941,-0.009292042600677963,-0.00870338715150967,-0.015846518849215778,0.007489027685377913,0.015459219981318353,-0.007214192506788505,0.008246465648981306,0.008356277742050259,0.023686289102930462,0.01603440969667611,0.008330069798290731,0.008219709825380627,0.023349728545203115,0.023159209413094586,0.02293584819179485,0.022684315162647937,0.0376920756131056,0.014473387824974574,0.021805599102473223,0.029127071428114156,0.005876057756414448,-0.009736241009396756,0.005218436968272179,-0.025669634484857845,-0.010698201096414915,0.004291242853110519,0.042231312996401385,0.003791326027136634,0.018884032762660933,-0.011821480216541894,-0.004261304525967283,0.03393213314741763,0.026353717356506465,-0.004062924051706258,-0.0038184756281153735,-0.011110694057923086,-0.0030053345297520557,0.020508538755687488,0.005951963205745149,0.014467696325192111,0.03842537227491429,0.03198727866394421,0.048654423929219634,0.08843747267256451,0.12842248169566003,0.08456342687142918,0.07149146786991975,0.06629115437590673,0.06132958830217445,0.04897354010573541,0.04451383812368361,0.0555996109827382,0.04403103568438151,0.06330546934413327,0.03701531659687071,0.0568646720889602,0.06172834853669797,0.03632960338906594,0.04944738872272131,0.08580447169688632,0.11484046254849083,0.1059945424921063,0.10511986696673488,0.11986178722529454,0.1349407643933452,0.15035956997285946,0.21961048466070823,0.2586388501877743,0.2598034586592607,0.3071592670982116,0.2937235624435192,0.2959070120619246,0.32134572111828735,0.33946704102903486,0.3579039906953607,0.3002318884138352,0.2810606340279342,0.2850938938962273,0.2893924742314397,0.30922302999019874,0.33692640463873746,0.3266346213147673,0.3623827508494403,0.3448093146766173,0.39615321275396104,0.37884215634163254,0.42275279542733146,0.405591875979722,0.38081749158500106,0.40188570786998584,0.3464972249925252,0.352160198332857,0.3653446797182347,0.40893350860166405,0.43703460412868267,0.5030927537320519,0.5230043725033734,0.5425680923959447,0.6457872045545724,0.6797771871606957,0.7667426637960082,0.8684143074601062,0.8930287735405463,0.8787231076788116,0.8254226161591456,0.7712554858636252,0.5633094054943877,0.224421668857651,-0.2225732467873949,-0.4186179732122324,-0.48604565281838313,-0.39432056244642755,-0.20455826271201855,-0.02368558283342393,0.23242645207290608,0.3804581475272879,0.48925665672603164,0.5436112273052913,0.45953556703386816,0.4357744948033784,0.4265439768620229,0.4395479844842495,0.45956399169659834,0.41023563604429264,0.46737226706085055,0.46291571518126384,0.46569057410209397,0.44518020998655977,0.4396387541290789,0.380337744125578,0.3972243452877458,0.41392454048634286,0.39991105552644907,0.3857861853318368,0.35630149621495444,0.34969680945604426,0.3277956164011237,0.3211927534962321,0.3069912343106062,0.30049974066308704,0.2864596000456466,0.2801764568222509,0.23582288431747095,0.24511624214173175,0.24694361393754966,0.21839813197960184,0.21298624225123955,0.22308166000375906,0.279264309770617,0.25164244898080856,0.23956658402201084,0.19719832105884316,0.2009613459057943,0.0,0.0,0.0,0.0,0.0,N
0.7712554858636252,0.5633094054943877,0.224421668857651,-0.2225732467873949,-0.4186179732122324,-0.48604565281838313,-0.39432056244642755,-0.20455826271201855,-0.02368558283342393,0.23242645207290608,0.3804581475272879,0.48925665672603164,0.5436112273052913,0.45953556703386816,0.4357744948033784,0.4265439768620229,0.4395479844842495,0.45956399169659834,0.41023563604429264,0.46737226706085055,0.46291571518126384,0.46569057410209397,0.44518020998655977,0.4396387541290789,0.380337744125578,0.3972243452877458,0.41392454048634286,0.39991105552644907,0.3857861853318368,0.35630149621495444,0.34969680945604426,0.3277956164011237,0.3211927534962321,0.3069912343106062,0.30049974066308704,0.2864596000456466,0.2801764568222509,0.23582288431747095,0.24511624214173175,0.24694361393754966,0.21839813197960184,0.21298624225123955,0.22308166000375906,0.279264309770617,0.25164244898080856,0.23956658402201084,0.19719832105884316,0.2009613459057943,0.19737362606028375,0.1482350338983501,0.1681735517813888,0.165497140143418,0.1631347411908124,0.14580719543087411,0.12880034706789673,0.11975785642752214,0.11103983014830819,0.14085450513557665,0.10222192108468574,0.08683923932800115,0.07942274229084226,0.02648100398895998,0.06555857239125264,0.06674894356799604,0.07589874717811419,0.04715682102372106,0.018727626682612578,0.04409829963382831,0.03920969455013588,0.011699903724897055,0.06854573635776744,0.08748029786865322,0.07614108327424282,0.02688224050438665,0.061962269108982955,0.06675443410382247,0.0412535133334656,0.046585589611697134,0.0445376265299686,0.0656694483358529,0.04120174363402337,0.07810833406342205,0.04647773513136773,0.03800026224106538,0.04502708545227764,0.0522677299807816,0.0673558604349506,0.06735906071381054,0.029344577937085115,0.04500114506931024,0.007339522442598757,0.008048071292871516,0.0318347483609962,0.032841650776786586,0.01870090039503522,-0.018238454823067938,0.028994362219280454,0.038128215991861183,0.032079468003456756,0.0566886536497928,0.004967051075767806,-0.0008306997367572322,0.008720919505336149,0.01833041569699014,0.03563061665657243,0.030046984337000537,0.0015706219088060535,0.003682666206319427,-0.0018332119013307092,0.007938278783048112,0.017705329398407167,-0.010748273135719194,0.014265901899020455,0.023966754610763922,-0.019861066851163015,0.012678972367628214,-0.008324170728051118,-0.014103776618718282,0.010617481112608101,-0.0029377345277297644,0.006357918704668854,0.00793460402689252,0.009429727079808077,-0.012085165539435188,-0.0031240259555797957,-0.017180026000083035,0.022158691603527646,-0.007372209675338475,0.0012064681195005842,0.024969890978681887,0.010427399489804484,0.026351486873802253,0.011609861889147536,-0.010873895193703725,0.0353139217451155,0.0049858614079593,-0.010160603949521922,-0.002484030270402705,-0.02547364698177725,0.012569194482948711,0.042875010990671224,-0.018608653123034807,0.003874996753278717,-0.011932215811193338,-0.004893570398055313,0.055562967600893076,0.02425643630152973,-0.014750758714874773,0.030245121693443018,-0.0012187918179293105,0.04369412873063598,0.03508679792503814,0.03409828294739168,0.048377291647100994,0.05500654201145837,0.07691723919734393,0.07590867458753292,0.05198702919197641,0.028082469005275567,0.05004926461490869,0.05676117839856807,0.025298996700994728,0.04736504470115305,0.015983695173490648,0.03049836481943929,0.014498929040444654,0.013838388228918051,0.013238031541230754,-0.010222375900861455,-0.010690041581691288,-0.018725750286624463,0.011525277179667124,0.011297776318673467,0.0035238831175909376,-0.034713051981311804,-0.011707873515066334,0.041984594236444316,0.019396090814577445,0.012235971747252477,0.012874582627168143,0.021323662709838768,0.037594886877865524,0.046416913710187406,0.05544257833933203,0.05704157412790973,0.06650768175366227,0.053285667630414625,0.0479516043749778,0.0581569336478017,0.05334558313794245,0.07173428333385726,0.10569076894004144,0.07116786756283013,0.09043715910692132,0.09473349657081637,0.07642291950861588,0.08136117770565812,0.12483781946198642,0.1151616184743145,0.12111127594642035,0.11976745916189722,0.1187760492186561,0.14106523806266083,0.10258225596218823,0.14851727313955537,0.17189193709754577,0.20327333992071564,0.20445462064986644,0.27477408912723844,0.26140102311371477,0.2789542459933354,0.29686363213421196,0.28455766113322606,0.28023642185316766,0.2991742158404981,0.30315375956084883,0.29980500266481813,0.28911492419153195,0.3169177332111492,0.29150000605106924,0.2969001958315354,0.3254578400606684,0.3465866272175868,0.3296986184922089,0.35118450993875755,0.34988716195022485,0.40219386616519137,0.3934537937195691,0.4076919306894722,0.4143094732419308,0.42091285329769335,0.3816162473314217,0.38807791442164924,0.4555396571389293,0.43112933112540647,0.42942343381854253,0.4580159392117026,0.49393285481038524,0.5447637174110901,0.6028126844606942,0.7291542831715565,0.7938236556257547,0.8808130337288328,0.8830743092011971,0.8387426117088985,0.7783072007037672,0.716970232239226,0.5247423288218818,0.11747925716322534,-0.2756661911872475,-0.47903199597504775,-0.4697590455110107,-0.38541327176251505,-0.1648381536780823,0.008632889089003852,0.2420573805316853,0.3750418819848555,0.4840768446194103,0.5081046572286968,0.5006871108619545,0.5001005463597875,0.4758457075431767,0.46619393131443954,0.4864898108193327,0.45273669527918975,0.4643304176904746,0.4525525408273384,0.4403797639239364,0.4584279782943937,0.4685377797699467,0.4783962010979859,0.4421977484382825,0.45168072313774027,0.4457521187010338,0.4397312186559655,0.42601071324172085,0.3969810940413921,0.3832379967978767,0.36952634329255574,0.36351350364484913,0.34994063581443735,0.3135470801934822,0.2849191565270128,0.25643434261128495,0.24339305617479487,0.2534529779316512,0.24842184257463565,0.25123775627303463,0.24663030887355003,0.24225219856212551,0.22283052584513716,0.1883740896533168,0.17709784897813877,0.15080127251388542,0.14769749189233788,0.0,0.0,0.0,0.0,0.0,N
0.716970232239226,0.5247423288218818,0.11747925716322534,-0.2756661911872475,-0.47903199597504775,-0.4697590455110107,-0.38541327176251505,-0.1648381536780823,0.008632889089003852,0.2420573805316853,0.3750418819848555,0.4840768446194103,0.5081046572286968,0.5006871108619545,0.5001005463597875,0.4758457075431767,0.46619393131443954,0.4864898108193327,0.45273669527918975,0.4643304176904746,0.4525525408273384,0.4403797639239364,0.4584279782943937,0.4685377797699467,0.4783962010979859,0.4421977484382825,0.45168072313774027,0.4457521187010338,0.4397312186559655,0.42601071324172085,0.3969810940413921,0.3832379967978767,0.36952634329255574,0.36351350364484913,0.34994063581443735,0.3135470801934822,0.2849191565270128,0.25643434261128495,0.24339305617479487,0.2534529779316512,0.24842184257463565,0.25123775627303463,0.24663030887355003,0.24225219856212551,0.22283052584513716,0.1883740896533168,0.17709784897813877,0.15080127251388542,0.14769749189233788,0.14486724599751963,0.17288071912471537,0.14004409375019006,0.10749178480010026,0.12107459729478504,0.06617224709949784,0.01920021577336457,0.1024223830703219,0.10187851966555582,0.07870025845861399,0.04052853905772482,0.04849409146854528,0.026181255885898366,0.02707886235961399,0.03590251644917328,0.02208477863439683,0.0467554879946153,0.05642255054515081,0.05872527726528034,0.023095422808156445,0.018303361155311927,0.03670480238442204,0.017165181157635725,0.03609593578122848,0.047645141252780285,0.028885056618215287,0.04858516080984376,0.07617587537992616,0.04288010474154726,0.06331528865259942,0.045779371718243686,0.051399078820685104,0.034320538147829066,0.0021798047909074,0.02374440097985614,0.0073112863494258105,0.029289308351197967,0.036182545554858316,0.020343659139597077,0.01997385842792276,0.012142612282653393,0.004485109068012339,0.004636476435161568,0.02787327445239214,0.04362331094956677,0.021314254390176007,-0.008494806137449544,0.015320931254446283,0.039265252820087304,-0.013082496318982008,0.018741932755423775,0.020111657462363562,0.03687025320739395,0.02316373672569191,0.04011830819860951,0.02659677450602534,0.005517745205695109,-0.00020030312849806555,0.009436713960579855,0.02678144511618578,0.013620672427309372,0.008155592502458264,0.0027386047907318766,-0.01791938687940728,0.03023142058224604,0.017281797012768572,0.06549037090038799,0.060230584201441784,0.02442173858855145,0.04211447332281229,0.013964389332442099,0.04694615772549975,0.049356553878564205,0.06703830560556424,0.031212071297543928,0.07177600006355254,0.028252800930657337,0.03054010806755084,0.009857588469387625,0.05025385328426909,0.02181672877747227,-0.0066883841454589,0.03350380633737561,0.01248140153483636,0.029575980516982948,0.016007053408031425,0.002332895407061909,-0.019095572535484308,-0.025361621762945534,-0.01647107406729229,-0.02299316125712503,0.0085604528804101,0.017058466268371042,-0.020423191759076895,-0.01218685451998438,-0.019362011982672123,-0.0037380834095147703,-0.003517197098492189,-0.003410942330939838,-0.018696393625166233,0.004122792124110775,0.0039229115394523615,0.0036362438988770123,0.02619504886584551,0.018117019495855553,0.017617175981252804,-0.005862645654783767,0.0393825800078346,0.031097699745651877,0.02278082480382221,0.022081181882954867,0.021364974094186376,0.0664884780414643,0.03519585696502981,0.07268186115633643,0.06433160027662468,0.04835891743131642,0.04769442438248345,0.024136852356215537,0.0006163328478753845,-0.007578578174110424,0.014840672177020444,0.04495608253958508,0.01400084829249355,0.013678491730404713,-0.04006099623777424,0.020900316712659024,0.020818700780703338,0.02083542178667905,0.005677093030659051,0.013560407534327771,-0.00899542817818778,-0.0008494527446829135,0.02272560133598042,0.02353271773492794,0.039789314922022256,0.033298145276793735,0.03463485581626734,0.04380910769604422,0.045547479212097744,0.01693487477218842,0.011470519473424283,-0.001402449530878445,0.008890686301393957,0.10349059811575807,0.06844553826802212,0.10244180316541904,0.08322424359516738,0.07957356920232878,0.0838555250840034,0.0731525487840966,0.07039538762493448,0.07559005863807607,0.08110077203546796,0.05636699555074041,0.08544961405377884,0.12250449825402684,0.12932854645553205,0.12884968318124573,0.1822024605247586,0.22061605400578146,0.24409182171579163,0.27555438319401937,0.26151258909384295,0.27073718977951416,0.29558307962559593,0.32076234447802787,0.32334413742467727,0.3186032819550606,0.3370958945233559,0.355886314668611,0.32147137707970347,0.3255337790247508,0.36041569746021807,0.3649674977749545,0.35445229170606596,0.3594142758385175,0.3492642357544211,0.3851086180766017,0.3752230262532181,0.3883516898855001,0.3938980495047797,0.36126360388393897,0.397394069473751,0.349423891756041,0.3548608132639122,0.4136646422428707,0.40353013515156655,0.4313936254056692,0.4590017867593595,0.5168722295827599,0.5514642659676415,0.6009320817567191,0.6957856506287031,0.7366272092764314,0.8456577059020447,0.908189305448732,0.8706615833125477,0.8858288546952261,0.8007828877836107,0.6001572087884097,0.2456569754778694,-0.22460110673906455,-0.45156045734600125,-0.47349881054047543,-0.4203484603886661,-0.22331889266021776,-0.012257485930570803,0.2358386933731242,0.39114464643139324,0.4690218372421081,0.5153955934506058,0.5532645330650143,0.5444930583740991,0.5197158989280297,0.540130881182381,0.5141041361597457,0.487545281396449,0.521644273593484,0.4789108058159029,0.4663785178729698,0.4535324678517804,0.4633455658455617,0.4652982703864804,0.444151632964223,0.43815456247584383,0.43206356316151223,0.3953500388032365,0.38918069097730107,0.3753813315550301,0.36926601040301327,0.3632225359531594,0.3267125057793019,0.3132517046120126,0.2540910061365445,0.28679899853183516,0.2891335348708633,0.3298874052984739,0.27153267353962973,0.2821979475892412,0.27784246797059736,0.25083861264399265,0.2546890090987765,0.26648048220449144,0.21744985432958833,0.22986898650696597,0.0,0.0,0.0,0.0,0.0,N
0.8858288546952261,0.8007828877836107,0.6001572087884097,0.2456569754778694,-0.22460110673906455,-0.45156045734600125,-0.47349881054047543,-0.4203484603886661,-0.22331889266021776,-0.012257485930570803,0.2358386933731242,0.39114464643139324,0.4690218372421081,0.5153955934506058,0.5532645330650143,0.5444930583740991,0.5197158989280297,0.540130881182381,0.5141041361597457,0.487545281396449,0.521644273593484,0.4789108058159029,0.4663785178729698,0.4535324678517804,0.4633455658455617,0.4652982703864804,0.444151632964223,0.43815456247584383,0.43206356316151223,0.3953500388032365,0.38918069097730107,0.3753813315550301,0.36926601040301327,0.3632225359531594,0.3267125057793019,0.3132517046120126,0.2540910061365445,0.28679899853183516,0.2891335348708633,0.3298874052984739,0.27153267353962973,0.2821979475892412,0.27784246797059736,0.25083861264399265,0.2546890090987765,0.26648048220449144,0.21744985432958833,0.22986898650696597,0.1967650072400208,0.24804899581012171,0.2156143088093015,0.19880398207821634,0.15941378621783986,0.15093595592132766,0.15044738038616054,0.15794855865806265,0.14287341817515892,0.13578673537417568,0.11376238842602784,0.13028812499469714,0.08602202707873587,0.08794080598827907,0.06726728154181622,0.09277002102194523,0.08038815852136921,0.09124800629349888,0.071853652010837,0.060406185217947175,0.056899061977761095,0.09189125569298187,0.058395268102864266,0.07102533192794094,0.06864192653089374,0.0283124503611167,0.06465014582650967,0.08594883302051294,0.05399219268455829,0.022260933928004673,0.021311131371224517,0.005284199903177111,0.012377451126582752,0.02729798632444175,0.01946993520715007,0.03473183942191578,0.03486613999685291,-0.010703440856447066,0.020275741596394527,0.020813703636406805,0.006183637648700552,0.006941541635217196,-0.0074882560616850525,-0.006549823065961121,-0.013176699515960781,0.018471290267226735,0.01961375110885069,0.020809108432475645,0.01440841537953895,0.0004040758886101213,-0.013570123301143735,-0.004597487785586186,0.004391236945086614,0.01339010669004124,-0.0005312092357635269,0.0008285302734925256,-0.02838538648091093,-0.004122943014881523,0.02012238659925038,0.006140429654089544,0.007418370942399999,-0.014254093557294746,-0.005389846846233586,0.011085033786488932,0.019886437929903016,-0.0019112550948044075,0.022105147556130585,0.015519923442218772,0.016539062237348523,0.002236837274396135,0.03374344246034465,0.019359963664503627,-0.025632314163588722,0.013386710080554174,0.02179592729103371,0.014878893753864933,0.0002776019327520961,0.0009168795822793934,0.024438643383672652,0.009711711849690564,0.01786805878266462,0.04126651584229785,0.04170000597730196,0.0038856103318324936,0.034803479032804854,0.004548642656177686,0.035383967568768306,0.0356115617992987,0.028155179096768377,0.02829694030969355,0.005470096454648788,-0.025043513880446698,-0.009754805244784196,0.020771683676845745,-0.0022349333072209554,0.012924905449094717,0.005121877057048835,0.02020696180081122,0.019975111085748485,0.042635723709161806,0.042342095323379,-0.01146978191254194,0.026389333831490572,0.018375944835898595,0.025624247343968332,0.017570887607169506,-0.005781796873567446,-0.00622428223837833,-0.00667813409809083,0.0005014926139774461,0.01531862254457385,-0.008071451223063478,-0.03909896377206556,0.021579710186372014,0.02114390053435818,-0.009832254520364476,-0.002567448276184233,-0.002901262607425306,0.027382967788592262,-0.011044003333642314,-0.011192278382271091,0.0345901764601139,0.03461754532260032,0.019467116866183232,0.012074551821456728,0.020092503898081888,0.005324837376914511,0.02891422903105758,0.022098596683963117,0.023096081385378983,0.024275984636023484,0.01036603761353365,0.02722548885701818,0.0672233511766772,0.06159686251387174,0.04856329249064787,0.08926396727276223,0.08436941851334746,0.04153009934314087,0.06009349915787948,0.06365343832129336,0.1057081690550809,0.07928507361758734,0.10665465100654335,0.1037677230421039,0.13176222028198165,0.10658791243446133,0.14287173630625943,0.11071354079895092,0.1400219251063573,0.18495147347308585,0.20729752487679273,0.22998613227916145,0.23009358309820516,0.23818519871999586,0.2619007855346672,0.2706716847929872,0.29505956698319113,0.2815687459656721,0.31424824747112706,0.30903368284768684,0.3117638245277093,0.3224271707190916,0.34865211565328275,0.32929234784180883,0.33310454486108165,0.367712099084379,0.3337563695648132,0.3305547027045343,0.3886496825397754,0.3628287789517454,0.38296989290951783,0.38027128532873755,0.3929096700730263,0.3902867660655096,0.37236814705165994,0.369683254713817,0.4127596688935851,0.3945769338481562,0.3915074462605621,0.4340729008731196,0.44581266709347267,0.4725272214475508,0.5218075371845761,0.585959315232314,0.6954929216942166,0.7815768799223921,0.8441493293884103,0.8907859565221142,0.8908509527933292,0.8977600590115151,0.7586052809791605,0.5191519616079914,0.04940818940181942,-0.3526990717055883,-0.5115063823042015,-0.4499946224817107,-0.3362837212303008,-0.11684866761546385,0.12432130908268577,0.27268226083676067,0.42000889876503567,0.5052454737209937,0.505541410726996,0.5126654312181497,0.473196086911696,0.5094628275792296,0.4763418175183085,0.4885161383632807,0.44670575444452487,0.44266455857858644,0.4305980228851006,0.44112395458765274,0.44372636917831965,0.46137726042812505,0.4406318550495032,0.4197405309806783,0.4369514630005995,0.4540961787588173,0.41007965661954393,0.3660678819488877,0.3603004251866507,0.3698833876918303,0.35663815963594925,0.32823301082963785,0.33054170210609984,0.3100974401787183,0.2974877823217838,0.30037437079436263,0.3111344507312608,0.3221437653954303,0.27228631847884893,0.2914808740215261,0.2956840990369973,0.28490720640384537,0.24387702089480928,0.23373349117333977,0.2392007980910392,0.22207758930403124,0.2358587745765412,0.20413342095938392,0.1880356033776396,0.17992528250521456,0.15687856915264936,0.13417794871744385,0.10418075767622897,0.13565821004263562,0.0,0.0,0.0,0.0,0.0,N
0.8977600590115151,0.7586052809791605,0.5191519616079914,0.04940818940181942,-0.3526990717055883,-0.5115063823042015,-0.4499946224817107,-0.3362837212303008,-0.11684866761546385,0.12432130908268577,0.27268226083676067,0.42000889876503567,0.5052454737209937,0.505541410726996,0.5126654312181497,0.473196086911696,0.5094628275792296,0.4763418175183085,0.4885161383632807,0.44670575444452487,0.44266455857858644,0.4305980228851006,0.44112395458765274,0.44372636917831965,0.46137726042812505,0.4406318550495032,0.4197405309806783,0.4369514630005995,0.4540961787588173,0.41007965661954393,0.3660678819488877,0.3603004251866507,0.3698833876918303,0.35663815963594925,0.32823301082963785,0.33054170210609984,0.3100974401787183,0.2974877823217838,0.30037437079436263,0.3111344507312608,0.3221437653954303,0.27228631847884893,0.2914808740215261,0.2956840990369973,0.28490720640384537,0.24387702089480928,0.23373349117333977,0.2392007980910392,0.22207758930403124,0.2358587745765412,0.20413342095938392,0.1880356033776396,0.17992528250521456,0.15687856915264936,0.13417794871744385,0.10418075767622897,0.13565821004263562,0.13691044723034482,0.13850020984477712,0.10221646035504758,0.08154492684131445,0.1299708263014342,0.07173532272839847,0.09786876270943652,0.07846003076284097,0.044068073759252466,0.06345872048252954,0.06020993736534899,0.0266724671308545,0.06217711924994384,0.036810924550948435,0.034621338571485326,0.07852399405315408,0.0691710731480716,0.08296782676989493,0.05877297280877693,0.05006663695585187,0.07212137682401806,0.06379495126624546,0.06328367148338662,0.055293345802817404,0.03981237581890485,0.04739470602998444,0.06274535281646641,0.009437456843835961,0.0326460354883707,-0.012829225082561619,-0.020020792123517053,-0.02714755612348158,-0.0036534120121202484,0.019888685557338737,0.020547583848482667,0.028882214580191582,-0.0009631416933172863,-0.00786398103145855,-0.02239316610727831,-0.021632628616904178,-0.013227992276381072,0.0028186291406390486,-0.026983805378950017,0.050192929810807474,0.012748336526334732,0.0058714980677751225,0.006639427454753456,0.00741201803475301,0.008190584800794126,0.024259315371155738,0.04033653704049533,0.02585754612154488,0.0037476211430716383,0.027497730716809714,0.04361845691894649,0.013903154022364538,0.0453326002184746,0.0614925879587328,0.05474177661566333,0.04036288262687374,0.04127980356376285,0.03456750612727021,0.04314947967536373,0.03645885682976019,0.04506019320617284,0.061310587912659066,0.03935964054293844,0.04797846677790633,0.018391798332116988,0.004087404510580483,0.04327005297396653,0.051881213463132556,0.029918142638089062,0.023226566808825337,0.031803333638571345,0.040362264972374315,0.03361702363861327,0.04977125455306283,0.058255340962310234,-0.009707856956701798,0.013989329819169677,0.022363118223201653,0.00012711335411430902,0.01605081176445464,0.0242818867310875,0.032458115175539454,-0.005273031288817101,0.01042339867162717,-0.03507787826642798,-0.04244146194839413,0.003615376909334493,-0.011525332796215308,-0.01144520917804233,-0.003780778711947669,0.042039793634511276,0.0190425148996163,0.003648098146865619,-0.00413738719956062,0.01861647457205006,-0.004498420729572543,0.0335046458461131,0.03329353984741016,0.01779923678218231,0.009952545690594004,0.002118367245928369,0.024868826572111875,0.03236148977449121,0.009319617984977597,0.03216376864012572,-0.006080463645784258,0.03978036473093845,0.0016406264683822918,0.017052689069786384,-0.013316188287647598,-0.005403915465978727,0.017872494913180225,0.04123799844286011,-0.004072722545103288,0.027135543686015645,-0.010316888240041273,0.021123989801700563,0.014486611075019142,-0.014937419293466835,0.024557979816549527,0.010719572985325988,0.019971827912754536,0.02175879090342122,0.01609022777346996,0.01061725038776452,0.03591525468805287,0.053786489945761816,0.018391571013370384,0.052002850349743716,0.040007488332986826,0.058828756393811896,0.05498499360002537,0.08961606751576708,0.07867392876939606,0.06037335739172347,0.06528728520124226,0.06285670340826358,0.09129537037074173,0.10476072689369609,0.09561703151866588,0.1097182028822764,0.08593731373855432,0.11597598510399895,0.12342340176970507,0.18469726550032908,0.23102701893270575,0.24713136511606273,0.2635765810205792,0.2956447982742599,0.2974851918808095,0.30730146188935964,0.3021641821816871,0.3279154837163287,0.39218871241753833,0.35742793262133865,0.322960347843095,0.3040553711890918,0.2854149815931769,0.33579564098175985,0.3099916486114604,0.360812363624993,0.3506903111852037,0.3254511286173045,0.36912597400832364,0.38234946196546105,0.3650932744208137,0.3631759106152145,0.3536409507390551,0.3670203430018945,0.3345053544537711,0.37832178810986716,0.3838086743356875,0.3891322487412837,0.42481537305066075,0.4449644148998361,0.45717380174668254,0.49196010075502095,0.549271773848966,0.6061304586241058,0.7236110495865765,0.8175977685794086,0.9109515871878252,0.904266111525417,0.8280351252733028,0.7815209843661127,0.6882284431813397,0.40288525490748633,-0.021106442499629,-0.3775174286569748,-0.4906822974401797,-0.45999215290542694,-0.31601839070657334,-0.13513743629899616,0.12092612924916078,0.2917827370166682,0.45392731357455585,0.48517550067063464,0.53079158990975,0.5297181662670358,0.5584413479278146,0.5329740527904158,0.5221555033999162,0.4878418896336874,0.4988671583890246,0.48651663018563657,0.46612913447685766,0.5141727068742663,0.5007937715915606,0.487172553045763,0.46571367810096903,0.4288193377585086,0.40709666866469246,0.4005848439984455,0.3940380917699999,0.395133001593391,0.3504125541508001,0.36688830615556195,0.3223264169780097,0.3084519471418274,0.3100079777411733,0.3193775024531439,0.33658341975762135,0.3005153925055805,0.28760758779903595,0.29787812173629613,0.2931363981643585,0.2963219702810067,0.25395837717529,0.23483095380919577,0.25423358145410485,0.23576150911453686,0.22527199210989374,0.2151309230533114,0.2053445230406394,0.0,0.0,0.0,0.0,0.0,N
0.7815209843661127,0.6882284431813397,0.40288525490748633,-0.021106442499629,-0.3775174286569748,-0.4906822974401797,-0.45999215290542694,-0.31601839070657334,-0.13513743629899616,0.12092612924916078,0.2917827370166682,0.45392731357455585,0.48517550067063464,0.53079158990975,0.5297181662670358,0.5584413479278146,0.5329740527904158,0.5221555033999162,0.4878418896336874,0.4988671583890246,0.48651663018563657,0.46612913447685766,0.5141727068742663,0.5007937715915606,0.487172553045763,0.46571367810096903,0.4288193377585086,0.40709666866469246,0.4005848439984455,0.3940380917699999,0.395133001593391,0.3504125541508001,0.36688830615556195,0.3223264169780097,0.3084519471418274,0.3100079777411733,0.3193775024531439,0.33658341975762135,0.3005153925055805,0.28760758779903595,0.29787812173629613,0.2931363981643585,0.2963219702810067,0.25395837717529,0.23483095380919577,0.25423358145410485,0.23576150911453686,0.22527199210989374,0.2151309230533114,0.2053445230406394,0.25704957625450703,0.21742110456004612,0.20872521891078435,0.2156807559865879,0.20772259915587993,0.16192600822597789,0.17762848187399305,0.11728160902409059,0.13371137447965184,0.11229225714241052,0.1065100738960638,0.1163598962643026,0.05778025995103047,0.07595276414090033,0.08681507383703466,0.09036047754815309,0.04073310065156002,0.07547153294635665,0.07230469591521275,0.07707314022196932,0.05920250658024417,0.018683869708651452,0.047205466425364676,0.060701978747698664,0.04388094624970528,0.073147063107635,0.03386843302614812,0.07122225862551755,0.04765174400489988,0.01663610821901749,0.02401287722119838,0.04684640020016026,0.0239936320668629,0.0012916612977061093,0.0016530918729063622,-0.005499662584346848,-0.012536922502951523,0.01109587868416284,0.01953995012496095,0.028068084229408912,-0.009178663033672601,-0.023437553395768713,0.023489204013926263,0.02461398462297779,0.002853778738395322,-0.018874546402734733,-0.017654137832219672,-0.00877362371333035,0.00012149977643083393,-0.0062548848888601535,-0.004981621629254453,-0.01134423436411054,0.043428229510685944,0.02178851954930634,0.007791358602330821,0.0549255412070444,0.040926361562428834,0.019282300621270086,0.020557270176523215,0.04474926623894274,0.02308308844886311,0.009046590183077295,-0.012645584181133193,0.0038528032419571194,0.012691733556478632,0.021511352501266026,0.022668832671137493,-0.014403125423874353,0.024915707392912538,0.01072037362951604,0.03470798165297344,0.020463579689618015,0.02911822959401321,-0.008101841422640046,0.008141454798547084,0.03199933408058579,0.0023400618538645607,0.02614375009093735,0.011712673154515556,0.012536616699372926,0.02097366907552256,-0.0011839634208033556,-0.008088176092300087,0.007901974021490295,0.016220924044382704,0.0015859812756706569,0.0022045558087479583,0.002793865908381524,0.010995483344582316,0.02680951107535738,-0.0032541868174234285,-0.025705512502004677,0.02822885068646547,-0.0019189838437041703,0.02139969503584171,0.006490135476692864,0.0297694851707997,0.0071843076632737745,-0.007772795180060798,0.015466378057058727,0.00813185425167056,0.023716860431712342,0.00873421516840945,0.009035531403451737,0.055189468722104486,0.047859909206511925,0.040539555844961744,0.002664869056777718,0.04121829373164282,0.011014251626640924,-0.0038893963123820307,0.011792062205092534,0.035136434748861085,0.01265565055771165,-0.00979962385697486,-0.016944604632767753,-0.0011350317856442757,0.007067690192486661,0.007668084008433207,-0.006970817812121804,-0.02156165655589252,0.017390862931470862,-0.012369377219819264,-0.01913784623898315,0.004735158466176925,-0.009513390843492195,-0.0007418132574719195,0.0004950177947941914,0.024773938097516896,0.02625723253307441,0.05844597506892108,0.029653466375535804,0.016304721432357998,0.018410058524751634,0.0359797144144735,0.04609946928496468,0.025854923421094196,0.0669532692505,0.04714083433132091,0.058124347050231485,0.06170556776427058,0.05789324042211353,0.06197871012994562,0.0510457583143782,0.06330949524986687,0.08349459208335507,0.06575958404361253,0.06360150184121519,0.06938540864742383,0.08311750446866446,0.0742378230136224,0.06567616630218112,0.0727205103224346,0.11065850268164533,0.1336457886431293,0.14168618923373524,0.18063158630741477,0.18171133064705786,0.20605860220308708,0.2460325787852024,0.2252183143260236,0.25059454881946097,0.29159270899971446,0.28707714925754296,0.29817404350294946,0.3630837657321679,0.33661028284702965,0.35628957550948903,0.34569520573520385,0.2895305928333491,0.3329679793332325,0.3231614212468978,0.31358259049869935,0.3118528141498395,0.35615767071926513,0.3318520826083654,0.3611742915530808,0.3676830541194055,0.3971985984846654,0.3809174917708001,0.40286341196024394,0.4324363098078569,0.43903412175143897,0.4149769865752643,0.4137144866343924,0.4122795809722066,0.42591043427302866,0.4469187852952519,0.4676142432450986,0.5108700021055611,0.5537081887323696,0.6266385595299641,0.6990364636204455,0.8396130298878839,0.9183980661244979,0.8894731853267739,0.7986128666129597,0.7145115062634,0.629444959067362,0.33700768134704867,-0.10939955314920449,-0.38128528137519246,-0.49401311524750663,-0.401778805839613,-0.30325772794460804,-0.13727762271810456,0.12679675879774166,0.32857733586807436,0.4375801260997078,0.4844511429541714,0.5533243958910841,0.5602194655755145,0.5357749886906666,0.5641169847211368,0.538332423209719,0.5272589144957931,0.5156753739872055,0.4959995356399043,0.48357091956099013,0.46316074648918826,0.4959523677353697,0.4673733574251628,0.4920924552025879,0.46317387340732213,0.46471573498362495,0.4356262049955759,0.4141500378833465,0.4003225357427108,0.4171012944472769,0.37282008561785845,0.3821298761210044,0.3457190331279539,0.3400274745420749,0.2886642928180828,0.30627325134017885,0.308818844261567,0.288678582795938,0.2840771631188075,0.2873891089567307,0.2527802494370754,0.2566782542244543,0.22268043222874565,0.21957045097936917,0.2244334064914912,0.24491911629872049,0.0,0.0,0.0,0.0,0.0,N
0.7145115062634,0.629444959067362,0.33700768134704867,-0.10939955314920449,-0.38128528137519246,-0.49401311524750663,-0.401778805839613,-0.30325772794460804,-0.13727762271810456,0.12679675879774166,0.32857733586807436,0.4375801260997078,0.4844511429541714,0.5533243958910841,0.5602194655755145,0.5357749886906666,0.5641169847211368,0.538332423209719,0.5272589144957931,0.5156753739872055,0.4959995356399043,0.48357091956099013,0.46316074648918826,0.4959523677353697,0.4673733574251628,0.4920924552025879,0.46317387340732213,0.46471573498362495,0.4356262049955759,0.4141500378833465,0.4003225357427108,0.4171012944472769,0.37282008561785845,0.3821298761210044,0.3457190331279539,0.3400274745420749,0.2886642928180828,0.30627325134017885,0.308818844261567,0.288678582795938,0.2840771631188075,0.2873891089567307,0.2527802494370754,0.2566782542244543,0.22268043222874565,0.21957045097936917,0.2244334064914912,0.24491911629872049,0.21226172734088947,0.23344762334375968,0.2015013911295737,0.18519991166396754,0.1769045099788782,0.17661703994935848,0.19197992577058573,0.177144524653817,0.2085245113934701,0.16385484915180637,0.14247164890608632,0.1290883797192094,0.10077634345315621,0.08045492558405483,0.09104300770631601,0.06376161102763023,0.07501894355146206,0.05603525246240818,0.05265223249046299,0.01901384007726618,0.008602681358061495,0.03669399318552044,0.019224056444141168,0.03259952024461726,0.06152947946526783,0.08308141114413652,0.08960539435721818,0.0810925476161263,0.08045790593352582,0.10297464401666905,0.06457662132851201,0.07987500836832387,0.11065155589877985,0.11104616046483894,0.07340543956705226,0.09705582327260956,0.09792845839731815,0.08365146458996113,0.05421101701435496,0.055441601633039524,0.041479975241377344,0.05816007553881496,0.013769445656784136,0.03055607352122094,0.009165687773276818,-0.012209948558126025,-0.04886930217122473,-0.03205367654972556,0.007661354451604945,-0.013786921821448002,-0.019990704633709954,-0.033879796447199996,-0.0019675521802534988,-0.03123465986670473,0.015864934342648615,0.009429332096093711,0.010592926784104999,0.019358425909101522,-0.010120245047177762,0.044422749143712435,0.007237466269196999,0.015873390552603683,0.03212650864841867,0.033075637529524006,0.0569310722776534,0.07312984901228362,0.04346726435485572,0.04436007191768094,0.03760298533663342,0.023197770660599408,0.03935328013691022,0.07078806612532325,0.07929611969117221,0.08016126185818055,0.08102546232679893,0.07424738030581991,0.02926090534870144,0.030121378412115134,0.023337806980067384,0.008909231828392991,0.047966215785286676,0.033527270593948125,0.02672267470533398,0.01990944534997876,0.02072737583039198,0.0215332502165078,0.02996665862672983,0.04602562867053633,0.06206658328143794,0.01695553136608142,0.025311632879707315,-0.012206772594982731,0.011377808718756238,0.0196491140168811,0.02024682687572301,0.020810532626043075,-0.00922755884890389,-0.008737883606433988,-0.023570368883213576,-0.0002351988621998576,-0.00750359602409574,-0.014807847550945549,0.031344836744851716,-0.02951208179846756,0.0013030790388441223,0.039740975945353814,0.0017522590942333723,0.0019652058633081826,0.032744807386318325,0.0024000417015566074,0.017917549032812067,0.033454860750178096,0.02609378316402587,0.01876468436646906,0.01147343745268244,0.04243309590779053,0.035234833209615325,0.02809143331061448,0.02864968461838215,0.021631870555322775,0.037608860351463914,0.030736866650736598,0.0392279173221881,0.01723788328111445,0.010619897415317362,0.011736822524461663,0.028234377994073922,-0.008656323901175409,-0.007233760362344289,0.009582591120164576,0.0035910305778342495,0.03592872308395865,0.037828083431214694,0.01693589519540739,0.00382311733994762,-0.024429559749950352,-0.029609826063264046,-0.004068870151492169,-0.008928161216726693,0.03987886009241773,0.05830759476380619,0.01580342828972377,0.026999096635294415,0.03841525020966464,0.04242113348254395,0.039027253690065086,0.05880972533339075,0.06357137419334594,0.06860491590084938,0.11212711275797188,0.13301547108743791,0.11599566563245427,0.12220725448561588,0.10580884796374838,0.12029735830217159,0.10454734605184995,0.14262041228776914,0.18867290302272047,0.2350677253808056,0.25888393343626215,0.2830481349807469,0.276995459487529,0.3018570793012947,0.35763114304803806,0.3296924674282411,0.32501627142422695,0.3512372126012147,0.362498139544346,0.3817132382367684,0.3477388789015138,0.3064098909928638,0.3112008201133798,0.29332140233337856,0.352091824257912,0.35758716060478973,0.3479927321715355,0.4302651654039393,0.3827767885491325,0.3965363400328347,0.41038263458856905,0.3860768687961816,0.3541512809064145,0.3833434529990382,0.38191864470125647,0.41096929577649555,0.41696411375484305,0.40750139006130226,0.4283846055136797,0.441359200153413,0.49986593021100484,0.4968727934247951,0.6004376625397498,0.6576748225445448,0.7372977466770995,0.8468849810598255,0.8793895626862854,0.9340795748773436,0.873333603883146,0.8040521205215424,0.6497363127181791,0.24982734486868122,-0.18180558002184616,-0.47714323714106893,-0.5063564043599225,-0.3993799955927411,-0.24789354668207325,-0.013633920045421294,0.16593211040513667,0.3443754370467858,0.4453613902706953,0.5224583109163127,0.506969035533344,0.5594374336601717,0.5041808269123282,0.4864548431105004,0.49104203747507946,0.5332883523229381,0.5062739972779714,0.47882997690382306,0.48921894502345264,0.47636224835516827,0.5014420650053424,0.4957334589436416,0.47456499019882514,0.430338375604334,0.45479187212342537,0.41041793974724633,0.3660260452597907,0.36749923882733065,0.3690212823738195,0.3400570100123652,0.34940832370443003,0.3206877831156138,0.3226938428807103,0.3096015315554821,0.3043573578105467,0.32226482746618906,0.29456992128648724,0.2747802861941716,0.24762900267829657,0.25133796122520563,0.2247889012214624,0.2214841280039394,0.25671754875163144,0.24644305026812655,0.22887651325205874,0.25751549587215916,0.0,0.0,0.0,0.0,0.0,N
0.8040521205215424,0.6497363127181791,0.24982734486868122,-0.18180558002184616,-0.47714323714106893,-0.5063564043599225,-0.3993799955927411,-0.24789354668207325,-0.013633920045421294,0.16593211040513667,0.3443754370467858,0.4453613902706953,0.5224583109163127,0.506969035533344,0.5594374336601717,0.5041808269123282,0.4864548431105004,0.49104203747507946,0.5332883523229381,0.5062739972779714,0.47882997690382306,0.48921894502345264,0.47636224835516827,0.5014420650053424,0.4957334589436416,0.47456499019882514,0.430338375604334,0.45479187212342537,0.41041793974724633,0.3660260452597907,0.36749923882733065,0.3690212823738195,0.3400570100123652,0.34940832370443003,0.3206877831156138,0.3226938428807103,0.3096015315554821,0.3043573578105467,0.32226482746618906,0.29456992128648724,0.2747802861941716,0.24762900267829657,0.25133796122520563,0.2247889012214624,0.2214841280039394,0.25671754875163144,0.24644305026812655,0.22887651325205874,0.25751549587215916,0.25595167958912873,0.22419000671293252,0.22336577853653244,0.20763280760541544,0.17699251869222224,0.16965257261892683,0.15504665166084053,0.11789049951576036,0.1651623621310145,0.14403043135050544,0.13854717332922986,0.12578396627258678,0.10573586017813139,0.13188746002230808,0.11253520009144727,0.1317283166160897,0.09012056692659066,0.1252501498346278,0.12248680374078999,0.12767019249107855,0.07201754485736073,0.1389134610687951,0.09146216491972622,0.08248138261358556,0.06611055713344641,0.10346908685291002,0.09520548789663029,0.048948126841268,0.05638089750546228,0.07164126179907947,0.04122494488482394,0.049173500887229556,0.08018936485133893,0.06548454205596965,0.02796809494520727,-0.0018097866168986674,-0.016223417134796466,0.00763597050214302,-0.006660228325589938,0.009646985593455375,-0.019870397818392362,-0.04173570454826849,-0.040677647108887306,-0.016703882806379647,-0.02330838846912138,-0.007003186259180579,0.0245702772168846,0.002639581913815451,0.02654419147380297,0.03515300464496677,0.028466426195863998,0.05997486902874882,0.037980961702931595,-0.006949689613832887,0.05508724429616824,0.02541419463616389,0.026294420565484436,0.050086321847022885,-0.010190746183197173,0.0059332408728408476,0.022044175411136114,0.007576649217529278,0.016021147126401986,0.06266084187551788,0.017591184086092067,0.033641140254081506,0.011471579111268827,0.027496662565245578,0.012942853154894964,0.013658298575902707,0.022000897910967997,0.05325284647932017,0.03099877148360655,0.03165213071572935,0.009362949490943576,0.01762000781861733,-0.012351238589418423,0.0035036747321151016,0.026977108133373055,0.0045784947607881215,0.03564622972873943,0.03612376903494762,0.013651848558076865,0.014078297771317997,0.01447778430454972,0.037773634452208,0.015191644007715017,0.0002206973791102964,0.015783783645515675,0.0236722520411711,0.016243192252095712,0.008777940131071372,0.016557750314918712,-0.006267805190637315,-0.021493233899205377,-0.029119722096272675,0.00906086000326561,-0.0062867786100246495,0.008896941974306917,0.016408921427888957,0.04681910852170972,0.046641366712732196,0.008238054418422947,0.00038584527615858336,-0.007477541221723135,0.03814161575730711,0.02262574087335875,0.037676348830670066,0.04509010887931071,0.04487077610097807,0.021738970441476237,0.02154672623412377,0.006089965847968803,0.00593759750249751,-0.0018316849313536126,-0.017214852742612665,-0.02492579352489039,0.005606150224561699,0.01325654584678487,0.02095693592148691,0.005790067689600407,-0.0016712324939014104,-0.001419986595081042,0.021833851872434598,-0.0006755389756727483,-0.02309226755286541,0.03100544127429465,-0.006484998560916404,0.009633320397219716,0.01059718608440268,0.034623706067171175,0.00530811228601813,0.037281834629764844,0.031215540851789188,0.03296735430710871,0.004339239003618593,0.006471907067209096,0.06994022955687802,0.026641219262554184,0.052337007193364746,0.0782630361867611,0.043295942237833014,0.03914106687997639,0.05052316736943489,0.03924244072909468,0.028230470107399815,0.07098446181128813,0.0528894744565108,0.08093240217406632,0.10162932295141934,0.08442027464204634,0.113366609592924,0.10441725151082011,0.1339911089656159,0.11803601674477351,0.1253282365336975,0.148228891410965,0.17145702297129622,0.2026552961929772,0.21889969939848178,0.28896266574589496,0.2905791628279458,0.3307263587042652,0.3177021426291366,0.3279147567638859,0.33079048696168434,0.34924416340063996,0.3374158687223566,0.31821703293169024,0.32219885379682744,0.3417036637874184,0.3385063650081463,0.3584361543147934,0.3709059876045734,0.36825139312195093,0.41157913816552194,0.3403919583393606,0.4373949122269619,0.4198236980941271,0.440474753264534,0.4534645900338368,0.42819042800927165,0.4333861324298911,0.45372742431318963,0.46624640290332536,0.44797289880733493,0.45234895982698325,0.4869656648434953,0.5364874664652737,0.6619909308991397,0.6570990224209801,0.7662772310698135,0.8213491998851317,0.8757369309578261,0.8529535873073254,0.8064126855938665,0.7589576583390524,0.5729573543048966,0.1948328307345389,-0.24560280369146859,-0.45042540791789143,-0.4731944313861655,-0.4132752621800203,-0.24772505742941256,0.015872467514910126,0.22476948917184325,0.36376429186608306,0.47114421997359995,0.5011387957794865,0.49203118911715304,0.4591776995980081,0.4637808957335601,0.47534359203472687,0.48629064863597077,0.45083727474042107,0.4531009804234288,0.44729228924850584,0.44875109801565805,0.44224924769274676,0.4201977903348177,0.44377866033474694,0.38313532002959977,0.3987842968847658,0.42199655740880343,0.42988980324483284,0.3919381712105128,0.36931110678657714,0.35440300217883464,0.31668203850953675,0.3020291733126674,0.3028335968132975,0.28855862456260806,0.2821562418425161,0.27601117177111856,0.2548652718426285,0.2569492033941205,0.2440778050095661,0.22391335958296613,0.2346827489899936,0.22291427742743117,0.2115496241050601,0.22352935366127422,0.19773696971692906,0.16475231635820378,0.1933615231998007,0.16895497987065564,0.0,0.0,0.0,0.0,0.0,N
0.7589576583390524,0.5729573543048966,0.1948328307345389,-0.24560280369146859,-0.45042540791789143,-0.4731944313861655,-0.4132752621800203,-0.24772505742941256,0.015872467514910126,0.22476948917184325,0.36376429186608306,0.47114421997359995,0.5011387957794865,0.49203118911715304,0.4591776995980081,0.4637808957335601,0.47534359203472687,0.48629064863597077,0.45083727474042107,0.4531009804234288,0.44729228924850584,0.44875109801565805,0.44224924769274676,0.4201977903348177,0.44377866033474694,0.38313532002959977,0.3987842968847658,0.42199655740880343,0.42988980324483284,0.3919381712105128,0.36931110678657714,0.35440300217883464,0.31668203850953675,0.3020291733126674,0.3028335968132975,0.28855862456260806,0.2821562418425161,0.27601117177111856,0.2548652718426285,0.2569492033941205,0.2440778050095661,0.22391335958296613,0.2346827489899936,0.22291427742743117,0.2115496241050601,0.22352935366127422,0.19773696971692906,0.16475231635820378,0.1933615231998007,0.16895497987065564,0.1908828447869704,0.14453369599516527,0.159821712093016,0.17562397794295942,0.12317532445619735,0.1171046206482262,0.11156956796175863,0.1295003759004731,0.10212923800811585,0.09823388749469196,0.07196972428390087,0.0997549346127943,0.09753679317364088,0.0729595339961284,0.102439997010048,0.0789997411233362,0.10197909379615193,0.10260598095111272,0.10380527672745933,0.10557697770650486,0.09263765175783,0.1261178872928704,0.06846998362526933,0.12601107739957967,0.1841168595181129,0.18165257472651408,0.2103116440396179,0.23952330272659525,0.24635718934107115,0.2919377480895752,0.3227663687525745,0.35411607500586495,0.30956081858130674,0.3648407904386384,0.37475353034118297,0.3316409410164495,0.29661614500836436,0.30786624212812547,0.2889550264660904,0.2780665754215213,0.2675347925625013,0.29554092018028244,0.28564304025203835,0.2760195796904572,0.2207915339236073,0.24983197966316906,0.21792051532687604,0.19379622576744535,0.22327274170699407,0.1916921731903487,0.20599770433618353,0.20501955426347077,0.21164291537207863,0.23346904527875487,0.2704566885429961,0.2461488739523282,0.31333092329106516,0.27328000483613074,0.3322688268715725,0.3756276278890912,0.40330680767636795,0.4687450717816644,0.5871718350058325,0.7050410748402953,0.8757842007147418,1.0,0.9782828811458933,0.9022586236691045,0.7336433833464464,0.2966026174934745,-0.21791205234280367,-0.5043286649883528,-0.5168640222750932,-0.3319502922945602,-0.05653636042687076,0.17189460385492947,0.36105244404284786,0.43459014088645465,0.4154977828278663,0.45666801768395826,0.44354049628908954,0.4143816829910175,0.4150972792776918,0.4457421856726006,0.42231322394341764,0.3601439001016544,0.36626306670479486,0.31845413031059133,0.3313837662843676,0.28283195759789037,0.26453776589897654,0.30710719993426017,0.27303293922270905,0.2693326827128708,0.2807594867058065,0.29970651568183826,0.33384844000920294,0.3144438830968157,0.3026545314368554,0.2908674057180155,0.324958197255053,0.30561350101488344,0.3169132033976205,0.3130309304104087,0.28634599770774677,0.29800924937355117,0.24869954606558783,0.24541353914758363,0.2805248138454197,0.24706681536251487,0.2825981412437977,0.28014959873454054,0.23973094988675053,0.19191637537513845,0.17492031206233982,0.15054168880236973,0.14171019858907793,0.1484304171798468,0.1630647569383914,0.13976761386296885,0.12439002674014382,0.13221651614771418,0.15560661618532087,0.1639948353420009,0.09624908470301272,0.1128386458169945,0.10678139949355833,0.07043357530385365,0.08784832702412469,0.059683540038554445,0.07763303155654971,0.11112704288702721,0.10667106264572283,0.07954311739722704,0.09086942940686316,0.06422963605622885,0.06839056239058755,0.06513834450958125,0.031541686245388764,0.05164933353590723,0.04903932291444104,0.07719416499309088,0.021484118648506967,-0.018760207618603333,-0.012981406312195187,-0.007034836143243548,0.02199847099494553,0.01298214824908172,0.027042996256309498,0.010685928102916646,0.0326789991429994,0.03952693381822362,0.015941567388631356,0.03833199559168781,0.053202502131557035,0.060547362951145545,0.02215331376747741,0.02207006504355158,0.04500830352103145,0.006905512007186099,0.01473531933462568,-0.015565051258458506,-0.030512263042333496,0.01573704454992889,0.023841488739433144,0.009081430702176341,0.01730293177740917,0.025578914313159475,0.04918948835616799,0.04228299731720893,0.027780632243683864,-0.009603901445364013,0.006540420878039361,0.05328662325773892,0.0160102389233827,0.04753745416510508,0.03324345572824313,0.011332289524350139,0.04293219977572398,0.028700822347053057,0.01448322045283971,0.015558494432777025,0.024281307682432675,0.01772333611955347,0.057012137524765756,-0.02596846421821571,-0.03254509783799462,-0.008568480024653383,0.00011376431602019876,0.01642791786790998,0.017451533690032144,0.04139372144320821,0.0424075002611733,0.07398459526382208,0.06735324205075804,0.05308021925337501,0.008241784838136002,0.05510157338122049,0.056113713598955554,0.07240988460933463,0.081065481692365,0.059155538078630915,0.037244865570028526,4.925113471753059e-05,0.016340298785947522,0.017343425122573957,0.010698513468701874,-0.01887900409671258,0.02794807365283479,0.07476528006772716,0.03751655391530492,0.030823286046041284,0.008836128031478232,0.025044490281494202,0.010674461542537775,0.04213964734941874,0.0277415933258034,0.05917655062130579,0.037104260610714465,0.022654720482226096,0.01582610316133946,0.031899377985299626,0.017382341576766446,-0.004802820511746569,-0.004092554796759796,0.019511329102457866,0.012517226460622737,-0.017434926262799515,0.02135074807494227,-0.016313317188310736,0.022401943395842082,0.030517680390006106,-0.02253051922618682,0.05429496937604951,0.062319714448435655,0.0473955677334247,0.08593988874559477,0.06333342895482641,0.055992881198415424,0.056278618377094615,0.025984914056493346,0.03388612820659006,0.06470048760337484,0.034372956008127516,0.026960180218525667,0.0,0.0,0.0,0.0,0.0,N
0.9022586236691045,0.7336433833464464,0.2966026174934745,-0.21791205234280367,-0.5043286649883528,-0.5168640222750932,-0.3319502922945602,-0.05653636042687076,0.17189460385492947,0.36105244404284786,0.43459014088645465,0.4154977828278663,0.45666801768395826,0.44354049628908954,0.4143816829910175,0.4150972792776918,0.4457421856726006,0.42231322394341764,0.3601439001016544,0.36626306670479486,0.31845413031059133,0.3313837662843676,0.28283195759789037,0.26453776589897654,0.30710719993426017,0.27303293922270905,0.2693326827128708,0.2807594867058065,0.29970651568183826,0.33384844000920294,0.3144438830968157,0.3026545314368554,0.2908674057180155,0.324958197255053,0.30561350101488344,0.3169132033976205,0.3130309304104087,0.28634599770774677,0.29800924937355117,0.24869954606558783,0.24541353914758363,0.2805248138454197,0.24706681536251487,0.2825981412437977,0.28014959873454054,0.23973094988675053,0.19191637537513845,0.17492031206233982,0.15054168880236973,0.14171019858907793,0.1484304171798468,0.1630647569383914,0.13976761386296885,0.12439002674014382,0.13221651614771418,0.15560661618532087,0.1639948353420009,0.09624908470301272,0.1128386458169945,0.10678139949355833,0.07043357530385365,0.08784832702412469,0.059683540038554445,0.07763303155654971,0.11112704288702721,0.10667106264572283,0.07954311739722704,0.09086942940686316,0.06422963605622885,0.06839056239058755,0.06513834450958125,0.031541686245388764,0.05164933353590723,0.04903932291444104,0.07719416499309088,0.021484118648506967,-0.018760207618603333,-0.012981406312195187,-0.007034836143243548,0.02199847099494553,0.01298214824908172,0.027042996256309498,0.010685928102916646,0.0326789991429994,0.03952693381822362,0.015941567388631356,0.03833199559168781,0.053202502131557035,0.060547362951145545,0.02215331376747741,0.02207006504355158,0.04500830352103145,0.006905512007186099,0.01473531933462568,-0.015565051258458506,-0.030512263042333496,0.01573704454992889,0.023841488739433144,0.009081430702176341,0.01730293177740917,0.025578914313159475,0.04918948835616799,0.04228299731720893,0.027780632243683864,-0.009603901445364013,0.006540420878039361,0.05328662325773892,0.0160102389233827,0.04753745416510508,0.03324345572824313,0.011332289524350139,0.04293219977572398,0.028700822347053057,0.01448322045283971,0.015558494432777025,0.024281307682432675,0.01772333611955347,0.057012137524765756,-0.02596846421821571,-0.03254509783799462,-0.008568480024653383,0.00011376431602019876,0.01642791786790998,0.017451533690032144,0.04139372144320821,0.0424075002611733,0.07398459526382208,0.06735324205075804,0.05308021925337501,0.008241784838136002,0.05510157338122049,0.056113713598955554,0.07240988460933463,0.081065481692365,0.059155538078630915,0.037244865570028526,4.925113471753059e-05,0.016340298785947522,0.017343425122573957,0.010698513468701874,-0.01887900409671258,0.02794807365283479,0.07476528006772716,0.03751655391530492,0.030823286046041284,0.008836128031478232,0.025044490281494202,0.010674461542537775,0.04213964734941874,0.0277415933258034,0.05917655062130579,0.037104260610714465,0.022654720482226096,0.01582610316133946,0.031899377985299626,0.017382341576766446,-0.004802820511746569,-0.004092554796759796,0.019511329102457866,0.012517226460622737,-0.017434926262799515,0.02135074807494227,-0.016313317188310736,0.022401943395842082,0.030517680390006106,-0.02253051922618682,0.05429496937604951,0.062319714448435655,0.0473955677334247,0.08593988874559477,0.06333342895482641,0.055992881198415424,0.056278618377094615,0.025984914056493346,0.03388612820659006,0.06470048760337484,0.034372956008127516,0.026960180218525667,0.011896812527351615,0.035031918853229656,0.05051704751862925,0.0048621168437509455,-0.010235565425629374,0.012865280876261865,0.05888254376589091,0.0743267727199476,0.0362740421731004,0.028780422723595083,0.028921435802025545,0.006131004094197576,0.013898908948155462,-0.016548376425866398,0.006486103383982619,-0.016335495181545315,-0.008597586730704388,0.014419507888201032,0.022153374912257228,0.0069658930090340365,-0.015856805392750403,0.022461561204877627,0.0073038644722196126,-0.0001936748467189994,-2.651126865006284e-05,-0.015114445439197956,0.030961637469350104,0.015944462247490326,0.03917878931508785,0.039538747673534845,0.032312818857020566,-0.0054179875073759294,0.018048999283445288,0.011022048417213071,0.004072616319449354,0.02777210430543386,-0.0019299293127505012,-0.0009720585447067115,0.007726958145806133,0.03181427401128825,0.010163910085379852,0.03447882518383801,0.005425556236010417,0.04527265821467488,-0.014086625056797544,0.003106191802018891,0.020442922592676563,0.03028845916983793,0.009724681488203537,-0.010676498041101462,0.030222603740337865,0.03309013256208908,0.02849881536616505,0.0011724845878695294,0.012249378595172977,0.015887362096182123,0.01973442245083091,0.008514103054219763,0.028081487370731257,0.05551852271016392,0.0449826514468561,0.04996995131729925,0.03992027187530932,-0.0004438774897057468,0.04350454533576658,0.04950752451069543,0.06341883321015909,0.09288472285824136,0.08441948904346513,0.08387587588550571,0.07597456666519814,0.10656746402539291,0.11452572293866631,0.16098324302306383,0.15424425441452896,0.17072418887162613,0.1951402488195549,0.24277460243326812,0.2830597131304281,0.2701439207703363,0.3110032467672152,0.32921744559149896,0.3553450844948287,0.3893772652709197,0.40073749361736744,0.35884732834544053,0.3783139665897523,0.40563080470943824,0.40257225717914946,0.3920423490609082,0.42750891192614826,0.40196726543839606,0.4223713273115004,0.4275609988841467,0.4175057083797788,0.43038002043021745,0.39737604434129986,0.4254371989002719,0.4457514546326473,0.44299483877666584,0.44004842402666533,0.4674325229454642,0.4868921542696915,0.4983772737867328,0.5706084964072713,0.6423992128301576,0.7748232381945488,0.8531977142620277,0.89274064100345,0.9010242975584246,0.8932579542060298,0.8311561922051355,0.6764291265248406,0.291443803398516,-0.15577791937912636,-0.405518183120299,-0.503702523941848,0.0,0.0,0.0,0.0,0.0,N
0.8311561922051355,0.6764291265248406,0.291443803398516,-0.15577791937912636,-0.405518183120299,-0.503702523941848,-0.389237585935781,-0.23786726157723667,-0.05718645923185298,0.1681568746526045,0.3159740391738597,0.40926313465607544,0.43281340733984697,0.4631095152621888,0.43908776522493964,0.42194542596515205,0.4346702965676799,0.45439933733420135,0.4124186061588646,0.39284098579261834,0.45685293236535746,0.44403674736449045,0.4614233675063669,0.4555709576274378,0.4341670141887113,0.4048967557964068,0.4289334141203935,0.44518491886397143,0.3849156002206957,0.37042393352638525,0.37117737268537104,0.3337171549542929,0.3039215746576933,0.2971014381636423,0.29035875801896477,0.2837184257913176,0.26192097156921923,0.26319569074777877,0.2646389303758528,0.26627008605186736,0.24518286565157316,0.25488419412703434,0.2571823124038941,0.2673743708855455,0.24726605016509878,0.26564206176125094,0.2078909646382634,0.18864363483031948,0.1773422669059662,0.16635247674359915,0.14803899351027935,0.1376900791387071,0.1200274359959172,0.1409037167399437,0.15447351577954807,0.14545654237560557,0.15206191732013297,0.1360834856956914,0.09752160648862687,0.10514905185192566,0.10547482884775197,0.10613905753440549,0.1377056951240645,0.13904071002152715,0.14070684021520835,0.1044930349059036,0.09916790755764825,0.10944354589988531,0.06654135792379935,0.05451130125633243,0.0733469975482188,0.06955161199496585,0.06604249148383676,0.07809518030136031,0.0598532537802128,0.057157354889261346,0.069999098275058,0.09072835795470591,0.05820447405109634,0.08703979442684111,0.047319820956602074,0.046014720438974206,0.05254823590530914,0.0669096996840536,0.0508809071491028,0.042657867552597144,0.019304697000746253,-0.011548882318880562,0.034141303684544655,0.026459790650788115,0.03416876942263085,0.011408475903785178,0.0040164332662084735,-0.026225895629939266,-0.002915245366548979,-0.033040775289611225,-0.04019645157262193,-0.001463285414145211,0.014384072538062192,-0.0002972506102473816,0.030905803595733583,0.008652860468110498,0.001715397328806481,-0.012832609876650091,0.01849735464702606,0.019290293467594463,0.004828574778133714,-0.024888439365093714,0.006553137378044438,-0.00018390563209024597,0.06188246895138462,0.07813212550883017,0.05620789649105239,0.04960095274427586,0.0812363647045453,0.059417132163026375,0.07584076495324557,0.03880955959888407,0.024737439958634,0.04126504225932036,0.034901240299173304,0.036210704820629706,0.0222677481612044,0.015995230660934095,0.047957356163789,0.04173788074014501,0.05082505299906117,0.05993381927612373,0.04613741693897969,0.03235751274222568,0.041515542753373456,0.020118232825627774,0.006369559346571737,-0.007375330943421884,0.009445951061594664,0.018623401539939674,0.012512788810873313,-0.008888757080677488,-0.022659804125706992,0.0017633789593876948,-0.0043922368151653604,-0.0029193214585918233,0.029106962597031306,0.007631362457724723,0.03199339591888049,0.0028547167095453324,0.019554644501319485,-0.001962431531964912,-0.0005645779788854998,0.008465776576232072,-0.013078107344052835,0.0112188110940518,0.03550953766174575,-0.001335887649175271,-0.007618505541116794,0.024304766923424537,0.01802173317056058,0.027024807428032704,0.013108855702823894,0.0679733412033441,0.076998380841517,0.06310993883069861,0.033950684706991995,0.012445882142154556,0.044444989582543164,0.0764584902903373,0.04735519046009389,0.025908246319382384,0.04268330310644777,0.028906963563536683,0.04571034934184434,0.0013953407042610303,0.03350723464216102,0.04270622104730987,0.013708325544717567,0.03820972802572974,0.03979453330122853,0.07195138745892005,0.0811883698164029,0.029296109619686924,0.007969562498396952,-0.02864264956652895,-0.011770121801849833,0.012738448977268784,0.03724275833060416,0.01589516391231706,0.04039402433091497,0.03432561218024969,0.028256365881492336,0.04511109738507866,0.01611701924752271,0.0,0.0,0.0,0.0,0.0,0.0,0.0,0.0,0.0,0.0,0.0,0.0,0.0,0.0,0.0,0.0,0.0,0.0,0.0,0.0,0.0,0.0,0.0,0.0,0.0,0.0,0.0,0.0,0.0,0.0,0.0,0.0,0.0,0.0,0.0,0.0,0.0,0.0,0.0,0.0,0.0,0.0,0.0,0.0,0.0,0.0,0.0,0.0,0.0,0.0,0.0,0.0,0.0,0.0,0.0,0.0,0.0,0.0,0.0,0.0,0.0,0.0,0.0,0.0,0.0,0.0,0.0,0.0,0.0,0.0,0.0,0.0,0.0,0.0,0.0,0.0,0.0,0.0,0.0,0.0,0.0,0.0,0.0,0.0,0.0,0.0,0.0,0.0,0.0,0.0,0.0,0.0,0.0,0.0,0.0,0.0,0.0,0.0,0.0,0.0,0.0,0.0,0.0,0.0,0.0,0.0,0.0,0.0,0.0,N
0.2920702182694642,0.3184235808344315,0.33865675437973364,0.37045170966503477,0.3960536087178298,0.44495258190492826,0.4993899587272326,0.600663369670065,0.6483274864753634,0.671862734212342,0.6298760654159862,0.5931822722275373,0.5262876510627156,0.305107743804886,-0.023174814433586603,-0.24601504198653418,-0.3516647431213378,-0.34016405582585474,-0.2469548253857438,-0.0956348763518935,0.06659801713428752,0.2220844291183091,0.31772948520719757,0.35358987375843,0.359249957355722,0.3820098883576189,0.37467438167715245,0.3668223256494402,0.34668976721456135,0.3438518872240975,0.34654116505766336,0.34889421341017046,0.3568576174201711,0.3232235445825539,0.3484286924724444,0.3498267127305234,0.32745145090027034,0.32267597141473164,0.31781317570236955,0.30698605696125497,0.2311633461509834,0.2675463422901834,0.29213670726937196,0.28724011159254775,0.25287832280437156,0.2304126402720768,0.21395627837341935,0.22124470972188476,0.2109538114022375,0.2126285851724886,0.2085661574237283,0.1869684439788537,0.15375387555417366,0.19161603149530512,0.18244873483756707,0.19713213292757525,0.19433426194834538,0.18587484559482478,0.17766678331591812,0.15199863488737003,0.15021659749833816,0.17232514032167476,0.14745775055044924,0.1287699578214214,0.11035802873526857,0.11584684891654383,0.12161393160179275,0.12765962109224804,0.07492512787215504,0.10515001166857368,0.11793350201887372,0.1250855016302925,0.10298020809415959,0.0811438667468928,0.11272561832280101,0.09141617831906952,0.08217542327204765,0.06728083659093151,0.08216216398039744,0.07366102611994452,0.06539471634978018,0.01601578138291889,0.03182275532711702,0.05965607269343425,0.04635600887915353,0.05687959249585325,0.0557841266046074,0.03715589274219198,0.05413941927207982,0.0535737024330866,0.017732583215329317,0.029289128510872987,0.02327000218054285,0.029195362835248824,0.02933843213802644,0.017783990924562877,0.02405178878678205,0.006791255499858211,0.03095704692521465,0.0020457654502075563,-0.003176416655786002,-0.02015453627214218,0.016066165251805115,0.010984341729878378,-0.017690234435000358,-0.022718582887952997,-0.004106863299693612,-0.020917602822891315,0.003621670760655949,0.01635666019729372,0.011379870722877248,0.018218841238358565,0.030965938296938177,0.020090027058678697,0.038741753900212436,0.05148387612704222,0.040596515060100126,0.03560635519880115,0.02469891003685442,-0.021658042688005988,0.008743613060994736,-0.014025904729364274,0.03405523892314762,0.005340993023994749,0.023854354740162443,0.018725159567483517,0.007670912351011363,0.0025031717352686144,0.020939310584948908,0.009826458352091902,0.004599428413178517,0.022975427288198947,-0.0059161501209928505,0.030135406027041962,0.018918969768151744,0.013587136553677255,0.014139734067513848,0.014670669483141078,0.021085484424834117,0.039289647163520666,0.06337681539324033,0.0638170400608651,0.03470346552812177,0.011469885094667403,0.02364406596809849,0.01807178196032467,0.01837477213445414,0.018645422321020386,-0.010647383822235528,-0.010447067243690112,-0.004377973436517832,-0.004251750273039149,0.007649633155566954,0.013609496225999749,0.013628677790991618,0.019519653805259645,0.049000684654865026,0.060731407380270094,0.019277066593246805,0.036848917616854,0.02485913184789711,0.006930895358519553,0.0007814173504723771,-0.005401390502634897,0.047440610462515874,0.07071975767301679,0.03490667710023714,0.03449454518614981,0.010424196896285471,0.021753346218107688,-0.008294954200762155,-0.02066315126057607,-0.003539724438800474,0.01945369433807017,-0.010739306031034367,-0.029152329846264185,-0.006253076622094158,-0.012905970172123672,0.004048063801718885,0.032804947342609025,0.02021961423027269,0.013546327990159202,0.006886577877050117,0.006153490563552939,-0.018174957159011896,-0.001127178071049672,0.010058942748038436,0.009486595323898757,0.026694034835861396,-0.015085877314913345,-0.009538983380717885,0.0020039931761764796,0.0077424979705845755,0.0017818191720880589,0.025474026835642247,0.007959983187180457,0.026026737450825555,0.056061805280324215,0.04492330932207107,0.06939784855755916,0.05862548298341115,0.07167468225113173,0.07311998168908346,0.06887652627534817,0.08257665311229787,0.08469968174707684,0.06934792914249532,0.07787010936081842,0.07483850625313712,0.07797768749259222,0.0813884362608613,0.07917114585118444,0.09495506548828518,0.11693393309275998,0.11558345408567902,0.1204372749657765,0.1255933488661184,0.1487724370323276,0.16044785214541893,0.18424483619681858,0.19654100834082855,0.2091481819559674,0.23978304029044503,0.22938513738003308,0.24291573241469355,0.23902959131350834,0.24725049631369253,0.24394836133190795,0.23502112690599947,0.22636551383200548,0.22387706780032976,0.1862033820759434,0.23144895005626792,0.24738908370722948,0.2812559572677934,0.27988101426104617,0.2845879331260151,0.2835463197240595,0.28264191470107175,0.3291000089944761,0.3638391339869306,0.3454937332852463,0.3567193353699569,0.3325234268846055,0.3260287623707171,0.32539205543062016,0.3246742420975638,0.3297463365939857,0.32876017204691443,0.33939519572535953,0.3911409162469363,0.4367090617817531,0.48196207796793333,0.5977246052203539,0.7367018226488421,0.7511964269697395,0.7179298292301254,0.6604670113223484,0.6082752180643437,0.5494774239158597,0.3009238372932994,-0.031151304612140197,-0.29326844863058416,-0.3969094605402822,-0.3303044290883921,-0.24110375614111015,-0.08793918225241402,0.07608681568482478,0.2155976727242477,0.283404738335952,0.32090607262266485,0.35178076093922317,0.3465536109375037,0.37024131256130566,0.38155347664118017,0.38053883082424633,0.3436207846913083,0.36533789662367444,0.35714557708200845,0.34861446133214924,0.3515958411878516,0.3129748870685005,0.3036579154836673,0.28824433172329433,0.28448469596034326,0.2865047168471851,0.3061462383369094,0.2961911461116924,0.30391343631824524,0.2525627200781566,0.25437437133728813,0.26212448171011116,0.22268201836450724,0.21284339449007428,0.0,0.0,0.0,0.0,0.0,0.0,N
0.5494774239158597,0.3009238372932994,-0.031151304612140197,-0.29326844863058416,-0.3969094605402822,-0.3303044290883921,-0.24110375614111015,-0.08793918225241402,0.07608681568482478,0.2155976727242477,0.283404738335952,0.32090607262266485,0.35178076093922317,0.3465536109375037,0.37024131256130566,0.38155347664118017,0.38053883082424633,0.3436207846913083,0.36533789662367444,0.35714557708200845,0.34861446133214924,0.3515958411878516,0.3129748870685005,0.3036579154836673,0.28824433172329433,0.28448469596034326,0.2865047168471851,0.3061462383369094,0.2961911461116924,0.30391343631824524,0.2525627200781566,0.25437437133728813,0.26212448171011116,0.22268201836450724,0.21284339449007428,0.24443953154425582,0.24071249814652873,0.2312084870639053,0.21594322462724247,0.24217810172282514,0.23315052545142348,0.2124961857937588,0.20384960697792506,0.19540913530268916,0.20490136069244788,0.1909933702785918,0.18912731015723638,0.1815916982850491,0.16248581213161264,0.12590802120801817,0.1250144083436252,0.13618434335615912,0.10626730811763829,0.11204086022248934,0.10035326928447348,0.07711077046038006,0.03640739199118597,0.043207007460811166,0.05616796207102233,0.04576009013801483,0.029699765736037022,0.07294995473675016,0.08692130756993016,0.036176783088175554,0.08017204050373442,0.08306992940829168,0.09211432835005129,0.1073018799297063,0.12862876617630808,0.13246722231057645,0.1365298084325311,0.15852842230607983,0.16302160587349185,0.16181392903278838,0.16670914657396116,0.18360435164262373,0.17114898324079314,0.1824852035444553,0.18216653036368566,0.18199238968040551,0.1406086234712878,0.1406830678204489,0.13495409912476283,0.11750035838889515,0.11783492729541344,0.10641177427776381,0.11864865691681822,0.10728086468831582,0.10181917729623947,0.06680945971818611,0.06719656160632624,0.02618453677194097,0.02643512256129295,0.014775316179103128,-0.00881534417292389,-0.02073398387073273,-0.05052956400516807,-0.039161287317612606,-0.033888902586061496,-0.03472161766835091,-0.04166542097657142,-0.03700544464493604,-0.008928715167397768,-0.016488974417463834,-0.02424547484497316,-0.026285165320859703,-0.010786838821214314,-0.01907946440401856,0.013814359967626665,0.022945092235614306,0.04376261504049761,0.05856402312477203,0.03783448726839193,0.06427008435112193,0.04929697741303463,0.04017561736263884,0.054636945749891336,0.0867882929477304,0.06577233782230298,0.07428349224134798,0.0887104928657221,0.10315926266301961,0.08811187074943877,0.0731083961921938,0.09950018264861117,0.04918018871624665,0.06980424135472549,0.0846055237828772,0.07587539594565401,0.06133991020878686,0.07053644471049285,0.05622598741790963,0.06566281481167836,0.07523069134570777,0.07903061088403122,0.10069245401089022,0.09888132783540932,0.09132036175177248,0.07801463302332565,0.07078046746107187,0.08733965337758208,0.09226095201049324,0.0737360981981073,0.08492074379602844,0.09628823593310865,0.09012320228394669,0.09005075710509232,0.0960721537381521,0.08456478497201508,0.07324653125793232,0.06211729249903117,0.06298830751524843,0.046329536516927755,0.08301011854333527,0.0785350888935319,0.062431971885377816,0.0642278991612886,0.08982627990488858,0.07425997126351082,0.07658428532248071,0.0849839319704719,0.08173738559999835,0.07865195855757899,0.0639111442038728,0.07885071581234253,0.05850078075553679,0.05010225107235097,0.05364892569991314,0.04551094276516414,0.019775729874615084,0.035494865402125673,0.021791072198781188,0.025903947135998782,0.006485189508840231,-0.006943400010572974,-0.014389316049731789,-0.009953541038393049,-0.005453248145487858,-0.006798812378815692,-0.013994238112869222,-0.00932532611076621,-0.01641751570613441,-0.0234602448782232,-0.018641391942289823,-0.025581721938725883,-0.02065340837782468,-0.003849604805227237,0.001215087008289667,0.024079104177002358,0.03522235199242246,0.03465387822420568,0.040100112254446305,0.022040489597984124,0.06316544418902352,0.0748955750920652,0.08086236446431501,0.08697936226090444,0.09915971412514267,0.11150442565406152,0.11220815407138922,0.10127670422819167,0.12005628795789486,0.150834084963074,0.1581791169406656,0.18343573488870915,0.2088889731623299,0.24635221181164318,0.27220267099350093,0.2569104865289627,0.26543807442146017,0.28597048265046376,0.2889738742808729,0.28034809797357135,0.27189741009480417,0.2813305178450596,0.24367283289151395,0.22387711689287912,0.26917735541950316,0.31459521573622407,0.2774334614969033,0.29941568121917606,0.26240656296512005,0.27269169555825895,0.3066265991451767,0.2992244623908483,0.3036139923219119,0.30795802152063073,0.27679445420037474,0.3045884114285308,0.28500464275929405,0.294787804621524,0.3043757820756726,0.33735765941576573,0.37007417845905477,0.3552409839355626,0.41093574229694174,0.4603412088237382,0.5270375778882463,0.5991676267083181,0.6412480870149847,0.6591336627242732,0.6409582937875771,0.651628707959504,0.5552494406622722,0.23363932689875905,-0.12428124068924871,-0.34140474280606437,-0.364634757507528,-0.318018006640901,-0.16610855223369195,-0.0210765589711017,0.14075819799298916,0.27811356745573973,0.2965540212507226,0.34968844878245653,0.33126674339710416,0.35945944783843675,0.35163646097558743,0.3610004935993082,0.35807056227178463,0.3251755837021998,0.3214187677184539,0.2818787942011361,0.29518490288005356,0.2727893468490541,0.2737892176457951,0.26278660166547196,0.28115829982871965,0.3112212733758348,0.2644208468588197,0.2707173339884292,0.27108244397972897,0.25963920563371135,0.27775611293701236,0.28411842563397827,0.2551275724125893,0.2262420871160269,0.23882508052434312,0.2456507435861599,0.1994920731246969,0.20667300465251215,0.20224675155454228,0.227570840195894,0.21179058678798995,0.19626136860797772,0.192808241106406,0.17782016297858258,0.17493194947647336,0.1959658216017633,0.21730801024799237,0.20353206133012663,0.2255157805682739,0.1887720839297126,0.18780004219427265,0.0,0.0,0.0,0.0,0.0,0.0,N
0.651628707959504,0.5552494406622722,0.23363932689875905,-0.12428124068924871,-0.34140474280606437,-0.364634757507528,-0.318018006640901,-0.16610855223369195,-0.0210765589711017,0.14075819799298916,0.27811356745573973,0.2965540212507226,0.34968844878245653,0.33126674339710416,0.35945944783843675,0.35163646097558743,0.3610004935993082,0.35807056227178463,0.3251755837021998,0.3214187677184539,0.2818787942011361,0.29518490288005356,0.2727893468490541,0.2737892176457951,0.26278660166547196,0.28115829982871965,0.3112212733758348,0.2644208468588197,0.2707173339884292,0.27108244397972897,0.25963920563371135,0.27775611293701236,0.28411842563397827,0.2551275724125893,0.2262420871160269,0.23882508052434312,0.2456507435861599,0.1994920731246969,0.20667300465251215,0.20224675155454228,0.227570840195894,0.21179058678798995,0.19626136860797772,0.192808241106406,0.17782016297858258,0.17493194947647336,0.1959658216017633,0.21730801024799237,0.20353206133012663,0.2255157805682739,0.1887720839297126,0.18780004219427265,0.18716902563723958,0.15735331810842063,0.15741405623348906,0.15191794867580033,0.14677188505155897,0.13607029023776057,0.14343611812563983,0.13933896908238377,0.11196528401878758,0.13218274319706222,0.09958874238574292,0.10867315140583629,0.123996585490512,0.11011911650718283,0.09656457466239625,0.11876209214185027,0.09402326681371043,0.0695878593798065,0.0867893078509011,0.09837291367746573,0.06889524951289838,0.07512359506595472,0.08161368664921678,0.08245014783095587,0.08352889926047584,0.08483959676160838,0.0922773310884219,0.07039580077387018,0.08414773673471171,0.08627431898877502,0.08266897998780148,0.08513057338667036,0.05230486632276443,0.05504839920052555,0.03428869425593903,0.043164197402920226,0.02850783676672023,0.037551818422063094,0.028940417283494817,0.032187951403264595,0.02956177353367132,-0.008482629662209185,0.006627132164490038,-0.0018996168800689054,-0.004548239480191755,-0.007239033304978281,-0.033609421664976595,-0.006896646392110537,-0.03341618623996734,-0.006872172090340652,-0.009952842678785854,-0.048569700412980976,0.019013012187774007,-0.002097930034059525,0.012120191734497555,0.014420570942522252,-0.0011026915387364778,0.012797106231712166,-0.014750280544103848,0.004842858868101988,-0.0051982356132548755,-0.009437149364127104,0.003939615772984123,0.03493474933530149,0.012680690265173206,0.01395601719952464,0.04466901447503429,0.028045960602033494,0.005429962240439946,0.00044642809616950293,-0.016431933447269995,0.019761224957215946,0.002724087023143983,0.0033303148998944073,0.003865768495418134,0.03976896423868805,0.016549642585709453,0.028704627539121005,0.01717849341029143,0.02922101733264515,-0.006035160947519912,0.029529734602462054,0.01780195036622881,0.03556072004493236,0.02965643168584763,0.023715379004177854,0.02364614970876885,0.03535721293157132,0.029321804125389674,0.011448097405361212,0.01717338315126754,-0.006652894118591403,0.03446493861549209,0.01060078855831494,-0.0014667692943657216,0.004170556152468828,0.03932704791165338,0.0390408846717135,0.02103198453219642,0.020737628112424838,0.0027247599750031357,0.04967727248905439,0.013950793985316227,0.037287480570078455,0.02519531560634255,0.0072050000890989665,0.006941256462027135,0.024405360844873988,0.02416343920270647,0.00031075834745177813,0.011906842595903596,0.005800015791137573,-0.00029122686118841627,-0.01817768202916,-0.03014085584064633,-0.0007429698195246451,-0.006754581028293466,-0.0068291244526594895,0.004945491158470968,0.010858595524082814,-0.0008946537895620794,0.022845224812883,0.017120746424215714,0.023279658256302887,0.011799391020483604,0.018121637351867965,0.02453535771601441,0.013329421970294214,0.008133545318420822,0.0030481134433326157,0.009891029084440426,0.022762622016388397,0.00032805711027761303,0.013463584344024905,0.020834253135335386,0.03425771875658889,0.024210564285769037,0.02022772725959502,0.028220613863032717,0.024571266268746596,0.015190848419996671,0.023707959127910044,0.044221858375707274,0.04130242473314833,0.038577841408030805,0.05377023252129546,0.027825445833147635,0.02571196432202227,0.04743375351706207,0.06346538751392371,0.05018705581422891,0.048943008914724355,0.07154798350321301,0.058946240655657345,0.0820104403522275,0.09940174892196409,0.11702774323956966,0.140795503171002,0.15889396571930403,0.18313477420893448,0.17808195689665954,0.2027922675611015,0.23954548609956972,0.2410911155743707,0.24285939736664164,0.22712669422934512,0.241132532940519,0.24943336859846885,0.22839615578830097,0.2547860956987389,0.22228581772100545,0.2253756648567651,0.25813537490813343,0.2673967382010381,0.2531429275571289,0.26260259941222797,0.24850950329179242,0.2639955694787424,0.2736036970874872,0.2773105807029864,0.2632798417422482,0.2551088305177749,0.24686431806919515,0.2562352101909167,0.2654740629073589,0.2745497087910894,0.2952413581938264,0.29208002812088113,0.32999475314123344,0.3794194662279947,0.41078645038051054,0.46539632239759077,0.5136774142489976,0.5969259618196768,0.6265068759633776,0.620087429249233,0.624861024585661,0.5876184706734727,0.5201118302304191,0.25100879806517573,-0.06620363996242032,-0.3016631633354541,-0.32550116219121517,-0.31492470255258864,-0.22268752999219935,-0.09600711343165645,0.06516705412064366,0.19002436943528583,0.2845299869191118,0.3369305531329174,0.3531888497117626,0.3628893839368736,0.3365563713978982,0.33330000185855924,0.33545269882919404,0.35487448219379464,0.35027102140026223,0.36893400014508126,0.3400362992749693,0.3344894167602339,0.334615361768692,0.32273447102107605,0.30478881846024164,0.3162481272303535,0.2921811027610237,0.2798660681611547,0.26161550731207234,0.278799030512091,0.2546678884873294,0.24830654718761158,0.2361162631770575,0.21221460921125002,0.21205894548758672,0.22976460310728838,0.20038732712951843,0.20072217558401573,0.20125785821868994,0.1665762285958397,0.1734693329083987,0.14517621752510063,0.15258137583633852,0.1543573764314914,0.0,0.0,0.0,0.0,0.0,0.0,N
