'Time','ECG1'
'[09:20:00.000]',0.525
'[09:20:00.008]',0.695
'[09:20:00.016]',0.475
'[09:20:00.023]',0.015
'[09:20:00.031]',-0.155
'[09:20:00.039]',-0.115
'[09:20:00.047]',-0.065
'[09:20:00.055]',-0.035
'[09:20:00.063]',-0.015
'[09:20:00.070]',-0.015
'[09:20:00.078]',-0.015
'[09:20:00.086]',-0.015
'[09:20:00.094]',-0.015
'[09:20:00.102]',-0.015
'[09:20:00.109]',-0.015
'[09:20:00.117]',-0.015
'[09:20:00.125]',-0.015
'[09:20:00.133]',-0.005
'[09:20:00.141]',-0.015
'[09:20:00.148]',-0.015
'[09:20:00.156]',-0.025
'[09:20:00.164]',-0.025
'[09:20:00.172]',-0.025
'[09:20:00.180]',-0.035
'[09:20:00.188]',-0.025
'[09:20:00.195]',-0.035
'[09:20:00.203]',-0.035
'[09:20:00.211]',-0.035
'[09:20:00.219]',-0.045
'[09:20:00.227]',-0.055
'[09:20:00.234]',-0.065
'[09:20:00.242]',-0.065
'[09:20:00.250]',-0.075
'[09:20:00.258]',-0.085
'[09:20:00.266]',-0.095
'[09:20:00.273]',-0.085
'[09:20:00.281]',-0.085
'[09:20:00.289]',-0.075
'[09:20:00.297]',-0.085
'[09:20:00.305]',-0.065
'[09:20:00.313]',-0.065
'[09:20:00.320]',-0.075
'[09:20:00.328]',-0.085
'[09:20:00.336]',-0.095
'[09:20:00.344]',-0.115
'[09:20:00.352]',-0.125
'[09:20:00.359]',-0.135
'[09:20:00.367]',-0.125
'[09:20:00.375]',-0.105
'[09:20:00.383]',-0.115
'[09:20:00.391]',-0.115
'[09:20:00.398]',-0.115
'[09:20:00.406]',-0.115
'[09:20:00.414]',-0.115
'[09:20:00.422]',-0.105
'[09:20:00.430]',-0.095
'[09:20:00.438]',-0.085
'[09:20:00.445]',-0.095
'[09:20:00.453]',-0.095
'[09:20:00.461]',-0.085
'[09:20:00.469]',-0.095
'[09:20:00.477]',-0.085
'[09:20:00.484]',-0.095
'[09:20:00.492]',-0.105
'[09:20:00.500]',-0.105
'[09:20:00.508]',-0.115
'[09:20:00.516]',-0.115
'[09:20:00.523]',-0.125
'[09:20:00.531]',-0.155
'[09:20:00.539]',-0.145
'[09:20:00.547]',-0.145
'[09:20:00.555]',-0.145
'[09:20:00.563]',-0.135
'[09:20:00.570]',-0.145
'[09:20:00.578]',-0.105
'[09:20:00.586]',-0.055
'[09:20:00.594]',-0.055
'[09:20:00.602]',-0.045
'[09:20:00.609]',-0.025
'[09:20:00.617]',0.055
'[09:20:00.625]',0.015
'[09:20:00.633]',-0.025
'[09:20:00.641]',-0.015
'[09:20:00.648]',-0.115
'[09:20:00.656]',-0.165
'[09:20:00.664]',-0.175
'[09:20:00.672]',-0.215
'[09:20:00.680]',-0.215
'[09:20:00.688]',-0.185
'[09:20:00.695]',-0.165
'[09:20:00.703]',-0.265
'[09:20:00.711]',0.105
'[09:20:00.719]',0.955
'[09:20:00.727]',1865
'[09:20:00.734]',2445
'[09:20:00.742]',1345
'[09:20:00.750]',-0.475
'[09:20:00.758]',-0.885
'[09:20:00.766]',-0.665
'[09:20:00.773]',-0.465
'[09:20:00.781]',-0.355
'[09:20:00.789]',-0.315
'[09:20:00.797]',-0.315
'[09:20:00.805]',-0.295
'[09:20:00.813]',-0.295
'[09:20:00.820]',-0.285
'[09:20:00.828]',-0.295
'[09:20:00.836]',-0.295
'[09:20:00.844]',-0.275
'[09:20:00.852]',-0.275
'[09:20:00.859]',-0.265
'[09:20:00.867]',-0.255
'[09:20:00.875]',-0.225
'[09:20:00.883]',-0.235
'[09:20:00.891]',-0.235
'[09:20:00.898]',-0.225
'[09:20:00.906]',-0.215
'[09:20:00.914]',-0.215
'[09:20:00.922]',-0.205
'[09:20:00.930]',-0.195
'[09:20:00.938]',-0.185
'[09:20:00.945]',-0.205
'[09:20:00.953]',-0.215
'[09:20:00.961]',-0.215
'[09:20:00.969]',-0.225
'[09:20:00.977]',-0.245
'[09:20:00.984]',-0.235
'[09:20:00.992]',-0.235
'[09:20:01.000]',-0.185
'[09:20:01.008]',-0.175
'[09:20:01.016]',-0.155
'[09:20:01.023]',-0.145
'[09:20:01.031]',-0.155
'[09:20:01.039]',-0.155
'[09:20:01.047]',-0.155
'[09:20:01.055]',-0.165
'[09:20:01.063]',-0.155
'[09:20:01.070]',-0.155
'[09:20:01.078]',-0.165
'[09:20:01.086]',-0.155
'[09:20:01.094]',-0.185
'[09:20:01.102]',-0.155
'[09:20:01.109]',-0.165
'[09:20:01.117]',-0.135
'[09:20:01.125]',-0.125
'[09:20:01.133]',-0.125
'[09:20:01.141]',-0.115
'[09:20:01.148]',-0.095
'[09:20:01.156]',-0.095
'[09:20:01.164]',-0.085
'[09:20:01.172]',-0.075
'[09:20:01.180]',-0.075
'[09:20:01.188]',-0.055
'[09:20:01.195]',-0.075
'[09:20:01.203]',-0.085
'[09:20:01.211]',-0.065
'[09:20:01.219]',-0.095
'[09:20:01.227]',-0.085
'[09:20:01.234]',-0.085
'[09:20:01.242]',-0.085
'[09:20:01.250]',-0.095
'[09:20:01.258]',-0.105
'[09:20:01.266]',-0.115
'[09:20:01.273]',-0.085
'[09:20:01.281]',-0.045
'[09:20:01.289]',-0.025
'[09:20:01.297]',-0.025
'[09:20:01.305]',0.005
'[09:20:01.313]',0.065
'[09:20:01.320]',0.085
'[09:20:01.328]',0.015
'[09:20:01.336]',-0.015
'[09:20:01.344]',-0.015
'[09:20:01.352]',-0.115
'[09:20:01.359]',-0.135
'[09:20:01.367]',-0.155
'[09:20:01.375]',-0.175
'[09:20:01.383]',-0.165
'[09:20:01.391]',-0.155
'[09:20:01.398]',-0.255
'[09:20:01.406]',-0.035
'[09:20:01.414]',0.745
'[09:20:01.422]',1685
'[09:20:01.430]',2435
'[09:20:01.438]',1695
'[09:20:01.445]',-0.225
'[09:20:01.453]',-0.925
'[09:20:01.461]',-0.715
'[09:20:01.469]',-0.485
'[09:20:01.477]',-0.355
'[09:20:01.484]',-0.315
'[09:20:01.492]',-0.315
'[09:20:01.500]',-0.295
'[09:20:01.508]',-0.295
'[09:20:01.516]',-0.295
'[09:20:01.523]',-0.295
'[09:20:01.531]',-0.295
'[09:20:01.539]',-0.285
'[09:20:01.547]',-0.275
'[09:20:01.555]',-0.265
'[09:20:01.563]',-0.255
'[09:20:01.570]',-0.255
'[09:20:01.578]',-0.265
'[09:20:01.586]',-0.245
'[09:20:01.594]',-0.255
'[09:20:01.602]',-0.235
'[09:20:01.609]',-0.235
'[09:20:01.617]',-0.215
'[09:20:01.625]',-0.205
'[09:20:01.633]',-0.215
'[09:20:01.641]',-0.215
'[09:20:01.648]',-0.205
'[09:20:01.656]',-0.225
'[09:20:01.664]',-0.225
'[09:20:01.672]',-0.225
'[09:20:01.680]',-0.215
'[09:20:01.688]',-0.215
'[09:20:01.695]',-0.195
'[09:20:01.703]',-0.185
'[09:20:01.711]',-0.165
'[09:20:01.719]',-0.155
'[09:20:01.727]',-0.155
'[09:20:01.734]',-0.155
'[09:20:01.742]',-0.155
'[09:20:01.750]',-0.145
'[09:20:01.758]',-0.155
'[09:20:01.766]',-0.165
'[09:20:01.773]',-0.165
'[09:20:01.781]',-0.175
'[09:20:01.789]',-0.155
'[09:20:01.797]',-0.165
'[09:20:01.805]',-0.155
'[09:20:01.813]',-0.145
'[09:20:01.820]',-0.135
'[09:20:01.828]',-0.145
'[09:20:01.836]',-0.125
'[09:20:01.844]',-0.145
'[09:20:01.852]',-0.105
'[09:20:01.859]',-0.115
'[09:20:01.867]',-0.105
'[09:20:01.875]',-0.105
'[09:20:01.883]',-0.095
'[09:20:01.891]',-0.095
'[09:20:01.898]',-0.095
'[09:20:01.906]',-0.105
'[09:20:01.914]',-0.105
'[09:20:01.922]',-0.105
'[09:20:01.930]',-0.105
'[09:20:01.938]',-0.095
'[09:20:01.945]',-0.125
'[09:20:01.953]',-0.125
'[09:20:01.961]',-0.125
'[09:20:01.969]',-0.115
'[09:20:01.977]',-0.055
'[09:20:01.984]',-0.035
'[09:20:01.992]',-0.025
'[09:20:02.000]',0.015
'[09:20:02.008]',0.025
'[09:20:02.016]',0.105
'[09:20:02.023]',0.025
'[09:20:02.031]',-0.025
'[09:20:02.039]',-0.005
'[09:20:02.047]',-0.095
'[09:20:02.055]',-0.155
'[09:20:02.063]',-0.155
'[09:20:02.070]',-0.195
'[09:20:02.078]',-0.205
'[09:20:02.086]',-0.185
'[09:20:02.094]',-0.195
'[09:20:02.102]',-0.275
'[09:20:02.109]',0.315
'[09:20:02.117]',1275
'[09:20:02.125]',2325
'[09:20:02.133]',2445
'[09:20:02.141]',0.385
'[09:20:02.148]',-0.985
'[09:20:02.156]',-0.855
'[09:20:02.164]',-0.525
'[09:20:02.172]',-0.355
'[09:20:02.180]',-0.295
'[09:20:02.188]',-0.265
'[09:20:02.195]',-0.285
'[09:20:02.203]',-0.275
'[09:20:02.211]',-0.265
'[09:20:02.219]',-0.265
'[09:20:02.227]',-0.255
'[09:20:02.234]',-0.245
'[09:20:02.242]',-0.245
'[09:20:02.250]',-0.235
'[09:20:02.258]',-0.235
'[09:20:02.266]',-0.225
'[09:20:02.273]',-0.215
'[09:20:02.281]',-0.235
'[09:20:02.289]',-0.205
'[09:20:02.297]',-0.195
'[09:20:02.305]',-0.195
'[09:20:02.313]',-0.175
'[09:20:02.320]',-0.185
'[09:20:02.328]',-0.175
'[09:20:02.336]',-0.165
'[09:20:02.344]',-0.165
'[09:20:02.352]',-0.155
'[09:20:02.359]',-0.165
'[09:20:02.367]',-0.165
'[09:20:02.375]',-0.165
'[09:20:02.383]',-0.165
'[09:20:02.391]',-0.155
'[09:20:02.398]',-0.125
'[09:20:02.406]',-0.125
'[09:20:02.414]',-0.085
'[09:20:02.422]',-0.095
'[09:20:02.430]',-0.105
'[09:20:02.438]',-0.095
'[09:20:02.445]',-0.115
'[09:20:02.453]',-0.115
'[09:20:02.461]',-0.115
'[09:20:02.469]',-0.135
'[09:20:02.477]',-0.115
'[09:20:02.484]',-0.135
'[09:20:02.492]',-0.115
'[09:20:02.500]',-0.105
'[09:20:02.508]',-0.115
'[09:20:02.516]',-0.115
'[09:20:02.523]',-0.105
'[09:20:02.531]',-0.115
'[09:20:02.539]',-0.085
'[09:20:02.547]',-0.085
'[09:20:02.555]',-0.065
'[09:20:02.563]',-0.055
'[09:20:02.570]',-0.055
'[09:20:02.578]',-0.055
'[09:20:02.586]',-0.055
'[09:20:02.594]',-0.055
'[09:20:02.602]',-0.035
'[09:20:02.609]',-0.055
'[09:20:02.617]',-0.045
'[09:20:02.625]',-0.035
'[09:20:02.633]',-0.055
'[09:20:02.641]',-0.065
'[09:20:02.648]',-0.065
'[09:20:02.656]',-0.075
'[09:20:02.664]',-0.065
'[09:20:02.672]',-0.075
'[09:20:02.680]',-0.075
'[09:20:02.688]',-0.065
'[09:20:02.695]',-0.065
'[09:20:02.703]',-0.005
'[09:20:02.711]',0.015
'[09:20:02.719]',0.005
'[09:20:02.727]',0.035
'[09:20:02.734]',0.075
'[09:20:02.742]',0.155
'[09:20:02.750]',0.085
'[09:20:02.758]',0.045
'[09:20:02.766]',0.045
'[09:20:02.773]',-0.025
'[09:20:02.781]',-0.095
'[09:20:02.789]',-0.075
'[09:20:02.797]',-0.135
'[09:20:02.805]',-0.115
'[09:20:02.813]',-0.095
'[09:20:02.820]',-0.095
'[09:20:02.828]',-0.215
'[09:20:02.836]',0.215
'[09:20:02.844]',1085
'[09:20:02.852]',2085
'[09:20:02.859]',2675
'[09:20:02.867]',1505
'[09:20:02.875]',-0.495
'[09:20:02.883]',-0.935
'[09:20:02.891]',-0.625
'[09:20:02.898]',-0.355
'[09:20:02.906]',-0.215
'[09:20:02.914]',-0.205
'[09:20:02.922]',-0.215
'[09:20:02.930]',-0.205
'[09:20:02.938]',-0.195
'[09:20:02.945]',-0.185
'[09:20:02.953]',-0.185
'[09:20:02.961]',-0.175
'[09:20:02.969]',-0.155
'[09:20:02.977]',-0.175
'[09:20:02.984]',-0.155
'[09:20:02.992]',-0.145
'[09:20:03.000]',-0.145
'[09:20:03.008]',-0.125
'[09:20:03.016]',-0.135
'[09:20:03.023]',-0.135
'[09:20:03.031]',-0.115
'[09:20:03.039]',-0.125
'[09:20:03.047]',-0.115
'[09:20:03.055]',-0.095
'[09:20:03.063]',-0.095
'[09:20:03.070]',-0.095
'[09:20:03.078]',-0.105
'[09:20:03.086]',-0.095
'[09:20:03.094]',-0.095
'[09:20:03.102]',-0.105
'[09:20:03.109]',-0.105
'[09:20:03.117]',-0.085
'[09:20:03.125]',-0.065
'[09:20:03.133]',-0.045
'[09:20:03.141]',-0.045
'[09:20:03.148]',-0.045
'[09:20:03.156]',-0.035
'[09:20:03.164]',-0.045
'[09:20:03.172]',-0.055
'[09:20:03.180]',-0.055
'[09:20:03.188]',-0.055
'[09:20:03.195]',-0.065
'[09:20:03.203]',-0.065
'[09:20:03.211]',-0.085
'[09:20:03.219]',-0.085
'[09:20:03.227]',-0.075
'[09:20:03.234]',-0.065
'[09:20:03.242]',-0.075
'[09:20:03.250]',-0.055
'[09:20:03.258]',-0.045
'[09:20:03.266]',-0.035
'[09:20:03.273]',-0.035
'[09:20:03.281]',-0.025
'[09:20:03.289]',-0.015
'[09:20:03.297]',-0.005
'[09:20:03.305]',-0.005
'[09:20:03.313]',0.005
'[09:20:03.320]',0.005
'[09:20:03.328]',-0.015
'[09:20:03.336]',-0.015
'[09:20:03.344]',-0.035
'[09:20:03.352]',-0.015
'[09:20:03.359]',-0.015
'[09:20:03.367]',-0.005
'[09:20:03.375]',-0.015
'[09:20:03.383]',-0.015
'[09:20:03.391]',-0.025
'[09:20:03.398]',-0.025
'[09:20:03.406]',-0.035
'[09:20:03.414]',-0.035
'[09:20:03.422]',-0.035
'[09:20:03.430]',-0.025
'[09:20:03.438]',0.045
'[09:20:03.445]',0.065
'[09:20:03.453]',0.055
'[09:20:03.461]',0.075
'[09:20:03.469]',0.095
'[09:20:03.477]',0.165
'[09:20:03.484]',0.105
'[09:20:03.492]',0.075
'[09:20:03.500]',0.095
'[09:20:03.508]',-0.015
'[09:20:03.516]',-0.045
'[09:20:03.523]',-0.075
'[09:20:03.531]',-0.105
'[09:20:03.539]',-0.095
'[09:20:03.547]',-0.085
'[09:20:03.555]',-0.125
'[09:20:03.563]',-0.125
'[09:20:03.570]',0.375
'[09:20:03.578]',1235
'[09:20:03.586]',2155
'[09:20:03.594]',2585
'[09:20:03.602]',1285
'[09:20:03.609]',-0.615
'[09:20:03.617]',-0.895
'[09:20:03.625]',-0.555
'[09:20:03.633]',-0.325
'[09:20:03.641]',-0.225
'[09:20:03.648]',-0.205
'[09:20:03.656]',-0.205
'[09:20:03.664]',-0.195
'[09:20:03.672]',-0.195
'[09:20:03.680]',-0.185
'[09:20:03.688]',-0.175
'[09:20:03.695]',-0.175
'[09:20:03.703]',-0.175
'[09:20:03.711]',-0.165
'[09:20:03.719]',-0.175
'[09:20:03.727]',-0.155
'[09:20:03.734]',-0.145
'[09:20:03.742]',-0.145
'[09:20:03.750]',-0.135
'[09:20:03.758]',-0.135
'[09:20:03.766]',-0.125
'[09:20:03.773]',-0.115
'[09:20:03.781]',-0.125
'[09:20:03.789]',-0.105
'[09:20:03.797]',-0.095
'[09:20:03.805]',-0.095
'[09:20:03.813]',-0.095
'[09:20:03.820]',-0.095
'[09:20:03.828]',-0.105
'[09:20:03.836]',-0.095
'[09:20:03.844]',-0.095
'[09:20:03.852]',-0.075
'[09:20:03.859]',-0.055
'[09:20:03.867]',-0.025
'[09:20:03.875]',0.005
'[09:20:03.883]',-0.005
'[09:20:03.891]',-0.025
'[09:20:03.898]',-0.025
'[09:20:03.906]',-0.045
'[09:20:03.914]',-0.055
'[09:20:03.922]',-0.045
'[09:20:03.930]',-0.035
'[09:20:03.938]',-0.035
'[09:20:03.945]',-0.055
'[09:20:03.953]',-0.055
'[09:20:03.961]',-0.055
'[09:20:03.969]',-0.055
'[09:20:03.977]',-0.045
'[09:20:03.984]',-0.045
'[09:20:03.992]',-0.025
'[09:20:04.000]',0.005
'[09:20:04.008]',-0.005
'[09:20:04.016]',-0.005
'[09:20:04.023]',0.005
'[09:20:04.031]',0.005
'[09:20:04.039]',0.015
'[09:20:04.047]',0.005
'[09:20:04.055]',0.015
'[09:20:04.063]',0.025
'[09:20:04.070]',0.015
'[09:20:04.078]',-0.005
'[09:20:04.086]',0.005
'[09:20:04.094]',-0.015
'[09:20:04.102]',-0.005
'[09:20:04.109]',-0.025
'[09:20:04.117]',-0.025
'[09:20:04.125]',-0.015
'[09:20:04.133]',-0.025
'[09:20:04.141]',-0.045
'[09:20:04.148]',-0.035
'[09:20:04.156]',-0.045
'[09:20:04.164]',-0.035
'[09:20:04.172]',-0.045
'[09:20:04.180]',-0.045
'[09:20:04.188]',-0.005
'[09:20:04.195]',0.045
'[09:20:04.203]',0.045
'[09:20:04.211]',0.055
'[09:20:04.219]',0.065
'[09:20:04.227]',0.145
'[09:20:04.234]',0.125
'[09:20:04.242]',0.085
'[09:20:04.250]',0.065
'[09:20:04.258]',0.035
'[09:20:04.266]',-0.055
'[09:20:04.273]',-0.055
'[09:20:04.281]',-0.095
'[09:20:04.289]',-0.105
'[09:20:04.297]',-0.085
'[09:20:04.305]',-0.065
'[09:20:04.313]',-0.145
'[09:20:04.320]',0.025
'[09:20:04.328]',0.715
'[09:20:04.336]',1635
'[09:20:04.344]',2395
'[09:20:04.352]',1775
'[09:20:04.359]',-0.155
'[09:20:04.367]',-0.865
'[09:20:04.375]',-0.625
'[09:20:04.383]',-0.375
'[09:20:04.391]',-0.265
'[09:20:04.398]',-0.205
'[09:20:04.406]',-0.225
'[09:20:04.414]',-0.205
'[09:20:04.422]',-0.215
'[09:20:04.430]',-0.205
'[09:20:04.438]',-0.185
'[09:20:04.445]',-0.175
'[09:20:04.453]',-0.205
'[09:20:04.461]',-0.185
'[09:20:04.469]',-0.195
'[09:20:04.477]',-0.175
'[09:20:04.484]',-0.175
'[09:20:04.492]',-0.155
'[09:20:04.500]',-0.145
'[09:20:04.508]',-0.155
'[09:20:04.516]',-0.155
'[09:20:04.523]',-0.135
'[09:20:04.531]',-0.145
'[09:20:04.539]',-0.125
'[09:20:04.547]',-0.125
'[09:20:04.555]',-0.115
'[09:20:04.563]',-0.115
'[09:20:04.570]',-0.125
'[09:20:04.578]',-0.135
'[09:20:04.586]',-0.125
'[09:20:04.594]',-0.145
'[09:20:04.602]',-0.115
'[09:20:04.609]',-0.105
'[09:20:04.617]',-0.075
'[09:20:04.625]',-0.045
'[09:20:04.633]',-0.045
'[09:20:04.641]',-0.055
'[09:20:04.648]',-0.055
'[09:20:04.656]',-0.085
'[09:20:04.664]',-0.075
'[09:20:04.672]',-0.085
'[09:20:04.680]',-0.095
'[09:20:04.688]',-0.095
'[09:20:04.695]',-0.095
'[09:20:04.703]',-0.105
'[09:20:04.711]',-0.095
'[09:20:04.719]',-0.105
'[09:20:04.727]',-0.095
'[09:20:04.734]',-0.085
'[09:20:04.742]',-0.085
'[09:20:04.750]',-0.065
'[09:20:04.758]',-0.075
'[09:20:04.766]',-0.075
'[09:20:04.773]',-0.065
'[09:20:04.781]',-0.075
'[09:20:04.789]',-0.065
'[09:20:04.797]',-0.055
'[09:20:04.805]',-0.045
'[09:20:04.813]',-0.045
'[09:20:04.820]',-0.055
'[09:20:04.828]',-0.065
'[09:20:04.836]',-0.055
'[09:20:04.844]',-0.075
'[09:20:04.852]',-0.065
'[09:20:04.859]',-0.075
'[09:20:04.867]',-0.075
'[09:20:04.875]',-0.085
'[09:20:04.883]',-0.085
'[09:20:04.891]',-0.095
'[09:20:04.898]',-0.085
'[09:20:04.906]',-0.105
'[09:20:04.914]',-0.095
'[09:20:04.922]',-0.105
'[09:20:04.930]',-0.095
'[09:20:04.938]',-0.045
'[09:20:04.945]',-0.005
'[09:20:04.953]',-0.005
'[09:20:04.961]',-0.005
'[09:20:04.969]',0.015
'[09:20:04.977]',0.105
'[09:20:04.984]',0.085
'[09:20:04.992]',0.025
'[09:20:05.000]',0.025
'[09:20:05.008]',-0.025
'[09:20:05.016]',-0.115
'[09:20:05.023]',-0.105
'[09:20:05.031]',-0.155
'[09:20:05.039]',-0.175
'[09:20:05.047]',-0.165
'[09:20:05.055]',-0.125
'[09:20:05.063]',-0.205
'[09:20:05.070]',-0.065
'[09:20:05.078]',0.625
'[09:20:05.086]',1575
'[09:20:05.094]',2445
'[09:20:05.102]',1905
'[09:20:05.109]',-0.095
'[09:20:05.117]',-0.975
'[09:20:05.125]',-0.765
'[09:20:05.133]',-0.475
'[09:20:05.141]',-0.335
'[09:20:05.148]',-0.275
'[09:20:05.156]',-0.275
'[09:20:05.164]',-0.265
'[09:20:05.172]',-0.275
'[09:20:05.180]',-0.255
'[09:20:05.188]',-0.245
'[09:20:05.195]',-0.255
'[09:20:05.203]',-0.245
'[09:20:05.211]',-0.245
'[09:20:05.219]',-0.245
'[09:20:05.227]',-0.255
'[09:20:05.234]',-0.235
'[09:20:05.242]',-0.225
'[09:20:05.250]',-0.205
'[09:20:05.258]',-0.215
'[09:20:05.266]',-0.215
'[09:20:05.273]',-0.205
'[09:20:05.281]',-0.195
'[09:20:05.289]',-0.185
'[09:20:05.297]',-0.185
'[09:20:05.305]',-0.175
'[09:20:05.313]',-0.165
'[09:20:05.320]',-0.185
'[09:20:05.328]',-0.175
'[09:20:05.336]',-0.185
'[09:20:05.344]',-0.195
'[09:20:05.352]',-0.175
'[09:20:05.359]',-0.165
'[09:20:05.367]',-0.125
'[09:20:05.375]',-0.115
'[09:20:05.383]',-0.105
'[09:20:05.391]',-0.115
'[09:20:05.398]',-0.105
'[09:20:05.406]',-0.135
'[09:20:05.414]',-0.125
'[09:20:05.422]',-0.135
'[09:20:05.430]',-0.145
'[09:20:05.438]',-0.135
'[09:20:05.445]',-0.135
'[09:20:05.453]',-0.145
'[09:20:05.461]',-0.145
'[09:20:05.469]',-0.145
'[09:20:05.477]',-0.135
'[09:20:05.484]',-0.135
'[09:20:05.492]',-0.115
'[09:20:05.500]',-0.105
'[09:20:05.508]',-0.105
'[09:20:05.516]',-0.105
'[09:20:05.523]',-0.095
'[09:20:05.531]',-0.105
'[09:20:05.539]',-0.095
'[09:20:05.547]',-0.095
'[09:20:05.555]',-0.075
'[09:20:05.563]',-0.065
'[09:20:05.570]',-0.065
'[09:20:05.578]',-0.095
'[09:20:05.586]',-0.075
'[09:20:05.594]',-0.105
'[09:20:05.602]',-0.095
'[09:20:05.609]',-0.105
'[09:20:05.617]',-0.105
'[09:20:05.625]',-0.095
'[09:20:05.633]',-0.105
'[09:20:05.641]',-0.125
'[09:20:05.648]',-0.105
'[09:20:05.656]',-0.115
'[09:20:05.664]',-0.075
'[09:20:05.672]',-0.025
'[09:20:05.680]',-0.015
'[09:20:05.688]',0.005
'[09:20:05.695]',0.015
'[09:20:05.703]',0.085
'[09:20:05.711]',0.075
'[09:20:05.719]',0.015
'[09:20:05.727]',0.005
'[09:20:05.734]',-0.015
'[09:20:05.742]',-0.105
'[09:20:05.750]',-0.085
'[09:20:05.758]',-0.155
'[09:20:05.766]',-0.145
'[09:20:05.773]',-0.125
'[09:20:05.781]',-0.115
'[09:20:05.789]',-0.225
'[09:20:05.797]',0.065
'[09:20:05.805]',0.875
'[09:20:05.813]',1745
'[09:20:05.820]',2485
'[09:20:05.828]',1795
'[09:20:05.836]',-0.025
'[09:20:05.844]',-0.855
'[09:20:05.852]',-0.695
'[09:20:05.859]',-0.475
'[09:20:05.867]',-0.325
'[09:20:05.875]',-0.235
'[09:20:05.883]',-0.215
'[09:20:05.891]',-0.235
'[09:20:05.898]',-0.215
'[09:20:05.906]',-0.225
'[09:20:05.914]',-0.205
'[09:20:05.922]',-0.215
'[09:20:05.930]',-0.205
'[09:20:05.938]',-0.175
'[09:20:05.945]',-0.175
'[09:20:05.953]',-0.175
'[09:20:05.961]',-0.165
'[09:20:05.969]',-0.165
'[09:20:05.977]',-0.165
'[09:20:05.984]',-0.155
'[09:20:05.992]',-0.135
'[09:20:06.000]',-0.115
'[09:20:06.008]',-0.115
'[09:20:06.016]',-0.125
'[09:20:06.023]',-0.115
'[09:20:06.031]',-0.105
'[09:20:06.039]',-0.115
'[09:20:06.047]',-0.105
'[09:20:06.055]',-0.105
'[09:20:06.063]',-0.105
'[09:20:06.070]',-0.125
'[09:20:06.078]',-0.125
'[09:20:06.086]',-0.105
'[09:20:06.094]',-0.085
'[09:20:06.102]',-0.055
'[09:20:06.109]',-0.055
'[09:20:06.117]',-0.035
'[09:20:06.125]',-0.035
'[09:20:06.133]',-0.045
'[09:20:06.141]',-0.055
'[09:20:06.148]',-0.055
'[09:20:06.156]',-0.075
'[09:20:06.164]',-0.065
'[09:20:06.172]',-0.065
'[09:20:06.180]',-0.075
'[09:20:06.188]',-0.065
'[09:20:06.195]',-0.065
'[09:20:06.203]',-0.075
'[09:20:06.211]',-0.065
'[09:20:06.219]',-0.055
'[09:20:06.227]',-0.045
'[09:20:06.234]',-0.035
'[09:20:06.242]',-0.025
'[09:20:06.250]',-0.015
'[09:20:06.258]',-0.015
'[09:20:06.266]',-0.015
'[09:20:06.273]',-0.015
'[09:20:06.281]',-0.015
'[09:20:06.289]',-0.015
'[09:20:06.297]',-0.025
'[09:20:06.305]',-0.015
'[09:20:06.313]',-0.005
'[09:20:06.320]',-0.015
'[09:20:06.328]',-0.025
'[09:20:06.336]',-0.015
'[09:20:06.344]',-0.035
'[09:20:06.352]',-0.025
'[09:20:06.359]',-0.025
'[09:20:06.367]',-0.035
'[09:20:06.375]',-0.015
'[09:20:06.383]',-0.035
'[09:20:06.391]',-0.045
'[09:20:06.398]',-0.015
'[09:20:06.406]',0.025
'[09:20:06.414]',0.035
'[09:20:06.422]',0.045
'[09:20:06.430]',0.075
'[09:20:06.438]',0.125
'[09:20:06.445]',0.095
'[09:20:06.453]',0.055
'[09:20:06.461]',0.055
'[09:20:06.469]',0.015
'[09:20:06.477]',-0.045
'[09:20:06.484]',-0.045
'[09:20:06.492]',-0.085
'[09:20:06.500]',-0.085
'[09:20:06.508]',-0.085
'[09:20:06.516]',-0.075
'[09:20:06.523]',-0.155
'[09:20:06.531]',-0.015
'[09:20:06.539]',0.615
'[09:20:06.547]',1355
'[09:20:06.555]',2025
'[09:20:06.563]',1565
'[09:20:06.570]',-0.075
'[09:20:06.578]',-0.745
'[09:20:06.586]',-0.585
'[09:20:06.594]',-0.395
'[09:20:06.602]',-0.275
'[09:20:06.609]',-0.225
'[09:20:06.617]',-0.225
'[09:20:06.625]',-0.215
'[09:20:06.633]',-0.215
'[09:20:06.641]',-0.225
'[09:20:06.648]',-0.215
'[09:20:06.656]',-0.215
'[09:20:06.664]',-0.215
'[09:20:06.672]',-0.215
'[09:20:06.680]',-0.205
'[09:20:06.688]',-0.185
'[09:20:06.695]',-0.195
'[09:20:06.703]',-0.185
'[09:20:06.711]',-0.175
'[09:20:06.719]',-0.165
'[09:20:06.727]',-0.175
'[09:20:06.734]',-0.165
'[09:20:06.742]',-0.155
'[09:20:06.750]',-0.155
'[09:20:06.758]',-0.135
'[09:20:06.766]',-0.125
'[09:20:06.773]',-0.125
'[09:20:06.781]',-0.115
'[09:20:06.789]',-0.125
'[09:20:06.797]',-0.125
'[09:20:06.805]',-0.115
'[09:20:06.813]',-0.125
'[09:20:06.820]',-0.095
'[09:20:06.828]',-0.095
'[09:20:06.836]',-0.075
'[09:20:06.844]',-0.055
'[09:20:06.852]',-0.075
'[09:20:06.859]',-0.085
'[09:20:06.867]',-0.085
'[09:20:06.875]',-0.085
'[09:20:06.883]',-0.095
'[09:20:06.891]',-0.105
'[09:20:06.898]',-0.105
'[09:20:06.906]',-0.095
'[09:20:06.914]',-0.115
'[09:20:06.922]',-0.115
'[09:20:06.930]',-0.115
'[09:20:06.938]',-0.095
'[09:20:06.945]',-0.095
'[09:20:06.953]',-0.105
'[09:20:06.961]',-0.105
'[09:20:06.969]',-0.105
'[09:20:06.977]',-0.075
'[09:20:06.984]',-0.075
'[09:20:06.992]',-0.075
'[09:20:07.000]',-0.055
'[09:20:07.008]',-0.065
'[09:20:07.016]',-0.065
'[09:20:07.023]',-0.065
'[09:20:07.031]',-0.075
'[09:20:07.039]',-0.055
'[09:20:07.047]',-0.065
'[09:20:07.055]',-0.065
'[09:20:07.063]',-0.055
'[09:20:07.070]',-0.075
'[09:20:07.078]',-0.095
'[09:20:07.086]',-0.085
'[09:20:07.094]',-0.105
'[09:20:07.102]',-0.085
'[09:20:07.109]',-0.105
'[09:20:07.117]',-0.095
'[09:20:07.125]',-0.085
'[09:20:07.133]',-0.105
'[09:20:07.141]',-0.105
'[09:20:07.148]',-0.095
'[09:20:07.156]',-0.095
'[09:20:07.164]',-0.025
'[09:20:07.172]',0.005
'[09:20:07.180]',0.005
'[09:20:07.188]',0.035
'[09:20:07.195]',0.045
'[09:20:07.203]',0.105
'[09:20:07.211]',0.075
'[09:20:07.219]',0.025
'[09:20:07.227]',0.015
'[09:20:07.234]',-0.055
'[09:20:07.242]',-0.115
'[09:20:07.250]',-0.105
'[09:20:07.258]',-0.155
'[09:20:07.266]',-0.155
'[09:20:07.273]',-0.135
'[09:20:07.281]',-0.135
'[09:20:07.289]',-0.205
'[09:20:07.297]',0.185
'[09:20:07.305]',1015
'[09:20:07.313]',1925
'[09:20:07.320]',2455
'[09:20:07.328]',1355
'[09:20:07.336]',-0.435
'[09:20:07.344]',-0.925
'[09:20:07.352]',-0.665
'[09:20:07.359]',-0.425
'[09:20:07.367]',-0.295
'[09:20:07.375]',-0.245
'[09:20:07.383]',-0.255
'[09:20:07.391]',-0.265
'[09:20:07.398]',-0.255
'[09:20:07.406]',-0.235
'[09:20:07.414]',-0.255
'[09:20:07.422]',-0.245
'[09:20:07.430]',-0.235
'[09:20:07.438]',-0.225
'[09:20:07.445]',-0.225
'[09:20:07.453]',-0.215
'[09:20:07.461]',-0.215
'[09:20:07.469]',-0.205
'[09:20:07.477]',-0.205
'[09:20:07.484]',-0.205
'[09:20:07.492]',-0.185
'[09:20:07.500]',-0.165
'[09:20:07.508]',-0.165
'[09:20:07.516]',-0.155
'[09:20:07.523]',-0.155
'[09:20:07.531]',-0.155
'[09:20:07.539]',-0.145
'[09:20:07.547]',-0.135
'[09:20:07.555]',-0.145
'[09:20:07.563]',-0.125
'[09:20:07.570]',-0.135
'[09:20:07.578]',-0.125
'[09:20:07.586]',-0.095
'[09:20:07.594]',-0.085
'[09:20:07.602]',-0.075
'[09:20:07.609]',-0.085
'[09:20:07.617]',-0.085
'[09:20:07.625]',-0.075
'[09:20:07.633]',-0.095
'[09:20:07.641]',-0.105
'[09:20:07.648]',-0.105
'[09:20:07.656]',-0.125
'[09:20:07.664]',-0.115
'[09:20:07.672]',-0.105
'[09:20:07.680]',-0.115
'[09:20:07.688]',-0.105
'[09:20:07.695]',-0.105
'[09:20:07.703]',-0.105
'[09:20:07.711]',-0.095
'[09:20:07.719]',-0.105
'[09:20:07.727]',-0.095
'[09:20:07.734]',-0.085
'[09:20:07.742]',-0.085
'[09:20:07.750]',-0.065
'[09:20:07.758]',-0.065
'[09:20:07.766]',-0.075
'[09:20:07.773]',-0.055
'[09:20:07.781]',-0.065
'[09:20:07.789]',-0.055
'[09:20:07.797]',-0.055
'[09:20:07.805]',-0.055
'[09:20:07.813]',-0.055
'[09:20:07.820]',-0.055
'[09:20:07.828]',-0.075
'[09:20:07.836]',-0.065
'[09:20:07.844]',-0.085
'[09:20:07.852]',-0.075
'[09:20:07.859]',-0.075
'[09:20:07.867]',-0.075
'[09:20:07.875]',-0.075
'[09:20:07.883]',-0.065
'[09:20:07.891]',-0.085
'[09:20:07.898]',-0.075
'[09:20:07.906]',-0.085
'[09:20:07.914]',-0.085
'[09:20:07.922]',-0.085
'[09:20:07.930]',-0.075
'[09:20:07.938]',-0.065
'[09:20:07.945]',-0.075
'[09:20:07.953]',-0.075
'[09:20:07.961]',-0.045
'[09:20:07.969]',0.005
'[09:20:07.977]',0.005
'[09:20:07.984]',0.005
'[09:20:07.992]',0.035
'[09:20:08.000]',0.105
'[09:20:08.008]',0.085
'[09:20:08.016]',0.035
'[09:20:08.023]',0.025
'[09:20:08.031]',-0.005
'[09:20:08.039]',-0.085
'[09:20:08.047]',-0.095
'[09:20:08.055]',-0.115
'[09:20:08.063]',-0.125
'[09:20:08.070]',-0.115
'[09:20:08.078]',-0.115
'[09:20:08.086]',-0.165
'[09:20:08.094]',-0.035
'[09:20:08.102]',0.595
'[09:20:08.109]',1405
'[09:20:08.117]',2225
'[09:20:08.125]',1915
'[09:20:08.133]',0.045
'[09:20:08.141]',-0.895
'[09:20:08.148]',-0.745
'[09:20:08.156]',-0.465
'[09:20:08.164]',-0.325
'[09:20:08.172]',-0.285
'[09:20:08.180]',-0.285
'[09:20:08.188]',-0.255
'[09:20:08.195]',-0.275
'[09:20:08.203]',-0.275
'[09:20:08.211]',-0.265
'[09:20:08.219]',-0.275
'[09:20:08.227]',-0.255
'[09:20:08.234]',-0.255
'[09:20:08.242]',-0.245
'[09:20:08.250]',-0.235
'[09:20:08.258]',-0.245
'[09:20:08.266]',-0.255
'[09:20:08.273]',-0.235
'[09:20:08.281]',-0.245
'[09:20:08.289]',-0.225
'[09:20:08.297]',-0.215
'[09:20:08.305]',-0.205
'[09:20:08.313]',-0.205
'[09:20:08.320]',-0.185
'[09:20:08.328]',-0.205
'[09:20:08.336]',-0.185
'[09:20:08.344]',-0.205
'[09:20:08.352]',-0.195
'[09:20:08.359]',-0.205
'[09:20:08.367]',-0.195
'[09:20:08.375]',-0.185
'[09:20:08.383]',-0.175
'[09:20:08.391]',-0.155
'[09:20:08.398]',-0.135
'[09:20:08.406]',-0.155
'[09:20:08.414]',-0.155
'[09:20:08.422]',-0.155
'[09:20:08.430]',-0.175
'[09:20:08.438]',-0.165
'[09:20:08.445]',-0.165
'[09:20:08.453]',-0.175
'[09:20:08.461]',-0.175
'[09:20:08.469]',-0.185
'[09:20:08.477]',-0.185
'[09:20:08.484]',-0.175
'[09:20:08.492]',-0.195
'[09:20:08.500]',-0.155
'[09:20:08.508]',-0.175
'[09:20:08.516]',-0.175
'[09:20:08.523]',-0.175
'[09:20:08.531]',-0.165
'[09:20:08.539]',-0.165
'[09:20:08.547]',-0.165
'[09:20:08.555]',-0.155
'[09:20:08.563]',-0.125
'[09:20:08.570]',-0.145
'[09:20:08.578]',-0.135
'[09:20:08.586]',-0.135
'[09:20:08.594]',-0.145
'[09:20:08.602]',-0.125
'[09:20:08.609]',-0.135
'[09:20:08.617]',-0.135
'[09:20:08.625]',-0.145
'[09:20:08.633]',-0.135
'[09:20:08.641]',-0.155
'[09:20:08.648]',-0.145
'[09:20:08.656]',-0.155
'[09:20:08.664]',-0.165
'[09:20:08.672]',-0.155
'[09:20:08.680]',-0.155
'[09:20:08.688]',-0.145
'[09:20:08.695]',-0.165
'[09:20:08.703]',-0.165
'[09:20:08.711]',-0.145
'[09:20:08.719]',-0.125
'[09:20:08.727]',-0.075
'[09:20:08.734]',-0.085
'[09:20:08.742]',-0.055
'[09:20:08.750]',-0.015
'[09:20:08.758]',0.065
'[09:20:08.766]',0.035
'[09:20:08.773]',-0.015
'[09:20:08.781]',-0.045
'[09:20:08.789]',-0.065
'[09:20:08.797]',-0.165
'[09:20:08.805]',-0.155
'[09:20:08.813]',-0.175
'[09:20:08.820]',-0.215
'[09:20:08.828]',-0.195
'[09:20:08.836]',-0.155
'[09:20:08.844]',-0.245
'[09:20:08.852]',-0.035
'[09:20:08.859]',0.725
'[09:20:08.867]',1585
'[09:20:08.875]',2435
'[09:20:08.883]',2015
'[09:20:08.891]',0.165
'[09:20:08.898]',-0.865
'[09:20:08.906]',-0.765
'[09:20:08.914]',-0.525
'[09:20:08.922]',-0.385
'[09:20:08.930]',-0.305
'[09:20:08.938]',-0.255
'[09:20:08.945]',-0.265
'[09:20:08.953]',-0.275
'[09:20:08.961]',-0.255
'[09:20:08.969]',-0.245
'[09:20:08.977]',-0.245
'[09:20:08.984]',-0.235
'[09:20:08.992]',-0.225
'[09:20:09.000]',-0.205
'[09:20:09.008]',-0.215
'[09:20:09.016]',-0.215
'[09:20:09.023]',-0.195
'[09:20:09.031]',-0.185
'[09:20:09.039]',-0.185
'[09:20:09.047]',-0.175
'[09:20:09.055]',-0.165
'[09:20:09.063]',-0.145
'[09:20:09.070]',-0.145
'[09:20:09.078]',-0.145
'[09:20:09.086]',-0.125
'[09:20:09.094]',-0.125
'[09:20:09.102]',-0.125
'[09:20:09.109]',-0.135
'[09:20:09.117]',-0.125
'[09:20:09.125]',-0.135
'[09:20:09.133]',-0.135
'[09:20:09.141]',-0.125
'[09:20:09.148]',-0.095
'[09:20:09.156]',-0.085
'[09:20:09.164]',-0.075
'[09:20:09.172]',-0.075
'[09:20:09.180]',-0.075
'[09:20:09.188]',-0.065
'[09:20:09.195]',-0.075
'[09:20:09.203]',-0.095
'[09:20:09.211]',-0.085
'[09:20:09.219]',-0.095
'[09:20:09.227]',-0.105
'[09:20:09.234]',-0.105
'[09:20:09.242]',-0.105
'[09:20:09.250]',-0.085
'[09:20:09.258]',-0.095
'[09:20:09.266]',-0.075
'[09:20:09.273]',-0.075
'[09:20:09.281]',-0.075
'[09:20:09.289]',-0.065
'[09:20:09.297]',-0.055
'[09:20:09.305]',-0.045
'[09:20:09.313]',-0.035
'[09:20:09.320]',-0.035
'[09:20:09.328]',-0.035
'[09:20:09.336]',-0.035
'[09:20:09.344]',-0.045
'[09:20:09.352]',-0.035
'[09:20:09.359]',-0.035
'[09:20:09.367]',-0.035
'[09:20:09.375]',-0.035
'[09:20:09.383]',-0.035
'[09:20:09.391]',-0.055
'[09:20:09.398]',-0.045
'[09:20:09.406]',-0.055
'[09:20:09.414]',-0.065
'[09:20:09.422]',-0.065
'[09:20:09.430]',-0.055
'[09:20:09.438]',-0.045
'[09:20:09.445]',-0.055
'[09:20:09.453]',-0.035
'[09:20:09.461]',0.025
'[09:20:09.469]',0.035
'[09:20:09.477]',0.045
'[09:20:09.484]',0.075
'[09:20:09.492]',0.135
'[09:20:09.500]',0.135
'[09:20:09.508]',0.065
'[09:20:09.516]',0.055
'[09:20:09.523]',0.015
'[09:20:09.531]',-0.075
'[09:20:09.539]',-0.075
'[09:20:09.547]',-0.095
'[09:20:09.555]',-0.115
'[09:20:09.563]',-0.085
'[09:20:09.570]',-0.075
'[09:20:09.578]',-0.165
'[09:20:09.586]',0.025
'[09:20:09.594]',0.665
'[09:20:09.602]',1545
'[09:20:09.609]',2375
'[09:20:09.617]',1995
'[09:20:09.625]',0.065
'[09:20:09.633]',-0.865
'[09:20:09.641]',-0.695
'[09:20:09.648]',-0.385
'[09:20:09.656]',-0.285
'[09:20:09.664]',-0.215
'[09:20:09.672]',-0.215
'[09:20:09.680]',-0.195
'[09:20:09.688]',-0.195
'[09:20:09.695]',-0.205
'[09:20:09.703]',-0.195
'[09:20:09.711]',-0.185
'[09:20:09.719]',-0.175
'[09:20:09.727]',-0.175
'[09:20:09.734]',-0.175
'[09:20:09.742]',-0.165
'[09:20:09.750]',-0.145
'[09:20:09.758]',-0.165
'[09:20:09.766]',-0.155
'[09:20:09.773]',-0.145
'[09:20:09.781]',-0.145
'[09:20:09.789]',-0.125
'[09:20:09.797]',-0.115
'[09:20:09.805]',-0.105
'[09:20:09.813]',-0.085
'[09:20:09.820]',-0.085
'[09:20:09.828]',-0.085
'[09:20:09.836]',-0.075
'[09:20:09.844]',-0.095
'[09:20:09.852]',-0.075
'[09:20:09.859]',-0.065
'[09:20:09.867]',-0.095
'[09:20:09.875]',-0.045
'[09:20:09.883]',-0.035
'[09:20:09.891]',-0.015
'[09:20:09.898]',-0.025
'[09:20:09.906]',-0.035
'[09:20:09.914]',-0.035
'[09:20:09.922]',-0.035
'[09:20:09.930]',-0.055
'[09:20:09.938]',-0.035
'[09:20:09.945]',-0.055
'[09:20:09.953]',-0.055
'[09:20:09.961]',-0.065
'[09:20:09.969]',-0.075
'[09:20:09.977]',-0.065
'[09:20:09.984]',-0.065
'[09:20:09.992]',-0.075
'[09:20:10.000]',-0.055
'[09:20:10.008]',-0.055
'[09:20:10.016]',-0.045
'[09:20:10.023]',-0.045
'[09:20:10.031]',-0.035
'[09:20:10.039]',-0.045
'[09:20:10.047]',-0.025
'[09:20:10.055]',-0.015
'[09:20:10.063]',-0.005
'[09:20:10.070]',-0.005
'[09:20:10.078]',-0.015
'[09:20:10.086]',-0.005
'[09:20:10.094]',-0.025
'[09:20:10.102]',-0.025
'[09:20:10.109]',-0.025
'[09:20:10.117]',0.005
'[09:20:10.125]',0.015
'[09:20:10.133]',-0.025
'[09:20:10.141]',-0.025
'[09:20:10.148]',-0.025
'[09:20:10.156]',-0.035
'[09:20:10.164]',-0.035
'[09:20:10.172]',-0.035
'[09:20:10.180]',-0.025
'[09:20:10.188]',-0.015
'[09:20:10.195]',-0.035
'[09:20:10.203]',-0.035
'[09:20:10.211]',-0.005
'[09:20:10.219]',0.055
'[09:20:10.227]',0.045
'[09:20:10.234]',0.035
'[09:20:10.242]',0.105
'[09:20:10.250]',0.175
'[09:20:10.258]',0.195
'[09:20:10.266]',0.115
'[09:20:10.273]',0.085
'[09:20:10.281]',0.055
'[09:20:10.289]',-0.025
'[09:20:10.297]',-0.035
'[09:20:10.305]',-0.055
'[09:20:10.313]',-0.065
'[09:20:10.320]',-0.075
'[09:20:10.328]',-0.105
'[09:20:10.336]',-0.115
'[09:20:10.344]',0.075
'[09:20:10.352]',0.805
'[09:20:10.359]',1635
'[09:20:10.367]',2455
'[09:20:10.375]',2065
'[09:20:10.383]',0.225
'[09:20:10.391]',-0.805
'[09:20:10.398]',-0.695
'[09:20:10.406]',-0.395
'[09:20:10.414]',-0.245
'[09:20:10.422]',-0.195
'[09:20:10.430]',-0.205
'[09:20:10.438]',-0.185
'[09:20:10.445]',-0.195
'[09:20:10.453]',-0.185
'[09:20:10.461]',-0.165
'[09:20:10.469]',-0.165
'[09:20:10.477]',-0.175
'[09:20:10.484]',-0.175
'[09:20:10.492]',-0.155
'[09:20:10.500]',-0.145
'[09:20:10.508]',-0.155
'[09:20:10.516]',-0.145
'[09:20:10.523]',-0.115
'[09:20:10.531]',-0.135
'[09:20:10.539]',-0.115
'[09:20:10.547]',-0.115
'[09:20:10.555]',-0.105
'[09:20:10.563]',-0.085
'[09:20:10.570]',-0.085
'[09:20:10.578]',-0.075
'[09:20:10.586]',-0.075
'[09:20:10.594]',-0.085
'[09:20:10.602]',-0.085
'[09:20:10.609]',-0.075
'[09:20:10.617]',-0.045
'[09:20:10.625]',-0.045
'[09:20:10.633]',-0.025
'[09:20:10.641]',-0.015
'[09:20:10.648]',0.005
'[09:20:10.656]',-0.015
'[09:20:10.664]',-0.035
'[09:20:10.672]',-0.025
'[09:20:10.680]',-0.015
'[09:20:10.688]',-0.035
'[09:20:10.695]',-0.055
'[09:20:10.703]',-0.025
'[09:20:10.711]',-0.025
'[09:20:10.719]',-0.055
'[09:20:10.727]',-0.045
'[09:20:10.734]',-0.035
'[09:20:10.742]',-0.045
'[09:20:10.750]',-0.035
'[09:20:10.758]',-0.035
'[09:20:10.766]',-0.045
'[09:20:10.773]',-0.035
'[09:20:10.781]',-0.025
'[09:20:10.789]',-0.005
'[09:20:10.797]',0.005
'[09:20:10.805]',-0.005
'[09:20:10.813]',0.025
'[09:20:10.820]',0.005
'[09:20:10.828]',0.005
'[09:20:10.836]',0.005
'[09:20:10.844]',0.025
'[09:20:10.852]',0.025
'[09:20:10.859]',-0.005
'[09:20:10.867]',0.005
'[09:20:10.875]',0.025
'[09:20:10.883]',0.025
'[09:20:10.891]',-0.005
'[09:20:10.898]',0.005
'[09:20:10.906]',-0.005
'[09:20:10.914]',-0.015
'[09:20:10.922]',-0.015
'[09:20:10.930]',-0.035
'[09:20:10.938]',0.015
'[09:20:10.945]',-0.005
'[09:20:10.953]',-0.005
'[09:20:10.961]',-0.005
'[09:20:10.969]',-0.005
'[09:20:10.977]',0.015
'[09:20:10.984]',0.005
'[09:20:10.992]',0.025
'[09:20:11.000]',0.095
'[09:20:11.008]',0.085
'[09:20:11.016]',0.085
'[09:20:11.023]',0.115
'[09:20:11.031]',0.145
'[09:20:11.039]',0.155
'[09:20:11.047]',0.115
'[09:20:11.055]',0.115
'[09:20:11.063]',0.085
'[09:20:11.070]',0.015
'[09:20:11.078]',-0.025
'[09:20:11.086]',-0.025
'[09:20:11.094]',-0.055
'[09:20:11.102]',-0.055
'[09:20:11.109]',-0.025
'[09:20:11.117]',-0.115
'[09:20:11.125]',0.045
'[09:20:11.133]',0.675
'[09:20:11.141]',1465
'[09:20:11.148]',2255
'[09:20:11.156]',1795
'[09:20:11.164]',0.035
'[09:20:11.172]',-0.775
'[09:20:11.180]',-0.585
'[09:20:11.188]',-0.335
'[09:20:11.195]',-0.245
'[09:20:11.203]',-0.195
'[09:20:11.211]',-0.185
'[09:20:11.219]',-0.185
'[09:20:11.227]',-0.195
'[09:20:11.234]',-0.185
'[09:20:11.242]',-0.185
'[09:20:11.250]',-0.165
'[09:20:11.258]',-0.175
'[09:20:11.266]',-0.165
'[09:20:11.273]',-0.165
'[09:20:11.281]',-0.145
'[09:20:11.289]',-0.145
'[09:20:11.297]',-0.145
'[09:20:11.305]',-0.125
'[09:20:11.313]',-0.125
'[09:20:11.320]',-0.115
'[09:20:11.328]',-0.115
'[09:20:11.336]',-0.135
'[09:20:11.344]',-0.115
'[09:20:11.352]',-0.095
'[09:20:11.359]',-0.115
'[09:20:11.367]',-0.095
'[09:20:11.375]',-0.065
'[09:20:11.383]',-0.065
'[09:20:11.391]',-0.125
'[09:20:11.398]',-0.075
'[09:20:11.406]',-0.085
'[09:20:11.414]',-0.055
'[09:20:11.422]',-0.045
'[09:20:11.430]',-0.025
'[09:20:11.438]',-0.015
'[09:20:11.445]',-0.065
'[09:20:11.453]',-0.045
'[09:20:11.461]',-0.035
'[09:20:11.469]',-0.055
'[09:20:11.477]',-0.055
'[09:20:11.484]',-0.075
'[09:20:11.492]',-0.045
'[09:20:11.500]',-0.045
'[09:20:11.508]',-0.065
'[09:20:11.516]',-0.065
'[09:20:11.523]',-0.065
'[09:20:11.531]',-0.065
'[09:20:11.539]',-0.065
'[09:20:11.547]',-0.045
'[09:20:11.555]',-0.065
'[09:20:11.563]',-0.035
'[09:20:11.570]',-0.055
'[09:20:11.578]',-0.035
'[09:20:11.586]',-0.035
'[09:20:11.594]',-0.015
'[09:20:11.602]',-0.015
'[09:20:11.609]',-0.025
'[09:20:11.617]',-0.005
'[09:20:11.625]',-0.065
'[09:20:11.633]',-0.005
'[09:20:11.641]',-0.025
'[09:20:11.648]',-0.005
'[09:20:11.656]',-0.055
'[09:20:11.664]',-0.025
'[09:20:11.672]',-0.045
'[09:20:11.680]',-0.035
'[09:20:11.688]',-0.035
'[09:20:11.695]',-0.055
'[09:20:11.703]',-0.085
'[09:20:11.711]',-0.055
'[09:20:11.719]',-0.085
'[09:20:11.727]',-0.075
'[09:20:11.734]',-0.055
'[09:20:11.742]',-0.055
'[09:20:11.750]',-0.045
'[09:20:11.758]',-0.075
'[09:20:11.766]',-0.075
'[09:20:11.773]',-0.065
'[09:20:11.781]',-0.065
'[09:20:11.789]',-0.015
'[09:20:11.797]',0.035
'[09:20:11.805]',0.035
'[09:20:11.813]',0.045
'[09:20:11.820]',0.075
'[09:20:11.828]',0.155
'[09:20:11.836]',0.135
'[09:20:11.844]',0.065
'[09:20:11.852]',0.065
'[09:20:11.859]',0.005
'[09:20:11.867]',-0.055
'[09:20:11.875]',-0.075
'[09:20:11.883]',-0.095
'[09:20:11.891]',-0.115
'[09:20:11.898]',-0.185
'[09:20:11.906]',-0.085
'[09:20:11.914]',-0.135
'[09:20:11.922]',0.015
'[09:20:11.930]',0.765
'[09:20:11.938]',1685
'[09:20:11.945]',2545
'[09:20:11.953]',1885
'[09:20:11.961]',-0.155
'[09:20:11.969]',-0.985
'[09:20:11.977]',-0.685
'[09:20:11.984]',-0.375
'[09:20:11.992]',-0.265
'[09:20:12.000]',-0.205
'[09:20:12.008]',-0.225
'[09:20:12.016]',-0.225
'[09:20:12.023]',-0.245
'[09:20:12.031]',-0.245
'[09:20:12.039]',-0.225
'[09:20:12.047]',-0.195
'[09:20:12.055]',-0.195
'[09:20:12.063]',-0.215
'[09:20:12.070]',-0.175
'[09:20:12.078]',-0.175
'[09:20:12.086]',-0.185
'[09:20:12.094]',-0.185
'[09:20:12.102]',-0.175
'[09:20:12.109]',-0.165
'[09:20:12.117]',-0.175
'[09:20:12.125]',-0.145
'[09:20:12.133]',-0.155
'[09:20:12.141]',-0.165
'[09:20:12.148]',-0.105
'[09:20:12.156]',-0.115
'[09:20:12.164]',-0.135
'[09:20:12.172]',-0.105
'[09:20:12.180]',-0.105
'[09:20:12.188]',-0.095
'[09:20:12.195]',-0.125
'[09:20:12.203]',-0.115
'[09:20:12.211]',-0.135
'[09:20:12.219]',-0.085
'[09:20:12.227]',-0.055
'[09:20:12.234]',-0.075
'[09:20:12.242]',-0.045
'[09:20:12.250]',-0.035
'[09:20:12.258]',-0.055
'[09:20:12.266]',-0.075
'[09:20:12.273]',-0.085
'[09:20:12.281]',-0.085
'[09:20:12.289]',-0.105
'[09:20:12.297]',-0.085
'[09:20:12.305]',-0.055
'[09:20:12.313]',-0.085
'[09:20:12.320]',-0.075
'[09:20:12.328]',-0.075
'[09:20:12.336]',-0.085
'[09:20:12.344]',-0.065
'[09:20:12.352]',-0.085
'[09:20:12.359]',-0.055
'[09:20:12.367]',-0.045
'[09:20:12.375]',-0.045
'[09:20:12.383]',-0.075
'[09:20:12.391]',-0.035
'[09:20:12.398]',-0.045
'[09:20:12.406]',-0.085
'[09:20:12.414]',-0.015
'[09:20:12.422]',-0.055
'[09:20:12.430]',-0.035
'[09:20:12.438]',-0.035
'[09:20:12.445]',-0.035
'[09:20:12.453]',-0.055
'[09:20:12.461]',-0.065
'[09:20:12.469]',-0.065
'[09:20:12.477]',-0.075
'[09:20:12.484]',-0.055
'[09:20:12.492]',-0.095
'[09:20:12.500]',-0.075
'[09:20:12.508]',-0.075
'[09:20:12.516]',-0.085
'[09:20:12.523]',-0.065
'[09:20:12.531]',-0.085
'[09:20:12.539]',-0.095
'[09:20:12.547]',-0.105
'[09:20:12.555]',-0.095
'[09:20:12.563]',-0.085
'[09:20:12.570]',-0.075
'[09:20:12.578]',-0.105
'[09:20:12.586]',-0.065
'[09:20:12.594]',-0.055
'[09:20:12.602]',0.035
'[09:20:12.609]',0.025
'[09:20:12.617]',0.025
'[09:20:12.625]',0.065
'[09:20:12.633]',0.095
'[09:20:12.641]',0.075
'[09:20:12.648]',0.065
'[09:20:12.656]',0.025
'[09:20:12.664]',-0.065
'[09:20:12.672]',-0.115
'[09:20:12.680]',-0.125
'[09:20:12.688]',-0.135
'[09:20:12.695]',-0.155
'[09:20:12.703]',-0.145
'[09:20:12.711]',-0.145
'[09:20:12.719]',-0.205
'[09:20:12.727]',0.265
'[09:20:12.734]',1245
'[09:20:12.742]',2215
'[09:20:12.750]',2555
'[09:20:12.758]',0.875
'[09:20:12.766]',-0.815
'[09:20:12.773]',-0.885
'[09:20:12.781]',-0.555
'[09:20:12.789]',-0.355
'[09:20:12.797]',-0.265
'[09:20:12.805]',-0.255
'[09:20:12.813]',-0.245
'[09:20:12.820]',-0.245
'[09:20:12.828]',-0.235
'[09:20:12.836]',-0.225
'[09:20:12.844]',-0.235
'[09:20:12.852]',-0.225
'[09:20:12.859]',-0.215
'[09:20:12.867]',-0.225
'[09:20:12.875]',-0.205
'[09:20:12.883]',-0.215
'[09:20:12.891]',-0.195
'[09:20:12.898]',-0.185
'[09:20:12.906]',-0.175
'[09:20:12.914]',-0.165
'[09:20:12.922]',-0.155
'[09:20:12.930]',-0.165
'[09:20:12.938]',-0.145
'[09:20:12.945]',-0.135
'[09:20:12.953]',-0.145
'[09:20:12.961]',-0.135
'[09:20:12.969]',-0.175
'[09:20:12.977]',-0.135
'[09:20:12.984]',-0.145
'[09:20:12.992]',-0.145
'[09:20:13.000]',-0.145
'[09:20:13.008]',-0.115
'[09:20:13.016]',-0.145
'[09:20:13.023]',-0.095
'[09:20:13.031]',-0.105
'[09:20:13.039]',-0.085
'[09:20:13.047]',-0.105
'[09:20:13.055]',-0.085
'[09:20:13.063]',-0.085
'[09:20:13.070]',-0.095
'[09:20:13.078]',-0.105
'[09:20:13.086]',-0.115
'[09:20:13.094]',-0.125
'[09:20:13.102]',-0.105
'[09:20:13.109]',-0.135
'[09:20:13.117]',-0.095
'[09:20:13.125]',-0.115
'[09:20:13.133]',-0.115
'[09:20:13.141]',-0.085
'[09:20:13.148]',-0.075
'[09:20:13.156]',-0.115
'[09:20:13.164]',-0.075
'[09:20:13.172]',-0.075
'[09:20:13.180]',-0.085
'[09:20:13.188]',-0.065
'[09:20:13.195]',-0.065
'[09:20:13.203]',-0.075
'[09:20:13.211]',-0.075
'[09:20:13.219]',-0.085
'[09:20:13.227]',-0.065
'[09:20:13.234]',-0.095
'[09:20:13.242]',-0.105
'[09:20:13.250]',-0.055
'[09:20:13.258]',-0.085
'[09:20:13.266]',-0.075
'[09:20:13.273]',-0.105
'[09:20:13.281]',-0.115
'[09:20:13.289]',-0.115
'[09:20:13.297]',-0.105
'[09:20:13.305]',-0.105
'[09:20:13.313]',-0.105
'[09:20:13.320]',-0.115
'[09:20:13.328]',-0.125
'[09:20:13.336]',-0.125
'[09:20:13.344]',-0.125
'[09:20:13.352]',-0.135
'[09:20:13.359]',-0.135
'[09:20:13.367]',-0.125
'[09:20:13.375]',-0.125
'[09:20:13.383]',-0.125
'[09:20:13.391]',-0.045
'[09:20:13.398]',-0.025
'[09:20:13.406]',-0.015
'[09:20:13.414]',0.025
'[09:20:13.422]',0.075
'[09:20:13.430]',0.105
'[09:20:13.438]',0.045
'[09:20:13.445]',0.005
'[09:20:13.453]',-0.025
'[09:20:13.461]',-0.125
'[09:20:13.469]',-0.145
'[09:20:13.477]',-0.135
'[09:20:13.484]',-0.205
'[09:20:13.492]',-0.145
'[09:20:13.500]',-0.085
'[09:20:13.508]',-0.175
'[09:20:13.516]',-0.115
'[09:20:13.523]',0.555
'[09:20:13.531]',1415
'[09:20:13.539]',2335
'[09:20:13.547]',2325
'[09:20:13.555]',0.525
'[09:20:13.563]',-0.875
'[09:20:13.570]',-0.825
'[09:20:13.578]',-0.565
'[09:20:13.586]',-0.355
'[09:20:13.594]',-0.315
'[09:20:13.602]',-0.275
'[09:20:13.609]',-0.255
'[09:20:13.617]',-0.275
'[09:20:13.625]',-0.245
'[09:20:13.633]',-0.235
'[09:20:13.641]',-0.245
'[09:20:13.648]',-0.305
'[09:20:13.656]',-0.235
'[09:20:13.664]',-0.195
'[09:20:13.672]',-0.235
'[09:20:13.680]',-0.215
'[09:20:13.688]',-0.195
'[09:20:13.695]',-0.225
'[09:20:13.703]',-0.185
'[09:20:13.711]',-0.175
'[09:20:13.719]',-0.195
'[09:20:13.727]',-0.185
'[09:20:13.734]',-0.225
'[09:20:13.742]',-0.145
'[09:20:13.750]',-0.115
'[09:20:13.758]',-0.135
'[09:20:13.766]',-0.145
'[09:20:13.773]',-0.175
'[09:20:13.781]',-0.185
'[09:20:13.789]',-0.175
'[09:20:13.797]',-0.165
'[09:20:13.805]',-0.145
'[09:20:13.813]',-0.145
'[09:20:13.820]',-0.125
'[09:20:13.828]',-0.085
'[09:20:13.836]',-0.095
'[09:20:13.844]',-0.135
'[09:20:13.852]',-0.115
'[09:20:13.859]',-0.115
'[09:20:13.867]',-0.085
'[09:20:13.875]',-0.115
'[09:20:13.883]',-0.115
'[09:20:13.891]',-0.145
'[09:20:13.898]',-0.115
'[09:20:13.906]',-0.115
'[09:20:13.914]',-0.105
'[09:20:13.922]',-0.165
'[09:20:13.930]',-0.095
'[09:20:13.938]',-0.085
'[09:20:13.945]',-0.085
'[09:20:13.953]',-0.125
'[09:20:13.961]',-0.075
'[09:20:13.969]',-0.085
'[09:20:13.977]',-0.065
'[09:20:13.984]',-0.115
'[09:20:13.992]',-0.055
'[09:20:14.000]',-0.005
'[09:20:14.008]',-0.045
'[09:20:14.016]',-0.055
'[09:20:14.023]',-0.045
'[09:20:14.031]',-0.075
'[09:20:14.039]',-0.065
'[09:20:14.047]',-0.065
'[09:20:14.055]',-0.065
'[09:20:14.063]',-0.075
'[09:20:14.070]',-0.075
'[09:20:14.078]',-0.075
'[09:20:14.086]',-0.065
'[09:20:14.094]',-0.105
'[09:20:14.102]',-0.075
'[09:20:14.109]',-0.095
'[09:20:14.117]',-0.035
'[09:20:14.125]',0.035
'[09:20:14.133]',0.025
'[09:20:14.141]',0.015
'[09:20:14.148]',0.055
'[09:20:14.156]',0.075
'[09:20:14.164]',0.135
'[09:20:14.172]',0.065
'[09:20:14.180]',0.025
'[09:20:14.188]',0.025
'[09:20:14.195]',-0.095
'[09:20:14.203]',-0.105
'[09:20:14.211]',-0.125
'[09:20:14.219]',-0.145
'[09:20:14.227]',-0.135
'[09:20:14.234]',-0.145
'[09:20:14.242]',-0.175
'[09:20:14.250]',-0.135
'[09:20:14.258]',0.445
'[09:20:14.266]',1355
'[09:20:14.273]',2305
'[09:20:14.281]',2465
'[09:20:14.289]',0.515
'[09:20:14.297]',-0.895
'[09:20:14.305]',-0.775
'[09:20:14.313]',-0.535
'[09:20:14.320]',-0.295
'[09:20:14.328]',-0.245
'[09:20:14.336]',-0.195
'[09:20:14.344]',-0.235
'[09:20:14.352]',-0.265
'[09:20:14.359]',-0.215
'[09:20:14.367]',-0.205
'[09:20:14.375]',-0.265
'[09:20:14.383]',-0.175
'[09:20:14.391]',-0.155
'[09:20:14.398]',-0.255
'[09:20:14.406]',-0.165
'[09:20:14.414]',-0.195
'[09:20:14.422]',-0.195
'[09:20:14.430]',-0.155
'[09:20:14.438]',-0.135
'[09:20:14.445]',-0.105
'[09:20:14.453]',-0.125
'[09:20:14.461]',-0.155
'[09:20:14.469]',-0.115
'[09:20:14.477]',-0.115
'[09:20:14.484]',-0.135
'[09:20:14.492]',-0.095
'[09:20:14.500]',-0.105
'[09:20:14.508]',-0.085
'[09:20:14.516]',-0.105
'[09:20:14.523]',-0.135
'[09:20:14.531]',-0.125
'[09:20:14.539]',-0.115
'[09:20:14.547]',-0.115
'[09:20:14.555]',-0.055
'[09:20:14.563]',-0.055
'[09:20:14.570]',-0.045
'[09:20:14.578]',-0.055
'[09:20:14.586]',-0.065
'[09:20:14.594]',-0.075
'[09:20:14.602]',-0.055
'[09:20:14.609]',-0.055
'[09:20:14.617]',-0.065
'[09:20:14.625]',-0.065
'[09:20:14.633]',-0.075
'[09:20:14.641]',-0.105
'[09:20:14.648]',-0.055
'[09:20:14.656]',-0.055
'[09:20:14.664]',-0.075
'[09:20:14.672]',-0.095
'[09:20:14.680]',-0.005
'[09:20:14.688]',-0.015
'[09:20:14.695]',0.025
'[09:20:14.703]',-0.025
'[09:20:14.711]',-0.005
'[09:20:14.719]',-0.025
'[09:20:14.727]',-0.015
'[09:20:14.734]',0.025
'[09:20:14.742]',0.015
'[09:20:14.750]',-0.045
'[09:20:14.758]',-0.015
'[09:20:14.766]',-0.015
'[09:20:14.773]',-0.025
'[09:20:14.781]',-0.035
'[09:20:14.789]',-0.025
'[09:20:14.797]',-0.035
'[09:20:14.805]',-0.095
'[09:20:14.813]',-0.065
'[09:20:14.820]',-0.055
'[09:20:14.828]',-0.045
'[09:20:14.836]',-0.085
'[09:20:14.844]',-0.085
'[09:20:14.852]',-0.025
'[09:20:14.859]',0.015
'[09:20:14.867]',0.045
'[09:20:14.875]',0.005
'[09:20:14.883]',0.055
'[09:20:14.891]',0.115
'[09:20:14.898]',0.145
'[09:20:14.906]',0.035
'[09:20:14.914]',0.055
'[09:20:14.922]',0.055
'[09:20:14.930]',-0.105
'[09:20:14.938]',-0.055
'[09:20:14.945]',-0.085
'[09:20:14.953]',-0.175
'[09:20:14.961]',-0.115
'[09:20:14.969]',-0.105
'[09:20:14.977]',-0.145
'[09:20:14.984]',-0.065
'[09:20:14.992]',0.645
'[09:20:15.000]',1475
'[09:20:15.008]',2305
'[09:20:15.016]',2005
'[09:20:15.023]',0.395
'[09:20:15.031]',-0.785
'[09:20:15.039]',-0.705
'[09:20:15.047]',-0.415
'[09:20:15.055]',-0.305
'[09:20:15.063]',-0.235
'[09:20:15.070]',-0.225
'[09:20:15.078]',-0.255
'[09:20:15.086]',-0.215
'[09:20:15.094]',-0.215
'[09:20:15.102]',-0.215
'[09:20:15.109]',-0.215
'[09:20:15.117]',-0.195
'[09:20:15.125]',-0.205
'[09:20:15.133]',-0.195
'[09:20:15.141]',-0.195
'[09:20:15.148]',-0.165
'[09:20:15.156]',-0.175
'[09:20:15.164]',-0.165
'[09:20:15.172]',-0.175
'[09:20:15.180]',-0.165
'[09:20:15.188]',-0.145
'[09:20:15.195]',-0.145
'[09:20:15.203]',-0.145
'[09:20:15.211]',-0.125
'[09:20:15.219]',-0.125
'[09:20:15.227]',-0.135
'[09:20:15.234]',-0.135
'[09:20:15.242]',-0.125
'[09:20:15.250]',-0.125
'[09:20:15.258]',-0.125
'[09:20:15.266]',-0.125
'[09:20:15.273]',-0.105
'[09:20:15.281]',-0.095
'[09:20:15.289]',-0.075
'[09:20:15.297]',-0.075
'[09:20:15.305]',-0.065
'[09:20:15.313]',-0.045
'[09:20:15.320]',-0.055
'[09:20:15.328]',-0.055
'[09:20:15.336]',-0.055
'[09:20:15.344]',-0.075
'[09:20:15.352]',-0.065
'[09:20:15.359]',-0.075
'[09:20:15.367]',-0.075
'[09:20:15.375]',-0.085
'[09:20:15.383]',-0.105
'[09:20:15.391]',-0.095
'[09:20:15.398]',-0.095
'[09:20:15.406]',-0.105
'[09:20:15.414]',-0.025
'[09:20:15.422]',-0.035
'[09:20:15.430]',-0.075
'[09:20:15.438]',-0.045
'[09:20:15.445]',0.005
'[09:20:15.453]',-0.015
'[09:20:15.461]',-0.065
'[09:20:15.469]',-0.025
'[09:20:15.477]',-0.025
'[09:20:15.484]',-0.015
'[09:20:15.492]',-0.025
'[09:20:15.500]',-0.025
'[09:20:15.508]',-0.035
'[09:20:15.516]',-0.065
'[09:20:15.523]',-0.055
'[09:20:15.531]',-0.075
'[09:20:15.539]',-0.075
'[09:20:15.547]',-0.085
'[09:20:15.555]',-0.075
'[09:20:15.563]',-0.065
'[09:20:15.570]',-0.055
'[09:20:15.578]',-0.015
'[09:20:15.586]',-0.005
'[09:20:15.594]',-0.005
'[09:20:15.602]',0.025
'[09:20:15.609]',0.095
'[09:20:15.617]',0.055
'[09:20:15.625]',0.035
'[09:20:15.633]',0.045
'[09:20:15.641]',-0.015
'[09:20:15.648]',-0.085
'[09:20:15.656]',-0.105
'[09:20:15.664]',-0.155
'[09:20:15.672]',-0.195
'[09:20:15.680]',-0.075
'[09:20:15.688]',-0.095
'[09:20:15.695]',-0.185
'[09:20:15.703]',0.135
'[09:20:15.711]',0.935
'[09:20:15.719]',1795
'[09:20:15.727]',2365
'[09:20:15.734]',1265
'[09:20:15.742]',-0.435
'[09:20:15.750]',-0.795
'[09:20:15.758]',-0.615
'[09:20:15.766]',-0.395
'[09:20:15.773]',-0.285
'[09:20:15.781]',-0.275
'[09:20:15.789]',-0.305
'[09:20:15.797]',-0.255
'[09:20:15.805]',-0.255
'[09:20:15.813]',-0.245
'[09:20:15.820]',-0.265
'[09:20:15.828]',-0.265
'[09:20:15.836]',-0.245
'[09:20:15.844]',-0.245
'[09:20:15.852]',-0.265
'[09:20:15.859]',-0.235
'[09:20:15.867]',-0.175
'[09:20:15.875]',-0.155
'[09:20:15.883]',-0.185
'[09:20:15.891]',-0.175
'[09:20:15.898]',-0.185
'[09:20:15.906]',-0.185
'[09:20:15.914]',-0.145
'[09:20:15.922]',-0.145
'[09:20:15.930]',-0.145
'[09:20:15.938]',-0.125
'[09:20:15.945]',-0.145
'[09:20:15.953]',-0.155
'[09:20:15.961]',-0.155
'[09:20:15.969]',-0.175
'[09:20:15.977]',-0.155
'[09:20:15.984]',-0.145
'[09:20:15.992]',-0.165
'[09:20:16.000]',-0.075
'[09:20:16.008]',-0.065
'[09:20:16.016]',-0.085
'[09:20:16.023]',-0.095
'[09:20:16.031]',-0.085
'[09:20:16.039]',-0.115
'[09:20:16.047]',-0.125
'[09:20:16.055]',-0.115
'[09:20:16.063]',-0.025
'[09:20:16.070]',-0.045
'[09:20:16.078]',-0.095
'[09:20:16.086]',-0.095
'[09:20:16.094]',-0.115
'[09:20:16.102]',-0.085
'[09:20:16.109]',-0.125
'[09:20:16.117]',-0.075
'[09:20:16.125]',-0.065
'[09:20:16.133]',-0.065
'[09:20:16.141]',-0.065
'[09:20:16.148]',-0.055
'[09:20:16.156]',-0.115
'[09:20:16.164]',-0.055
'[09:20:16.172]',-0.025
'[09:20:16.180]',-0.015
'[09:20:16.188]',-0.015
'[09:20:16.195]',-0.025
'[09:20:16.203]',-0.065
'[09:20:16.211]',-0.065
'[09:20:16.219]',-0.055
'[09:20:16.227]',-0.055
'[09:20:16.234]',-0.065
'[09:20:16.242]',-0.045
'[09:20:16.250]',-0.055
'[09:20:16.258]',-0.065
'[09:20:16.266]',-0.085
'[09:20:16.273]',-0.055
'[09:20:16.281]',-0.025
'[09:20:16.289]',-0.005
'[09:20:16.297]',-0.015
'[09:20:16.305]',0.055
'[09:20:16.313]',0.045
'[09:20:16.320]',0.135
'[09:20:16.328]',0.115
'[09:20:16.336]',0.025
'[09:20:16.344]',0.005
'[09:20:16.352]',-0.055
'[09:20:16.359]',-0.085
'[09:20:16.367]',-0.155
'[09:20:16.375]',-0.105
'[09:20:16.383]',-0.115
'[09:20:16.391]',-0.105
'[09:20:16.398]',-0.185
'[09:20:16.406]',-0.065
'[09:20:16.414]',0.655
'[09:20:16.422]',1455
'[09:20:16.430]',2285
'[09:20:16.438]',1935
'[09:20:16.445]',0.245
'[09:20:16.453]',-0.825
'[09:20:16.461]',-0.725
'[09:20:16.469]',-0.505
'[09:20:16.477]',-0.335
'[09:20:16.484]',-0.255
'[09:20:16.492]',-0.225
'[09:20:16.500]',-0.205
'[09:20:16.508]',-0.205
'[09:20:16.516]',-0.205
'[09:20:16.523]',-0.195
'[09:20:16.531]',-0.185
'[09:20:16.539]',-0.185
'[09:20:16.547]',-0.185
'[09:20:16.555]',-0.165
'[09:20:16.563]',-0.145
'[09:20:16.570]',-0.145
'[09:20:16.578]',-0.145
'[09:20:16.586]',-0.115
'[09:20:16.594]',-0.115
'[09:20:16.602]',-0.115
'[09:20:16.609]',-0.155
'[09:20:16.617]',-0.105
'[09:20:16.625]',-0.035
'[09:20:16.633]',-0.065
'[09:20:16.641]',-0.055
'[09:20:16.648]',-0.075
'[09:20:16.656]',-0.045
'[09:20:16.664]',-0.065
'[09:20:16.672]',-0.065
'[09:20:16.680]',-0.095
'[09:20:16.688]',-0.085
'[09:20:16.695]',-0.025
'[09:20:16.703]',-0.065
'[09:20:16.711]',-0.025
'[09:20:16.719]',0.005
'[09:20:16.727]',-0.015
'[09:20:16.734]',-0.045
'[09:20:16.742]',-0.035
'[09:20:16.750]',-0.055
'[09:20:16.758]',-0.035
'[09:20:16.766]',-0.075
'[09:20:16.773]',-0.085
'[09:20:16.781]',-0.045
'[09:20:16.789]',-0.065
'[09:20:16.797]',-0.075
'[09:20:16.805]',-0.055
'[09:20:16.813]',-0.055
'[09:20:16.820]',-0.025
'[09:20:16.828]',-0.035
'[09:20:16.836]',-0.065
'[09:20:16.844]',-0.035
'[09:20:16.852]',-0.055
'[09:20:16.859]',-0.025
'[09:20:16.867]',-0.025
'[09:20:16.875]',-0.015
'[09:20:16.883]',-0.015
'[09:20:16.891]',-0.055
'[09:20:16.898]',-0.035
'[09:20:16.906]',-0.025
'[09:20:16.914]',-0.035
'[09:20:16.922]',-0.075
'[09:20:16.930]',-0.055
'[09:20:16.938]',-0.025
'[09:20:16.945]',-0.055
'[09:20:16.953]',-0.065
'[09:20:16.961]',-0.055
'[09:20:16.969]',-0.055
'[09:20:16.977]',-0.025
'[09:20:16.984]',-0.005
'[09:20:16.992]',0.005
'[09:20:17.000]',0.035
'[09:20:17.008]',0.075
'[09:20:17.016]',0.125
'[09:20:17.023]',0.055
'[09:20:17.031]',0.015
'[09:20:17.039]',-0.005
'[09:20:17.047]',-0.085
'[09:20:17.055]',-0.125
'[09:20:17.063]',-0.125
'[09:20:17.070]',-0.135
'[09:20:17.078]',-0.125
'[09:20:17.086]',-0.105
'[09:20:17.094]',-0.175
'[09:20:17.102]',-0.015
'[09:20:17.109]',0.615
'[09:20:17.117]',1375
'[09:20:17.125]',2175
'[09:20:17.133]',1825
'[09:20:17.141]',0.245
'[09:20:17.148]',-0.725
'[09:20:17.156]',-0.735
'[09:20:17.164]',-0.575
'[09:20:17.172]',-0.415
'[09:20:17.180]',-0.315
'[09:20:17.188]',-0.215
'[09:20:17.195]',-0.215
'[09:20:17.203]',-0.235
'[09:20:17.211]',-0.235
'[09:20:17.219]',-0.245
'[09:20:17.227]',-0.225
'[09:20:17.234]',-0.235
'[09:20:17.242]',-0.245
'[09:20:17.250]',-0.205
'[09:20:17.258]',-0.175
'[09:20:17.266]',-0.215
'[09:20:17.273]',-0.175
'[09:20:17.281]',-0.175
'[09:20:17.289]',-0.185
'[09:20:17.297]',-0.165
'[09:20:17.305]',-0.145
'[09:20:17.313]',-0.145
'[09:20:17.320]',-0.125
'[09:20:17.328]',-0.125
'[09:20:17.336]',-0.125
'[09:20:17.344]',-0.145
'[09:20:17.352]',-0.145
'[09:20:17.359]',-0.105
'[09:20:17.367]',-0.105
'[09:20:17.375]',-0.105
'[09:20:17.383]',-0.125
'[09:20:17.391]',-0.135
'[09:20:17.398]',-0.075
'[09:20:17.406]',-0.075
'[09:20:17.414]',-0.055
'[09:20:17.422]',-0.095
'[09:20:17.430]',-0.115
'[09:20:17.438]',-0.105
'[09:20:17.445]',-0.085
'[09:20:17.453]',-0.115
'[09:20:17.461]',-0.105
'[09:20:17.469]',-0.155
'[09:20:17.477]',-0.125
'[09:20:17.484]',-0.135
'[09:20:17.492]',-0.145
'[09:20:17.500]',-0.115
'[09:20:17.508]',-0.135
'[09:20:17.516]',-0.115
'[09:20:17.523]',-0.115
'[09:20:17.531]',-0.105
'[09:20:17.539]',-0.115
'[09:20:17.547]',-0.095
'[09:20:17.555]',-0.095
'[09:20:17.563]',-0.055
'[09:20:17.570]',-0.045
'[09:20:17.578]',-0.065
'[09:20:17.586]',-0.055
'[09:20:17.594]',-0.075
'[09:20:17.602]',-0.055
'[09:20:17.609]',-0.035
'[09:20:17.617]',-0.045
'[09:20:17.625]',-0.075
'[09:20:17.633]',-0.075
'[09:20:17.641]',-0.075
'[09:20:17.648]',-0.065
'[09:20:17.656]',-0.015
'[09:20:17.664]',-0.025
'[09:20:17.672]',-0.025
'[09:20:17.680]',0.015
'[09:20:17.688]',0.125
'[09:20:17.695]',0.125
'[09:20:17.703]',0.035
'[09:20:17.711]',0.025
'[09:20:17.719]',-0.035
'[09:20:17.727]',-0.105
'[09:20:17.734]',-0.145
'[09:20:17.742]',-0.155
'[09:20:17.750]',-0.145
'[09:20:17.758]',-0.135
'[09:20:17.766]',-0.165
'[09:20:17.773]',-0.165
'[09:20:17.781]',-0.095
'[09:20:17.789]',0.515
'[09:20:17.797]',1335
'[09:20:17.805]',2305
'[09:20:17.813]',2265
'[09:20:17.820]',0.485
'[09:20:17.828]',-0.865
'[09:20:17.836]',-0.795
'[09:20:17.844]',-0.595
'[09:20:17.852]',-0.405
'[09:20:17.859]',-0.285
'[09:20:17.867]',-0.215
'[09:20:17.875]',-0.225
'[09:20:17.883]',-0.245
'[09:20:17.891]',-0.225
'[09:20:17.898]',-0.245
'[09:20:17.906]',-0.255
'[09:20:17.914]',-0.195
'[09:20:17.922]',-0.175
'[09:20:17.930]',-0.185
'[09:20:17.938]',-0.155
'[09:20:17.945]',-0.195
'[09:20:17.953]',-0.215
'[09:20:17.961]',-0.145
'[09:20:17.969]',-0.155
'[09:20:17.977]',-0.145
'[09:20:17.984]',-0.145
'[09:20:17.992]',-0.115
'[09:20:18.000]',-0.115
'[09:20:18.008]',-0.105
'[09:20:18.016]',-0.105
'[09:20:18.023]',-0.075
'[09:20:18.031]',-0.085
'[09:20:18.039]',-0.075
'[09:20:18.047]',-0.075
'[09:20:18.055]',-0.055
'[09:20:18.063]',-0.025
'[09:20:18.070]',-0.025
'[09:20:18.078]',-0.045
'[09:20:18.086]',-0.035
'[09:20:18.094]',-0.045
'[09:20:18.102]',-0.045
'[09:20:18.109]',-0.085
'[09:20:18.117]',-0.075
'[09:20:18.125]',-0.065
'[09:20:18.133]',-0.105
'[09:20:18.141]',-0.105
'[09:20:18.148]',-0.135
'[09:20:18.156]',-0.075
'[09:20:18.164]',-0.075
'[09:20:18.172]',-0.125
'[09:20:18.180]',-0.075
'[09:20:18.188]',-0.065
'[09:20:18.195]',-0.085
'[09:20:18.203]',-0.115
'[09:20:18.211]',-0.095
'[09:20:18.219]',-0.065
'[09:20:18.227]',-0.145
'[09:20:18.234]',-0.035
'[09:20:18.242]',-0.035
'[09:20:18.250]',-0.045
'[09:20:18.258]',-0.025
'[09:20:18.266]',-0.035
'[09:20:18.273]',-0.025
'[09:20:18.281]',-0.055
'[09:20:18.289]',-0.065
'[09:20:18.297]',-0.055
'[09:20:18.305]',-0.045
'[09:20:18.313]',-0.025
'[09:20:18.320]',-0.035
'[09:20:18.328]',-0.065
'[09:20:18.336]',-0.085
'[09:20:18.344]',-0.085
'[09:20:18.352]',-0.035
'[09:20:18.359]',-0.025
'[09:20:18.367]',0.025
'[09:20:18.375]',0.025
'[09:20:18.383]',0.005
'[09:20:18.391]',0.025
'[09:20:18.398]',0.065
'[09:20:18.406]',0.105
'[09:20:18.414]',0.045
'[09:20:18.422]',0.055
'[09:20:18.430]',-0.015
'[09:20:18.438]',-0.065
'[09:20:18.445]',-0.065
'[09:20:18.453]',-0.155
'[09:20:18.461]',-0.135
'[09:20:18.469]',-0.125
'[09:20:18.477]',-0.135
'[09:20:18.484]',-0.185
'[09:20:18.492]',0.045
'[09:20:18.500]',0.635
'[09:20:18.508]',1525
'[09:20:18.516]',2395
'[09:20:18.523]',1785
'[09:20:18.531]',-0.075
'[09:20:18.539]',-0.905
'[09:20:18.547]',-0.735
'[09:20:18.555]',-0.455
'[09:20:18.563]',-0.285
'[09:20:18.570]',-0.225
'[09:20:18.578]',-0.225
'[09:20:18.586]',-0.225
'[09:20:18.594]',-0.205
'[09:20:18.602]',-0.225
'[09:20:18.609]',-0.235
'[09:20:18.617]',-0.185
'[09:20:18.625]',-0.155
'[09:20:18.633]',-0.145
'[09:20:18.641]',-0.175
'[09:20:18.648]',-0.165
'[09:20:18.656]',-0.185
'[09:20:18.664]',-0.125
'[09:20:18.672]',-0.155
'[09:20:18.680]',-0.125
'[09:20:18.688]',-0.125
'[09:20:18.695]',-0.105
'[09:20:18.703]',-0.115
'[09:20:18.711]',-0.075
'[09:20:18.719]',-0.075
'[09:20:18.727]',-0.035
'[09:20:18.734]',-0.045
'[09:20:18.742]',-0.005
'[09:20:18.750]',-0.025
'[09:20:18.758]',0.005
'[09:20:18.766]',0.015
'[09:20:18.773]',0.015
'[09:20:18.781]',0.005
'[09:20:18.789]',0.025
'[09:20:18.797]',0.035
'[09:20:18.805]',-0.005
'[09:20:18.813]',-0.005
'[09:20:18.820]',-0.015
'[09:20:18.828]',-0.065
'[09:20:18.836]',-0.055
'[09:20:18.844]',-0.055
'[09:20:18.852]',-0.085
'[09:20:18.859]',-0.065
'[09:20:18.867]',-0.035
'[09:20:18.875]',-0.045
'[09:20:18.883]',-0.055
'[09:20:18.891]',-0.075
'[09:20:18.898]',-0.075
'[09:20:18.906]',-0.105
'[09:20:18.914]',-0.075
'[09:20:18.922]',-0.085
'[09:20:18.930]',-0.065
'[09:20:18.938]',-0.045
'[09:20:18.945]',-0.055
'[09:20:18.953]',-0.055
'[09:20:18.961]',-0.045
'[09:20:18.969]',-0.065
'[09:20:18.977]',-0.055
'[09:20:18.984]',-0.055
'[09:20:18.992]',-0.035
'[09:20:19.000]',-0.025
'[09:20:19.008]',-0.025
'[09:20:19.016]',-0.035
'[09:20:19.023]',-0.035
'[09:20:19.031]',-0.045
'[09:20:19.039]',-0.045
'[09:20:19.047]',-0.045
'[09:20:19.055]',-0.035
'[09:20:19.063]',-0.055
'[09:20:19.070]',-0.055
'[09:20:19.078]',-0.055
'[09:20:19.086]',-0.055
'[09:20:19.094]',-0.055
'[09:20:19.102]',-0.005
'[09:20:19.109]',0.005
'[09:20:19.117]',0.025
'[09:20:19.125]',0.015
'[09:20:19.133]',0.085
'[09:20:19.141]',0.145
'[09:20:19.148]',0.135
'[09:20:19.156]',0.075
'[09:20:19.164]',0.045
'[09:20:19.172]',-0.015
'[09:20:19.180]',-0.075
'[09:20:19.188]',-0.035
'[09:20:19.195]',-0.115
'[09:20:19.203]',-0.135
'[09:20:19.211]',-0.125
'[09:20:19.219]',-0.095
'[09:20:19.227]',-0.145
'[09:20:19.234]',-0.025
'[09:20:19.242]',0.585
'[09:20:19.250]',1465
'[09:20:19.258]',2355
'[09:20:19.266]',1775
'[09:20:19.273]',-0.075
'[09:20:19.281]',-0.915
'[09:20:19.289]',-0.715
'[09:20:19.297]',-0.435
'[09:20:19.305]',-0.295
'[09:20:19.313]',-0.265
'[09:20:19.320]',-0.225
'[09:20:19.328]',-0.225
'[09:20:19.336]',-0.215
'[09:20:19.344]',-0.265
'[09:20:19.352]',-0.225
'[09:20:19.359]',-0.185
'[09:20:19.367]',-0.175
'[09:20:19.375]',-0.185
'[09:20:19.383]',-0.195
'[09:20:19.391]',-0.195
'[09:20:19.398]',-0.165
'[09:20:19.406]',-0.185
'[09:20:19.414]',-0.165
'[09:20:19.422]',-0.155
'[09:20:19.430]',-0.155
'[09:20:19.438]',-0.135
'[09:20:19.445]',-0.145
'[09:20:19.453]',-0.125
'[09:20:19.461]',-0.075
'[09:20:19.469]',-0.125
'[09:20:19.477]',-0.075
'[09:20:19.484]',-0.075
'[09:20:19.492]',-0.075
'[09:20:19.500]',-0.065
'[09:20:19.508]',-0.035
'[09:20:19.516]',-0.065
'[09:20:19.523]',-0.015
'[09:20:19.531]',-0.055
'[09:20:19.539]',0.005
'[09:20:19.547]',-0.035
'[09:20:19.555]',-0.085
'[09:20:19.563]',-0.015
'[09:20:19.570]',-0.025
'[09:20:19.578]',-0.075
'[09:20:19.586]',-0.085
'[09:20:19.594]',-0.115
'[09:20:19.602]',-0.065
'[09:20:19.609]',-0.065
'[09:20:19.617]',-0.095
'[09:20:19.625]',-0.045
'[09:20:19.633]',-0.075
'[09:20:19.641]',-0.115
'[09:20:19.648]',-0.105
'[09:20:19.656]',-0.095
'[09:20:19.664]',-0.065
'[09:20:19.672]',-0.055
'[09:20:19.680]',-0.045
'[09:20:19.688]',-0.025
'[09:20:19.695]',-0.045
'[09:20:19.703]',-0.055
'[09:20:19.711]',-0.025
'[09:20:19.719]',-0.035
'[09:20:19.727]',-0.025
'[09:20:19.734]',-0.035
'[09:20:19.742]',-0.015
'[09:20:19.750]',-0.005
'[09:20:19.758]',-0.005
'[09:20:19.766]',-0.005
'[09:20:19.773]',-0.005
'[09:20:19.781]',-0.005
'[09:20:19.789]',-0.025
'[09:20:19.797]',-0.045
'[09:20:19.805]',-0.025
'[09:20:19.813]',0.005
'[09:20:19.820]',0.025
'[09:20:19.828]',0.015
'[09:20:19.836]',0.035
'[09:20:19.844]',0.055
'[09:20:19.852]',0.105
'[09:20:19.859]',0.095
'[09:20:19.867]',0.075
'[09:20:19.875]',0.055
'[09:20:19.883]',0.045
'[09:20:19.891]',-0.045
'[09:20:19.898]',-0.045
'[09:20:19.906]',-0.075
'[09:20:19.914]',-0.085
'[09:20:19.922]',-0.095
'[09:20:19.930]',-0.075
'[09:20:19.938]',-0.095
'[09:20:19.945]',-0.115
'[09:20:19.953]',0.295
'[09:20:19.961]',1005
'[09:20:19.969]',1845
'[09:20:19.977]',2185
'[09:20:19.984]',0.815
'[09:20:19.992]',-0.545
'[09:20:20.000]',-0.705
'[09:20:20.008]',-0.535
'[09:20:20.016]',-0.365
'[09:20:20.023]',-0.245
'[09:20:20.031]',-0.205
'[09:20:20.039]',-0.195
'[09:20:20.047]',-0.195
'[09:20:20.055]',-0.175
'[09:20:20.063]',-0.155
'[09:20:20.070]',-0.165
'[09:20:20.078]',-0.165
'[09:20:20.086]',-0.155
'[09:20:20.094]',-0.155
'[09:20:20.102]',-0.155
'[09:20:20.109]',-0.145
'[09:20:20.117]',-0.115
'[09:20:20.125]',-0.115
'[09:20:20.133]',-0.105
'[09:20:20.141]',-0.115
'[09:20:20.148]',-0.095
'[09:20:20.156]',-0.105
'[09:20:20.164]',-0.065
'[09:20:20.172]',-0.065
'[09:20:20.180]',-0.035
'[09:20:20.188]',-0.025
'[09:20:20.195]',-0.015
'[09:20:20.203]',-0.015
'[09:20:20.211]',-0.005
'[09:20:20.219]',-0.005
'[09:20:20.227]',0.005
'[09:20:20.234]',0.005
'[09:20:20.242]',0.025
'[09:20:20.250]',0.035
'[09:20:20.258]',0.015
'[09:20:20.266]',0.005
'[09:20:20.273]',-0.015
'[09:20:20.281]',-0.035
'[09:20:20.289]',-0.045
'[09:20:20.297]',-0.045
'[09:20:20.305]',-0.065
'[09:20:20.313]',-0.055
'[09:20:20.320]',-0.065
'[09:20:20.328]',-0.065
'[09:20:20.336]',-0.065
'[09:20:20.344]',-0.085
'[09:20:20.352]',-0.085
'[09:20:20.359]',-0.085
'[09:20:20.367]',-0.085
'[09:20:20.375]',-0.065
'[09:20:20.383]',-0.065
'[09:20:20.391]',-0.065
'[09:20:20.398]',-0.045
'[09:20:20.406]',-0.065
'[09:20:20.414]',-0.035
'[09:20:20.422]',-0.055
'[09:20:20.430]',-0.035
'[09:20:20.438]',-0.035
'[09:20:20.445]',-0.025
'[09:20:20.453]',-0.035
'[09:20:20.461]',-0.025
'[09:20:20.469]',-0.045
'[09:20:20.477]',-0.045
'[09:20:20.484]',-0.055
'[09:20:20.492]',-0.055
'[09:20:20.500]',-0.055
'[09:20:20.508]',-0.065
'[09:20:20.516]',-0.065
'[09:20:20.523]',-0.025
'[09:20:20.531]',0.005
'[09:20:20.539]',0.035
'[09:20:20.547]',0.035
'[09:20:20.555]',0.065
'[09:20:20.563]',0.125
'[09:20:20.570]',0.145
'[09:20:20.578]',0.055
'[09:20:20.586]',0.035
'[09:20:20.594]',0.005
'[09:20:20.602]',-0.085
'[09:20:20.609]',-0.095
'[09:20:20.617]',-0.115
'[09:20:20.625]',-0.135
'[09:20:20.633]',-0.125
'[09:20:20.641]',-0.115
'[09:20:20.648]',-0.155
'[09:20:20.656]',-0.155
'[09:20:20.664]',0.385
'[09:20:20.672]',1195
'[09:20:20.680]',2125
'[09:20:20.688]',2525
'[09:20:20.695]',0.865
'[09:20:20.703]',-0.795
'[09:20:20.711]',-0.855
'[09:20:20.719]',-0.555
'[09:20:20.727]',-0.365
'[09:20:20.734]',-0.275
'[09:20:20.742]',-0.245
'[09:20:20.750]',-0.225
'[09:20:20.758]',-0.245
'[09:20:20.766]',-0.245
'[09:20:20.773]',-0.235
'[09:20:20.781]',-0.235
'[09:20:20.789]',-0.215
'[09:20:20.797]',-0.215
'[09:20:20.805]',-0.205
'[09:20:20.813]',-0.185
'[09:20:20.820]',-0.195
'[09:20:20.828]',-0.195
'[09:20:20.836]',-0.185
'[09:20:20.844]',-0.185
'[09:20:20.852]',-0.165
'[09:20:20.859]',-0.155
'[09:20:20.867]',-0.145
'[09:20:20.875]',-0.125
'[09:20:20.883]',-0.105
'[09:20:20.891]',-0.115
'[09:20:20.898]',-0.085
'[09:20:20.906]',-0.095
'[09:20:20.914]',-0.065
'[09:20:20.922]',-0.065
'[09:20:20.930]',-0.055
'[09:20:20.938]',-0.025
'[09:20:20.945]',-0.025
'[09:20:20.953]',-0.025
'[09:20:20.961]',-0.015
'[09:20:20.969]',-0.035
'[09:20:20.977]',-0.035
'[09:20:20.984]',-0.065
'[09:20:20.992]',-0.065
'[09:20:21.000]',-0.065
'[09:20:21.008]',-0.085
'[09:20:21.016]',-0.095
'[09:20:21.023]',-0.085
'[09:20:21.031]',-0.105
'[09:20:21.039]',-0.105
'[09:20:21.047]',-0.115
'[09:20:21.055]',-0.095
'[09:20:21.063]',-0.085
'[09:20:21.070]',-0.095
'[09:20:21.078]',-0.105
'[09:20:21.086]',-0.105
'[09:20:21.094]',-0.115
'[09:20:21.102]',-0.105
'[09:20:21.109]',-0.105
'[09:20:21.117]',-0.105
'[09:20:21.125]',-0.075
'[09:20:21.133]',-0.095
'[09:20:21.141]',-0.095
'[09:20:21.148]',-0.085
'[09:20:21.156]',-0.095
'[09:20:21.164]',-0.075
'[09:20:21.172]',-0.085
'[09:20:21.180]',-0.085
'[09:20:21.188]',-0.075
'[09:20:21.195]',-0.085
'[09:20:21.203]',-0.095
'[09:20:21.211]',-0.085
'[09:20:21.219]',-0.105
'[09:20:21.227]',-0.095
'[09:20:21.234]',-0.105
'[09:20:21.242]',-0.095
'[09:20:21.250]',-0.075
'[09:20:21.258]',-0.105
'[09:20:21.266]',-0.105
'[09:20:21.273]',-0.075
'[09:20:21.281]',-0.025
'[09:20:21.289]',-0.015
'[09:20:21.297]',-0.005
'[09:20:21.305]',0.035
'[09:20:21.313]',0.115
'[09:20:21.320]',0.085
'[09:20:21.328]',0.015
'[09:20:21.336]',0.005
'[09:20:21.344]',-0.015
'[09:20:21.352]',-0.105
'[09:20:21.359]',-0.125
'[09:20:21.367]',-0.125
'[09:20:21.375]',-0.165
'[09:20:21.383]',-0.145
'[09:20:21.391]',-0.135
'[09:20:21.398]',-0.175
'[09:20:21.406]',-0.065
'[09:20:21.414]',0.565
'[09:20:21.422]',1415
'[09:20:21.430]',2365
'[09:20:21.438]',2125
'[09:20:21.445]',0.365
'[09:20:21.453]',-0.875
'[09:20:21.461]',-0.795
'[09:20:21.469]',-0.525
'[09:20:21.477]',-0.355
'[09:20:21.484]',-0.275
'[09:20:21.492]',-0.265
'[09:20:21.500]',-0.245
'[09:20:21.508]',-0.255
'[09:20:21.516]',-0.255
'[09:20:21.523]',-0.235
'[09:20:21.531]',-0.245
'[09:20:21.539]',-0.235
'[09:20:21.547]',-0.235
'[09:20:21.555]',-0.235
'[09:20:21.563]',-0.205
'[09:20:21.570]',-0.215
'[09:20:21.578]',-0.225
'[09:20:21.586]',-0.205
'[09:20:21.594]',-0.205
'[09:20:21.602]',-0.195
'[09:20:21.609]',-0.185
'[09:20:21.617]',-0.165
'[09:20:21.625]',-0.155
'[09:20:21.633]',-0.145
'[09:20:21.641]',-0.155
'[09:20:21.648]',-0.125
'[09:20:21.656]',-0.105
'[09:20:21.664]',-0.115
'[09:20:21.672]',-0.105
'[09:20:21.680]',-0.095
'[09:20:21.688]',-0.085
'[09:20:21.695]',-0.075
'[09:20:21.703]',-0.065
'[09:20:21.711]',-0.055
'[09:20:21.719]',-0.045
'[09:20:21.727]',-0.075
'[09:20:21.734]',-0.085
'[09:20:21.742]',-0.095
'[09:20:21.750]',-0.095
'[09:20:21.758]',-0.115
'[09:20:21.766]',-0.115
'[09:20:21.773]',-0.125
'[09:20:21.781]',-0.125
'[09:20:21.789]',-0.125
'[09:20:21.797]',-0.115
'[09:20:21.805]',-0.115
'[09:20:21.813]',-0.125
'[09:20:21.820]',-0.125
'[09:20:21.828]',-0.135
'[09:20:21.836]',-0.125
'[09:20:21.844]',-0.145
'[09:20:21.852]',-0.125
'[09:20:21.859]',-0.125
'[09:20:21.867]',-0.125
'[09:20:21.875]',-0.115
'[09:20:21.883]',-0.115
'[09:20:21.891]',-0.125
'[09:20:21.898]',-0.115
'[09:20:21.906]',-0.125
'[09:20:21.914]',-0.105
'[09:20:21.922]',-0.115
'[09:20:21.930]',-0.115
'[09:20:21.938]',-0.105
'[09:20:21.945]',-0.115
'[09:20:21.953]',-0.125
'[09:20:21.961]',-0.125
'[09:20:21.969]',-0.135
'[09:20:21.977]',-0.135
'[09:20:21.984]',-0.135
'[09:20:21.992]',-0.135
'[09:20:22.000]',-0.135
'[09:20:22.008]',-0.145
'[09:20:22.016]',-0.135
'[09:20:22.023]',-0.145
'[09:20:22.031]',-0.155
'[09:20:22.039]',-0.095
'[09:20:22.047]',-0.065
'[09:20:22.055]',-0.055
'[09:20:22.063]',-0.035
'[09:20:22.070]',-0.005
'[09:20:22.078]',0.065
'[09:20:22.086]',0.025
'[09:20:22.094]',-0.035
'[09:20:22.102]',-0.045
'[09:20:22.109]',-0.085
'[09:20:22.117]',-0.165
'[09:20:22.125]',-0.165
'[09:20:22.133]',-0.185
'[09:20:22.141]',-0.215
'[09:20:22.148]',-0.195
'[09:20:22.156]',-0.195
'[09:20:22.164]',-0.235
'[09:20:22.172]',-0.125
'[09:20:22.180]',0.485
'[09:20:22.188]',1275
'[09:20:22.195]',2215
'[09:20:22.203]',1975
'[09:20:22.211]',0.105
'[09:20:22.219]',-0.935
'[09:20:22.227]',-0.805
'[09:20:22.234]',-0.545
'[09:20:22.242]',-0.405
'[09:20:22.250]',-0.315
'[09:20:22.258]',-0.315
'[09:20:22.266]',-0.315
'[09:20:22.273]',-0.315
'[09:20:22.281]',-0.315
'[09:20:22.289]',-0.295
'[09:20:22.297]',-0.285
'[09:20:22.305]',-0.295
'[09:20:22.313]',-0.265
'[09:20:22.320]',-0.265
'[09:20:22.328]',-0.265
'[09:20:22.336]',-0.265
'[09:20:22.344]',-0.265
'[09:20:22.352]',-0.245
'[09:20:22.359]',-0.255
'[09:20:22.367]',-0.235
'[09:20:22.375]',-0.225
'[09:20:22.383]',-0.215
'[09:20:22.391]',-0.215
'[09:20:22.398]',-0.205
'[09:20:22.406]',-0.205
'[09:20:22.414]',-0.185
'[09:20:22.422]',-0.185
'[09:20:22.430]',-0.175
'[09:20:22.438]',-0.155
'[09:20:22.445]',-0.155
'[09:20:22.453]',-0.155
'[09:20:22.461]',-0.135
'[09:20:22.469]',-0.135
'[09:20:22.477]',-0.105
'[09:20:22.484]',-0.105
'[09:20:22.492]',-0.115
'[09:20:22.500]',-0.105
'[09:20:22.508]',-0.135
'[09:20:22.516]',-0.145
'[09:20:22.523]',-0.155
'[09:20:22.531]',-0.165
'[09:20:22.539]',-0.155
'[09:20:22.547]',-0.165
'[09:20:22.555]',-0.155
'[09:20:22.563]',-0.145
'[09:20:22.570]',-0.155
'[09:20:22.578]',-0.165
'[09:20:22.586]',-0.155
'[09:20:22.594]',-0.165
'[09:20:22.602]',-0.165
'[09:20:22.609]',-0.175
'[09:20:22.617]',-0.155
'[09:20:22.625]',-0.155
'[09:20:22.633]',-0.145
'[09:20:22.641]',-0.155
'[09:20:22.648]',-0.135
'[09:20:22.656]',-0.145
'[09:20:22.664]',-0.135
'[09:20:22.672]',-0.135
'[09:20:22.680]',-0.135
'[09:20:22.688]',-0.135
'[09:20:22.695]',-0.135
'[09:20:22.703]',-0.145
'[09:20:22.711]',-0.145
'[09:20:22.719]',-0.155
'[09:20:22.727]',-0.155
'[09:20:22.734]',-0.165
'[09:20:22.742]',-0.165
'[09:20:22.750]',-0.145
'[09:20:22.758]',-0.175
'[09:20:22.766]',-0.175
'[09:20:22.773]',-0.155
'[09:20:22.781]',-0.085
'[09:20:22.789]',-0.105
'[09:20:22.797]',-0.095
'[09:20:22.805]',-0.055
'[09:20:22.813]',0.005
'[09:20:22.820]',0.055
'[09:20:22.828]',-0.025
'[09:20:22.836]',-0.065
'[09:20:22.844]',-0.045
'[09:20:22.852]',-0.135
'[09:20:22.859]',-0.195
'[09:20:22.867]',-0.165
'[09:20:22.875]',-0.225
'[09:20:22.883]',-0.215
'[09:20:22.891]',-0.205
'[09:20:22.898]',-0.195
'[09:20:22.906]',-0.265
'[09:20:22.914]',0.255
'[09:20:22.922]',1095
'[09:20:22.930]',2185
'[09:20:22.938]',2055
'[09:20:22.945]',0.105
'[09:20:22.953]',-0.975
'[09:20:22.961]',-0.765
'[09:20:22.969]',-0.555
'[09:20:22.977]',-0.385
'[09:20:22.984]',-0.315
'[09:20:22.992]',-0.275
'[09:20:23.000]',-0.265
'[09:20:23.008]',-0.275
'[09:20:23.016]',-0.275
'[09:20:23.023]',-0.275
'[09:20:23.031]',-0.265
'[09:20:23.039]',-0.255
'[09:20:23.047]',-0.245
'[09:20:23.055]',-0.245
'[09:20:23.063]',-0.225
'[09:20:23.070]',-0.225
'[09:20:23.078]',-0.215
'[09:20:23.086]',-0.205
'[09:20:23.094]',-0.205
'[09:20:23.102]',-0.175
'[09:20:23.109]',-0.175
'[09:20:23.117]',-0.165
'[09:20:23.125]',-0.135
'[09:20:23.133]',-0.135
'[09:20:23.141]',-0.125
'[09:20:23.148]',-0.105
'[09:20:23.156]',-0.125
'[09:20:23.164]',-0.105
'[09:20:23.172]',-0.105
'[09:20:23.180]',-0.095
'[09:20:23.188]',-0.085
'[09:20:23.195]',-0.085
'[09:20:23.203]',-0.075
'[09:20:23.211]',-0.055
'[09:20:23.219]',-0.075
'[09:20:23.227]',-0.075
'[09:20:23.234]',-0.075
'[09:20:23.242]',-0.085
'[09:20:23.250]',-0.085
'[09:20:23.258]',-0.095
'[09:20:23.266]',-0.095
'[09:20:23.273]',-0.105
'[09:20:23.281]',-0.125
'[09:20:23.289]',-0.115
'[09:20:23.297]',-0.125
'[09:20:23.305]',-0.115
'[09:20:23.313]',-0.105
'[09:20:23.320]',-0.105
'[09:20:23.328]',-0.115
'[09:20:23.336]',-0.095
'[09:20:23.344]',-0.095
'[09:20:23.352]',-0.085
'[09:20:23.359]',-0.085
'[09:20:23.367]',-0.075
'[09:20:23.375]',-0.065
'[09:20:23.383]',-0.055
'[09:20:23.391]',-0.065
'[09:20:23.398]',-0.055
'[09:20:23.406]',-0.085
'[09:20:23.414]',-0.075
'[09:20:23.422]',-0.075
'[09:20:23.430]',-0.075
'[09:20:23.438]',-0.065
'[09:20:23.445]',-0.085
'[09:20:23.453]',-0.095
'[09:20:23.461]',-0.095
'[09:20:23.469]',-0.115
'[09:20:23.477]',-0.105
'[09:20:23.484]',-0.085
'[09:20:23.492]',-0.025
'[09:20:23.500]',0.015
'[09:20:23.508]',0.005
'[09:20:23.516]',0.025
'[09:20:23.523]',0.065
'[09:20:23.531]',0.115
'[09:20:23.539]',0.035
'[09:20:23.547]',-0.005
'[09:20:23.555]',0.005
'[09:20:23.563]',-0.065
'[09:20:23.570]',-0.125
'[09:20:23.578]',-0.135
'[09:20:23.586]',-0.175
'[09:20:23.594]',-0.165
'[09:20:23.602]',-0.145
'[09:20:23.609]',-0.165
'[09:20:23.617]',-0.175
'[09:20:23.625]',0.305
'[09:20:23.633]',1135
'[09:20:23.641]',2085
'[09:20:23.648]',2455
'[09:20:23.656]',0.805
'[09:20:23.664]',-0.855
'[09:20:23.672]',-0.935
'[09:20:23.680]',-0.565
'[09:20:23.688]',-0.345
'[09:20:23.695]',-0.275
'[09:20:23.703]',-0.265
'[09:20:23.711]',-0.255
'[09:20:23.719]',-0.275
'[09:20:23.727]',-0.255
'[09:20:23.734]',-0.245
'[09:20:23.742]',-0.245
'[09:20:23.750]',-0.225
'[09:20:23.758]',-0.235
'[09:20:23.766]',-0.235
'[09:20:23.773]',-0.225
'[09:20:23.781]',-0.225
'[09:20:23.789]',-0.215
'[09:20:23.797]',-0.205
'[09:20:23.805]',-0.195
'[09:20:23.813]',-0.175
'[09:20:23.820]',-0.165
'[09:20:23.828]',-0.175
'[09:20:23.836]',-0.165
'[09:20:23.844]',-0.165
'[09:20:23.852]',-0.145
'[09:20:23.859]',-0.125
'[09:20:23.867]',-0.115
'[09:20:23.875]',-0.115
'[09:20:23.883]',-0.105
'[09:20:23.891]',-0.115
'[09:20:23.898]',-0.105
'[09:20:23.906]',-0.115
'[09:20:23.914]',-0.075
'[09:20:23.922]',-0.085
'[09:20:23.930]',-0.065
'[09:20:23.938]',-0.065
'[09:20:23.945]',-0.075
'[09:20:23.953]',-0.095
'[09:20:23.961]',-0.095
'[09:20:23.969]',-0.125
'[09:20:23.977]',-0.115
'[09:20:23.984]',-0.125
'[09:20:23.992]',-0.115
'[09:20:24.000]',-0.105
'[09:20:24.008]',-0.125
'[09:20:24.016]',-0.125
'[09:20:24.023]',-0.135
'[09:20:24.031]',-0.135
'[09:20:24.039]',-0.125
'[09:20:24.047]',-0.135
'[09:20:24.055]',-0.115
'[09:20:24.063]',-0.095
'[09:20:24.070]',-0.105
'[09:20:24.078]',-0.105
'[09:20:24.086]',-0.095
'[09:20:24.094]',-0.095
'[09:20:24.102]',-0.095
'[09:20:24.109]',-0.095
'[09:20:24.117]',-0.095
'[09:20:24.125]',-0.085
'[09:20:24.133]',-0.095
'[09:20:24.141]',-0.105
'[09:20:24.148]',-0.095
'[09:20:24.156]',-0.105
'[09:20:24.164]',-0.115
'[09:20:24.172]',-0.115
'[09:20:24.180]',-0.105
'[09:20:24.188]',-0.105
'[09:20:24.195]',-0.105
'[09:20:24.203]',-0.115
'[09:20:24.211]',-0.085
'[09:20:24.219]',-0.025
'[09:20:24.227]',-0.025
'[09:20:24.234]',-0.025
'[09:20:24.242]',0.015
'[09:20:24.250]',0.095
'[09:20:24.258]',0.085
'[09:20:24.266]',0.015
'[09:20:24.273]',-0.015
'[09:20:24.281]',-0.055
'[09:20:24.289]',-0.145
'[09:20:24.297]',-0.125
'[09:20:24.305]',-0.175
'[09:20:24.313]',-0.175
'[09:20:24.320]',-0.165
'[09:20:24.328]',-0.145
'[09:20:24.336]',-0.255
'[09:20:24.344]',0.025
'[09:20:24.352]',0.855
'[09:20:24.359]',1815
'[09:20:24.367]',2525
'[09:20:24.375]',1485
'[09:20:24.383]',-0.515
'[09:20:24.391]',-0.955
'[09:20:24.398]',-0.625
'[09:20:24.406]',-0.425
'[09:20:24.414]',-0.295
'[09:20:24.422]',-0.265
'[09:20:24.430]',-0.275
'[09:20:24.438]',-0.275
'[09:20:24.445]',-0.275
'[09:20:24.453]',-0.285
'[09:20:24.461]',-0.265
'[09:20:24.469]',-0.275
'[09:20:24.477]',-0.255
'[09:20:24.484]',-0.255
'[09:20:24.492]',-0.255
'[09:20:24.500]',-0.235
'[09:20:24.508]',-0.235
'[09:20:24.516]',-0.235
'[09:20:24.523]',-0.215
'[09:20:24.531]',-0.235
'[09:20:24.539]',-0.225
'[09:20:24.547]',-0.205
'[09:20:24.555]',-0.205
'[09:20:24.563]',-0.195
'[09:20:24.570]',-0.195
'[09:20:24.578]',-0.175
'[09:20:24.586]',-0.245
'[09:20:24.594]',-0.185
'[09:20:24.602]',-0.155
'[09:20:24.609]',-0.145
'[09:20:24.617]',-0.165
'[09:20:24.625]',-0.155
'[09:20:24.633]',-0.115
'[09:20:24.641]',-0.145
'[09:20:24.648]',-0.105
'[09:20:24.656]',-0.125
'[09:20:24.664]',-0.115
'[09:20:24.672]',-0.105
'[09:20:24.680]',-0.085
'[09:20:24.688]',-0.125
'[09:20:24.695]',-0.125
'[09:20:24.703]',-0.125
'[09:20:24.711]',-0.135
'[09:20:24.719]',-0.145
'[09:20:24.727]',-0.135
'[09:20:24.734]',-0.135
'[09:20:24.742]',-0.135
'[09:20:24.750]',-0.115
'[09:20:24.758]',-0.115
'[09:20:24.766]',-0.125
'[09:20:24.773]',-0.115
'[09:20:24.781]',-0.105
'[09:20:24.789]',-0.095
'[09:20:24.797]',-0.105
'[09:20:24.805]',-0.095
'[09:20:24.813]',-0.085
'[09:20:24.820]',-0.085
'[09:20:24.828]',-0.095
'[09:20:24.836]',-0.085
'[09:20:24.844]',-0.085
'[09:20:24.852]',-0.105
'[09:20:24.859]',-0.085
'[09:20:24.867]',-0.085
'[09:20:24.875]',-0.075
'[09:20:24.883]',-0.095
'[09:20:24.891]',-0.105
'[09:20:24.898]',-0.105
'[09:20:24.906]',-0.085
'[09:20:24.914]',-0.055
'[09:20:24.922]',0.015
'[09:20:24.930]',-0.005
'[09:20:24.938]',0.005
'[09:20:24.945]',0.075
'[09:20:24.953]',0.115
'[09:20:24.961]',0.075
'[09:20:24.969]',0.025
'[09:20:24.977]',0.025
'[09:20:24.984]',-0.065
'[09:20:24.992]',-0.115
'[09:20:25.000]',-0.115
'[09:20:25.008]',-0.155
'[09:20:25.016]',-0.155
'[09:20:25.023]',-0.135
'[09:20:25.031]',-0.125
'[09:20:25.039]',-0.175
'[09:20:25.047]',0.265
'[09:20:25.055]',1065
'[09:20:25.063]',1915
'[09:20:25.070]',2285
'[09:20:25.078]',0.975
'[09:20:25.086]',-0.585
'[09:20:25.094]',-0.795
'[09:20:25.102]',-0.555
'[09:20:25.109]',-0.375
'[09:20:25.117]',-0.275
'[09:20:25.125]',-0.235
'[09:20:25.133]',-0.235
'[09:20:25.141]',-0.255
'[09:20:25.148]',-0.255
'[09:20:25.156]',-0.245
'[09:20:25.164]',-0.245
'[09:20:25.172]',-0.245
'[09:20:25.180]',-0.225
'[09:20:25.188]',-0.215
'[09:20:25.195]',-0.215
'[09:20:25.203]',-0.215
'[09:20:25.211]',-0.205
'[09:20:25.219]',-0.205
'[09:20:25.227]',-0.185
'[09:20:25.234]',-0.175
'[09:20:25.242]',-0.165
'[09:20:25.250]',-0.145
'[09:20:25.258]',-0.145
'[09:20:25.266]',-0.155
'[09:20:25.273]',-0.145
'[09:20:25.281]',-0.145
'[09:20:25.289]',-0.135
'[09:20:25.297]',-0.135
'[09:20:25.305]',-0.145
'[09:20:25.313]',-0.125
'[09:20:25.320]',-0.125
'[09:20:25.328]',-0.105
'[09:20:25.336]',-0.085
'[09:20:25.344]',-0.075
'[09:20:25.352]',-0.065
'[09:20:25.359]',-0.085
'[09:20:25.367]',-0.085
'[09:20:25.375]',-0.085
'[09:20:25.383]',-0.085
'[09:20:25.391]',-0.095
'[09:20:25.398]',-0.095
'[09:20:25.406]',-0.105
'[09:20:25.414]',-0.095
'[09:20:25.422]',-0.105
'[09:20:25.430]',-0.095
'[09:20:25.438]',-0.095
'[09:20:25.445]',-0.095
'[09:20:25.453]',-0.095
'[09:20:25.461]',-0.085
'[09:20:25.469]',-0.085
'[09:20:25.477]',-0.085
'[09:20:25.484]',-0.075
'[09:20:25.492]',-0.065
'[09:20:25.500]',-0.065
'[09:20:25.508]',-0.065
'[09:20:25.516]',-0.065
'[09:20:25.523]',-0.065
'[09:20:25.531]',-0.055
'[09:20:25.539]',-0.075
'[09:20:25.547]',-0.065
'[09:20:25.555]',-0.065
'[09:20:25.563]',-0.075
'[09:20:25.570]',-0.075
'[09:20:25.578]',-0.075
'[09:20:25.586]',-0.085
'[09:20:25.594]',-0.075
'[09:20:25.602]',-0.075
'[09:20:25.609]',-0.035
'[09:20:25.617]',0.005
'[09:20:25.625]',0.005
'[09:20:25.633]',0.035
'[09:20:25.641]',0.065
'[09:20:25.648]',0.105
'[09:20:25.656]',0.065
'[09:20:25.664]',0.025
'[09:20:25.672]',0.005
'[09:20:25.680]',-0.045
'[09:20:25.688]',-0.085
'[09:20:25.695]',-0.105
'[09:20:25.703]',-0.125
'[09:20:25.711]',-0.135
'[09:20:25.719]',-0.105
'[09:20:25.727]',-0.105
'[09:20:25.734]',-0.075
'[09:20:25.742]',0.375
'[09:20:25.750]',1105
'[09:20:25.758]',1815
'[09:20:25.766]',1905
'[09:20:25.773]',0.685
'[09:20:25.781]',-0.535
'[09:20:25.789]',-0.695
'[09:20:25.797]',-0.495
'[09:20:25.805]',-0.335
'[09:20:25.813]',-0.255
'[09:20:25.820]',-0.235
'[09:20:25.828]',-0.245
'[09:20:25.836]',-0.235
'[09:20:25.844]',-0.235
'[09:20:25.852]',-0.235
'[09:20:25.859]',-0.235
'[09:20:25.867]',-0.215
'[09:20:25.875]',-0.205
'[09:20:25.883]',-0.195
'[09:20:25.891]',-0.215
'[09:20:25.898]',-0.195
'[09:20:25.906]',-0.195
'[09:20:25.914]',-0.185
'[09:20:25.922]',-0.175
'[09:20:25.930]',-0.155
'[09:20:25.938]',-0.155
'[09:20:25.945]',-0.145
'[09:20:25.953]',-0.155
'[09:20:25.961]',-0.135
'[09:20:25.969]',-0.145
'[09:20:25.977]',-0.125
'[09:20:25.984]',-0.125
'[09:20:25.992]',-0.125
'[09:20:26.000]',-0.125
'[09:20:26.008]',-0.125
'[09:20:26.016]',-0.115
'[09:20:26.023]',-0.085
'[09:20:26.031]',-0.085
'[09:20:26.039]',-0.055
'[09:20:26.047]',-0.055
'[09:20:26.055]',-0.055
'[09:20:26.063]',-0.055
'[09:20:26.070]',-0.075
'[09:20:26.078]',-0.085
'[09:20:26.086]',-0.095
'[09:20:26.094]',-0.105
'[09:20:26.102]',-0.095
'[09:20:26.109]',-0.105
'[09:20:26.117]',-0.105
'[09:20:26.125]',-0.085
'[09:20:26.133]',-0.085
'[09:20:26.141]',-0.085
'[09:20:26.148]',-0.075
'[09:20:26.156]',-0.095
'[09:20:26.164]',-0.065
'[09:20:26.172]',-0.065
'[09:20:26.180]',-0.065
'[09:20:26.188]',-0.065
'[09:20:26.195]',-0.055
'[09:20:26.203]',-0.075
'[09:20:26.211]',-0.065
'[09:20:26.219]',-0.085
'[09:20:26.227]',-0.065
'[09:20:26.234]',-0.085
'[09:20:26.242]',-0.075
'[09:20:26.250]',-0.085
'[09:20:26.258]',-0.075
'[09:20:26.266]',-0.095
'[09:20:26.273]',-0.105
'[09:20:26.281]',-0.115
'[09:20:26.289]',-0.095
'[09:20:26.297]',-0.035
'[09:20:26.305]',-0.005
'[09:20:26.313]',0.005
'[09:20:26.320]',0.015
'[09:20:26.328]',0.045
'[09:20:26.336]',0.105
'[09:20:26.344]',0.035
'[09:20:26.352]',0.025
'[09:20:26.359]',0.015
'[09:20:26.367]',-0.055
'[09:20:26.375]',-0.115
'[09:20:26.383]',-0.135
'[09:20:26.391]',-0.185
'[09:20:26.398]',-0.185
'[09:20:26.406]',-0.185
'[09:20:26.414]',-0.155
'[09:20:26.422]',-0.285
'[09:20:26.430]',0.085
'[09:20:26.438]',0.895
'[09:20:26.445]',1825
'[09:20:26.453]',2595
'[09:20:26.461]',1455
'[09:20:26.469]',-0.565
'[09:20:26.477]',-0.985
'[09:20:26.484]',-0.695
'[09:20:26.492]',-0.475
'[09:20:26.500]',-0.365
'[09:20:26.508]',-0.335
'[09:20:26.516]',-0.315
'[09:20:26.523]',-0.325
'[09:20:26.531]',-0.285
'[09:20:26.539]',-0.455
'[09:20:26.547]',-0.365
'[09:20:26.555]',-0.365
'[09:20:26.563]',-0.145
'[09:20:26.570]',-0.205
'[09:20:26.578]',-0.255
'[09:20:26.586]',-0.255
'[09:20:26.594]',-0.395
'[09:20:26.602]',-0.305
'[09:20:26.609]',-0.205
'[09:20:26.617]',-0.195
'[09:20:26.625]',-0.175
'[09:20:26.633]',-0.205
'[09:20:26.641]',-0.215
'[09:20:26.648]',-0.195
'[09:20:26.656]',-0.205
'[09:20:26.664]',-0.205
'[09:20:26.672]',-0.185
'[09:20:26.680]',-0.165
'[09:20:26.688]',-0.185
'[09:20:26.695]',-0.175
'[09:20:26.703]',-0.175
'[09:20:26.711]',-0.125
'[09:20:26.719]',-0.165
'[09:20:26.727]',-0.085
'[09:20:26.734]',-0.135
'[09:20:26.742]',-0.205
'[09:20:26.750]',-0.005
'[09:20:26.758]',-0.045
'[09:20:26.766]',-0.095
'[09:20:26.773]',-0.095
'[09:20:26.781]',-0.115
'[09:20:26.789]',-0.125
'[09:20:26.797]',-0.135
'[09:20:26.805]',-0.135
'[09:20:26.813]',-0.125
'[09:20:26.820]',-0.105
'[09:20:26.828]',-0.085
'[09:20:26.836]',-0.085
'[09:20:26.844]',-0.095
'[09:20:26.852]',-0.095
'[09:20:26.859]',-0.075
'[09:20:26.867]',-0.075
'[09:20:26.875]',-0.055
'[09:20:26.883]',-0.065
'[09:20:26.891]',-0.055
'[09:20:26.898]',-0.055
'[09:20:26.906]',-0.065
'[09:20:26.914]',-0.065
'[09:20:26.922]',-0.065
'[09:20:26.930]',-0.085
'[09:20:26.938]',-0.065
'[09:20:26.945]',-0.085
'[09:20:26.953]',-0.235
'[09:20:26.961]',-0.135
'[09:20:26.969]',-0.015
'[09:20:26.977]',0.055
'[09:20:26.984]',0.025
'[09:20:26.992]',0.005
'[09:20:27.000]',0.085
'[09:20:27.008]',0.165
'[09:20:27.016]',0.085
'[09:20:27.023]',0.055
'[09:20:27.031]',0.015
'[09:20:27.039]',-0.015
'[09:20:27.047]',-0.145
'[09:20:27.055]',-0.165
'[09:20:27.063]',-0.175
'[09:20:27.070]',-0.115
'[09:20:27.078]',-0.115
'[09:20:27.086]',-0.185
'[09:20:27.094]',-0.265
'[09:20:27.102]',0.165
'[09:20:27.109]',1085
'[09:20:27.117]',2185
'[09:20:27.125]',2725
'[09:20:27.133]',1365
'[09:20:27.141]',-0.555
'[09:20:27.148]',-0.905
'[09:20:27.156]',-0.625
'[09:20:27.164]',-0.415
'[09:20:27.172]',-0.365
'[09:20:27.180]',-0.235
'[09:20:27.188]',-0.235
'[09:20:27.195]',-0.225
'[09:20:27.203]',-0.225
'[09:20:27.211]',-0.225
'[09:20:27.219]',-0.235
'[09:20:27.227]',-0.215
'[09:20:27.234]',-0.245
'[09:20:27.242]',-0.215
'[09:20:27.250]',-0.195
'[09:20:27.258]',-0.195
'[09:20:27.266]',-0.205
'[09:20:27.273]',-0.175
'[09:20:27.281]',-0.185
'[09:20:27.289]',-0.195
'[09:20:27.297]',-0.175
'[09:20:27.305]',-0.185
'[09:20:27.313]',-0.145
'[09:20:27.320]',-0.195
'[09:20:27.328]',-0.155
'[09:20:27.336]',-0.135
'[09:20:27.344]',-0.145
'[09:20:27.352]',-0.105
'[09:20:27.359]',-0.115
'[09:20:27.367]',-0.125
'[09:20:27.375]',-0.125
'[09:20:27.383]',-0.135
'[09:20:27.391]',-0.125
'[09:20:27.398]',-0.085
'[09:20:27.406]',-0.155
'[09:20:27.414]',-0.085
'[09:20:27.422]',-0.075
'[09:20:27.430]',-0.075
'[09:20:27.438]',-0.065
'[09:20:27.445]',-0.115
'[09:20:27.453]',-0.105
'[09:20:27.461]',-0.105
'[09:20:27.469]',-0.135
'[09:20:27.477]',-0.085
'[09:20:27.484]',-0.115
'[09:20:27.492]',-0.095
'[09:20:27.500]',-0.095
'[09:20:27.508]',-0.095
'[09:20:27.516]',-0.085
'[09:20:27.523]',-0.025
'[09:20:27.531]',-0.035
'[09:20:27.539]',-0.055
'[09:20:27.547]',-0.035
'[09:20:27.555]',-0.045
'[09:20:27.563]',-0.035
'[09:20:27.570]',-0.015
'[09:20:27.578]',-0.055
'[09:20:27.586]',-0.035
'[09:20:27.594]',-0.035
'[09:20:27.602]',-0.015
'[09:20:27.609]',-0.025
'[09:20:27.617]',-0.015
'[09:20:27.625]',-0.015
'[09:20:27.633]',-0.015
'[09:20:27.641]',-0.015
'[09:20:27.648]',0.025
'[09:20:27.656]',0.025
'[09:20:27.664]',0.035
'[09:20:27.672]',0.055
'[09:20:27.680]',0.085
'[09:20:27.688]',0.125
'[09:20:27.695]',0.075
'[09:20:27.703]',0.055
'[09:20:27.711]',0.055
'[09:20:27.719]',-0.005
'[09:20:27.727]',-0.005
'[09:20:27.734]',-0.045
'[09:20:27.742]',-0.045
'[09:20:27.750]',-0.045
'[09:20:27.758]',-0.045
'[09:20:27.766]',-0.115
'[09:20:27.773]',-0.025
'[09:20:27.781]',0.395
'[09:20:27.789]',1055
'[09:20:27.797]',1685
'[09:20:27.805]',1355
'[09:20:27.813]',0.045
'[09:20:27.820]',-0.535
'[09:20:27.828]',-0.495
'[09:20:27.836]',-0.335
'[09:20:27.844]',-0.245
'[09:20:27.852]',-0.185
'[09:20:27.859]',-0.195
'[09:20:27.867]',-0.205
'[09:20:27.875]',-0.205
'[09:20:27.883]',-0.215
'[09:20:27.891]',-0.215
'[09:20:27.898]',-0.215
'[09:20:27.906]',-0.235
'[09:20:27.914]',-0.235
'[09:20:27.922]',-0.215
'[09:20:27.930]',-0.205
'[09:20:27.938]',-0.205
'[09:20:27.945]',-0.215
'[09:20:27.953]',-0.225
'[09:20:27.961]',-0.205
'[09:20:27.969]',-0.215
'[09:20:27.977]',-0.205
'[09:20:27.984]',-0.205
'[09:20:27.992]',-0.185
'[09:20:28.000]',-0.185
'[09:20:28.008]',-0.185
'[09:20:28.016]',-0.185
'[09:20:28.023]',-0.195
'[09:20:28.031]',-0.195
'[09:20:28.039]',-0.215
'[09:20:28.047]',-0.205
'[09:20:28.055]',-0.195
'[09:20:28.063]',-0.175
'[09:20:28.070]',-0.145
'[09:20:28.078]',-0.135
'[09:20:28.086]',-0.135
'[09:20:28.094]',-0.135
'[09:20:28.102]',-0.145
'[09:20:28.109]',-0.155
'[09:20:28.117]',-0.155
'[09:20:28.125]',-0.145
'[09:20:28.133]',-0.165
'[09:20:28.141]',-0.165
'[09:20:28.148]',-0.155
'[09:20:28.156]',-0.175
'[09:20:28.164]',-0.165
'[09:20:28.172]',-0.165
'[09:20:28.180]',-0.145
'[09:20:28.188]',-0.135
'[09:20:28.195]',-0.135
'[09:20:28.203]',-0.135
'[09:20:28.211]',-0.125
'[09:20:28.219]',-0.135
'[09:20:28.227]',-0.115
'[09:20:28.234]',-0.135
'[09:20:28.242]',-0.115
'[09:20:28.250]',-0.115
'[09:20:28.258]',-0.135
'[09:20:28.266]',-0.145
'[09:20:28.273]',-0.145
'[09:20:28.281]',-0.155
'[09:20:28.289]',-0.155
'[09:20:28.297]',-0.155
'[09:20:28.305]',-0.145
'[09:20:28.313]',-0.065
'[09:20:28.320]',-0.055
'[09:20:28.328]',-0.055
'[09:20:28.336]',-0.025
'[09:20:28.344]',0.045
'[09:20:28.352]',0.065
'[09:20:28.359]',-0.005
'[09:20:28.367]',-0.035
'[09:20:28.375]',-0.035
'[09:20:28.383]',-0.155
'[09:20:28.391]',-0.155
'[09:20:28.398]',-0.185
'[09:20:28.406]',-0.215
'[09:20:28.414]',-0.195
'[09:20:28.422]',-0.175
'[09:20:28.430]',-0.265
'[09:20:28.438]',-0.155
'[09:20:28.445]',0.475
'[09:20:28.453]',1345
'[09:20:28.461]',2425
'[09:20:28.469]',2055
'[09:20:28.477]',0.075
'[09:20:28.484]',-0.935
'[09:20:28.492]',-0.775
'[09:20:28.500]',-0.525
'[09:20:28.508]',-0.375
'[09:20:28.516]',-0.285
'[09:20:28.523]',-0.275
'[09:20:28.531]',-0.285
'[09:20:28.539]',-0.265
'[09:20:28.547]',-0.275
'[09:20:28.555]',-0.275
'[09:20:28.563]',-0.235
'[09:20:28.570]',-0.235
'[09:20:28.578]',-0.245
'[09:20:28.586]',-0.225
'[09:20:28.594]',-0.225
'[09:20:28.602]',-0.215
'[09:20:28.609]',-0.215
'[09:20:28.617]',-0.205
'[09:20:28.625]',-0.185
'[09:20:28.633]',-0.195
'[09:20:28.641]',-0.185
'[09:20:28.648]',-0.175
'[09:20:28.656]',-0.175
'[09:20:28.664]',-0.165
'[09:20:28.672]',-0.155
'[09:20:28.680]',-0.165
'[09:20:28.688]',-0.165
'[09:20:28.695]',-0.185
'[09:20:28.703]',-0.205
'[09:20:28.711]',-0.195
'[09:20:28.719]',-0.185
'[09:20:28.727]',-0.155
'[09:20:28.734]',-0.155
'[09:20:28.742]',-0.115
'[09:20:28.750]',-0.095
'[09:20:28.758]',-0.095
'[09:20:28.766]',-0.095
'[09:20:28.773]',-0.095
'[09:20:28.781]',-0.095
'[09:20:28.789]',-0.105
'[09:20:28.797]',-0.115
'[09:20:28.805]',-0.105
'[09:20:28.813]',-0.105
'[09:20:28.820]',-0.115
'[09:20:28.828]',-0.125
'[09:20:28.836]',-0.115
'[09:20:28.844]',-0.105
'[09:20:28.852]',-0.105
'[09:20:28.859]',-0.095
'[09:20:28.867]',-0.085
'[09:20:28.875]',-0.085
'[09:20:28.883]',-0.075
'[09:20:28.891]',-0.085
'[09:20:28.898]',-0.075
'[09:20:28.906]',-0.065
'[09:20:28.914]',-0.085
'[09:20:28.922]',-0.095
'[09:20:28.930]',-0.085
'[09:20:28.938]',-0.075
'[09:20:28.945]',-0.095
'[09:20:28.953]',-0.065
'[09:20:28.961]',-0.035
'[09:20:28.969]',-0.055
'[09:20:28.977]',-0.015
'[09:20:28.984]',0.025
'[09:20:28.992]',0.085
'[09:20:29.000]',0.045
'[09:20:29.008]',-0.005
'[09:20:29.016]',-0.015
'[09:20:29.023]',-0.055
'[09:20:29.031]',-0.145
'[09:20:29.039]',-0.135
'[09:20:29.047]',-0.185
'[09:20:29.055]',-0.195
'[09:20:29.063]',-0.155
'[09:20:29.070]',-0.145
'[09:20:29.078]',-0.305
'[09:20:29.086]',0.045
'[09:20:29.094]',0.825
'[09:20:29.102]',1795
'[09:20:29.109]',2425
'[09:20:29.117]',1185
'[09:20:29.125]',-0.515
'[09:20:29.133]',-0.885
'[09:20:29.141]',-0.665
'[09:20:29.148]',-0.455
'[09:20:29.156]',-0.355
'[09:20:29.164]',-0.285
'[09:20:29.172]',-0.275
'[09:20:29.180]',-0.265
'[09:20:29.188]',-0.265
'[09:20:29.195]',-0.245
'[09:20:29.203]',-0.245
'[09:20:29.211]',-0.225
'[09:20:29.219]',-0.235
'[09:20:29.227]',-0.215
'[09:20:29.234]',-0.215
'[09:20:29.242]',-0.195
'[09:20:29.250]',-0.185
'[09:20:29.258]',-0.175
'[09:20:29.266]',-0.175
'[09:20:29.273]',-0.145
'[09:20:29.281]',-0.155
'[09:20:29.289]',-0.145
'[09:20:29.297]',-0.145
'[09:20:29.305]',-0.135
'[09:20:29.313]',-0.125
'[09:20:29.320]',-0.125
'[09:20:29.328]',-0.125
'[09:20:29.336]',-0.135
'[09:20:29.344]',-0.145
'[09:20:29.352]',-0.145
'[09:20:29.359]',-0.125
'[09:20:29.367]',-0.105
'[09:20:29.375]',-0.055
'[09:20:29.383]',-0.045
'[09:20:29.391]',-0.035
'[09:20:29.398]',-0.025
'[09:20:29.406]',-0.045
'[09:20:29.414]',-0.035
'[09:20:29.422]',-0.045
'[09:20:29.430]',-0.045
'[09:20:29.438]',-0.045
'[09:20:29.445]',-0.055
'[09:20:29.453]',-0.065
'[09:20:29.461]',-0.055
'[09:20:29.469]',-0.065
'[09:20:29.477]',-0.055
'[09:20:29.484]',-0.055
'[09:20:29.492]',-0.035
'[09:20:29.500]',-0.015
'[09:20:29.508]',-0.015
'[09:20:29.516]',-0.015
'[09:20:29.523]',-0.005
'[09:20:29.531]',-0.005
'[09:20:29.539]',-0.005
'[09:20:29.547]',0.005
'[09:20:29.555]',0.005
'[09:20:29.563]',0.025
'[09:20:29.570]',0.015
'[09:20:29.578]',-0.015
'[09:20:29.586]',0.025
'[09:20:29.594]',0.055
'[09:20:29.602]',0.075
'[09:20:29.609]',0.065
'[09:20:29.617]',0.115
'[09:20:29.625]',0.165
'[09:20:29.633]',0.175
'[09:20:29.641]',0.075
'[09:20:29.648]',0.055
'[09:20:29.656]',0.035
'[09:20:29.664]',-0.025
'[09:20:29.672]',-0.075
'[09:20:29.680]',-0.075
'[09:20:29.688]',-0.095
'[09:20:29.695]',-0.095
'[09:20:29.703]',-0.085
'[09:20:29.711]',-0.185
'[09:20:29.719]',-0.105
'[09:20:29.727]',0.585
'[09:20:29.734]',1535
'[09:20:29.742]',2525
'[09:20:29.750]',2085
'[09:20:29.758]',-0.005
'[09:20:29.766]',-0.895
'[09:20:29.773]',-0.675
'[09:20:29.781]',-0.405
'[09:20:29.789]',-0.275
'[09:20:29.797]',-0.225
'[09:20:29.805]',-0.215
'[09:20:29.813]',-0.205
'[09:20:29.820]',-0.215
'[09:20:29.828]',-0.215
'[09:20:29.836]',-0.215
'[09:20:29.844]',-0.215
'[09:20:29.852]',-0.205
'[09:20:29.859]',-0.205
'[09:20:29.867]',-0.195
'[09:20:29.875]',-0.185
'[09:20:29.883]',-0.185
'[09:20:29.891]',-0.185
'[09:20:29.898]',-0.175
'[09:20:29.906]',-0.185
'[09:20:29.914]',-0.165
'[09:20:29.922]',-0.165
'[09:20:29.930]',-0.145
'[09:20:29.938]',-0.145
'[09:20:29.945]',-0.135
'[09:20:29.953]',-0.145
'[09:20:29.961]',-0.125
'[09:20:29.969]',-0.155
'[09:20:29.977]',-0.135
'[09:20:29.984]',-0.145
'[09:20:29.992]',-0.135
'[09:20:30.000]',-0.115
'[09:20:30.008]',-0.085
'[09:20:30.016]',-0.065
'[09:20:30.023]',-0.065
'[09:20:30.031]',-0.075
'[09:20:30.039]',-0.065
'[09:20:30.047]',-0.065
'[09:20:30.055]',-0.085
'[09:20:30.063]',-0.065
'[09:20:30.070]',-0.085
'[09:20:30.078]',-0.095
'[09:20:30.086]',-0.095
'[09:20:30.094]',-0.105
'[09:20:30.102]',-0.105
'[09:20:30.109]',-0.095
'[09:20:30.117]',-0.085
'[09:20:30.125]',-0.085
'[09:20:30.133]',-0.085
'[09:20:30.141]',-0.105
'[09:20:30.148]',-0.075
'[09:20:30.156]',-0.085
'[09:20:30.164]',-0.065
'[09:20:30.172]',-0.075
'[09:20:30.180]',-0.065
'[09:20:30.188]',-0.065
'[09:20:30.195]',-0.055
'[09:20:30.203]',-0.075
'[09:20:30.211]',-0.075
'[09:20:30.219]',-0.065
'[09:20:30.227]',0.005
'[09:20:30.234]',0.015
'[09:20:30.242]',0.005
'[09:20:30.250]',0.045
'[09:20:30.258]',0.065
'[09:20:30.266]',0.115
'[09:20:30.273]',0.065
'[09:20:30.281]',0.015
'[09:20:30.289]',0.005
'[09:20:30.297]',-0.045
'[09:20:30.305]',-0.125
'[09:20:30.313]',-0.085
'[09:20:30.320]',-0.165
'[09:20:30.328]',-0.185
'[09:20:30.336]',-0.145
'[09:20:30.344]',-0.195
'[09:20:30.352]',-0.245
'[09:20:30.359]',0.215
'[09:20:30.367]',1105
'[09:20:30.375]',2145
'[09:20:30.383]',2495
'[09:20:30.391]',0.945
'[09:20:30.398]',-0.735
'[09:20:30.406]',-0.845
'[09:20:30.414]',-0.555
'[09:20:30.422]',-0.375
'[09:20:30.430]',-0.275
'[09:20:30.438]',-0.255
'[09:20:30.445]',-0.255
'[09:20:30.453]',-0.265
'[09:20:30.461]',-0.255
'[09:20:30.469]',-0.265
'[09:20:30.477]',-0.245
'[09:20:30.484]',-0.245
'[09:20:30.492]',-0.245
'[09:20:30.500]',-0.225
'[09:20:30.508]',-0.225
'[09:20:30.516]',-0.225
'[09:20:30.523]',-0.225
'[09:20:30.531]',-0.225
'[09:20:30.539]',-0.215
'[09:20:30.547]',-0.205
'[09:20:30.555]',-0.195
'[09:20:30.563]',-0.175
'[09:20:30.570]',-0.185
'[09:20:30.578]',-0.175
'[09:20:30.586]',-0.175
'[09:20:30.594]',-0.185
'[09:20:30.602]',-0.175
'[09:20:30.609]',-0.175
'[09:20:30.617]',-0.165
'[09:20:30.625]',-0.145
'[09:20:30.633]',-0.145
'[09:20:30.641]',-0.125
'[09:20:30.648]',-0.095
'[09:20:30.656]',-0.095
'[09:20:30.664]',-0.085
'[09:20:30.672]',-0.095
'[09:20:30.680]',-0.085
'[09:20:30.688]',-0.095
'[09:20:30.695]',-0.115
'[09:20:30.703]',-0.115
'[09:20:30.711]',-0.115
'[09:20:30.719]',-0.115
'[09:20:30.727]',-0.105
'[09:20:30.734]',-0.115
'[09:20:30.742]',-0.115
'[09:20:30.750]',-0.095
'[09:20:30.758]',-0.105
'[09:20:30.766]',-0.105
'[09:20:30.773]',-0.105
'[09:20:30.781]',-0.105
'[09:20:30.789]',-0.095
'[09:20:30.797]',-0.095
'[09:20:30.805]',-0.095
'[09:20:30.813]',-0.075
'[09:20:30.820]',-0.085
'[09:20:30.828]',-0.085
'[09:20:30.836]',-0.085
'[09:20:30.844]',-0.085
'[09:20:30.852]',-0.005
'[09:20:30.859]',0.005
'[09:20:30.867]',0.015
'[09:20:30.875]',0.045
'[09:20:30.883]',0.045
'[09:20:30.891]',0.075
'[09:20:30.898]',0.045
'[09:20:30.906]',-0.035
'[09:20:30.914]',-0.015
'[09:20:30.922]',-0.075
'[09:20:30.930]',-0.135
'[09:20:30.938]',-0.125
'[09:20:30.945]',-0.175
'[09:20:30.953]',-0.195
'[09:20:30.961]',-0.175
'[09:20:30.969]',-0.185
'[09:20:30.977]',-0.295
'[09:20:30.984]',0.055
'[09:20:30.992]',0.855
'[09:20:31.000]',1905
'[09:20:31.008]',2565
'[09:20:31.016]',1345
'[09:20:31.023]',-0.625
'[09:20:31.031]',-0.955
'[09:20:31.039]',-0.655
'[09:20:31.047]',-0.425
'[09:20:31.055]',-0.305
'[09:20:31.063]',-0.285
'[09:20:31.070]',-0.305
'[09:20:31.078]',-0.305
'[09:20:31.086]',-0.295
'[09:20:31.094]',-0.275
'[09:20:31.102]',-0.295
'[09:20:31.109]',-0.285
'[09:20:31.117]',-0.265
'[09:20:31.125]',-0.265
'[09:20:31.133]',-0.265
'[09:20:31.141]',-0.265
'[09:20:31.148]',-0.245
'[09:20:31.156]',-0.235
'[09:20:31.164]',-0.255
'[09:20:31.172]',-0.235
'[09:20:31.180]',-0.225
'[09:20:31.188]',-0.225
'[09:20:31.195]',-0.195
'[09:20:31.203]',-0.205
'[09:20:31.211]',-0.215
'[09:20:31.219]',-0.195
'[09:20:31.227]',-0.225
'[09:20:31.234]',-0.205
'[09:20:31.242]',-0.205
'[09:20:31.250]',-0.205
'[09:20:31.258]',-0.205
'[09:20:31.266]',-0.175
'[09:20:31.273]',-0.145
'[09:20:31.281]',-0.095
'[09:20:31.289]',-0.115
'[09:20:31.297]',-0.105
'[09:20:31.305]',-0.115
'[09:20:31.313]',-0.115
'[09:20:31.320]',-0.135
'[09:20:31.328]',-0.145
'[09:20:31.336]',-0.145
'[09:20:31.344]',-0.145
'[09:20:31.352]',-0.155
'[09:20:31.359]',-0.145
'[09:20:31.367]',-0.145
'[09:20:31.375]',-0.145
'[09:20:31.383]',-0.135
'[09:20:31.391]',-0.135
'[09:20:31.398]',-0.105
'[09:20:31.406]',-0.065
'[09:20:31.414]',-0.125
'[09:20:31.422]',-0.115
'[09:20:31.430]',-0.115
'[09:20:31.438]',-0.095
'[09:20:31.445]',-0.085
'[09:20:31.453]',-0.105
'[09:20:31.461]',-0.095
'[09:20:31.469]',-0.075
'[09:20:31.477]',-0.105
'[09:20:31.484]',-0.105
'[09:20:31.492]',-0.095
'[09:20:31.500]',-0.045
'[09:20:31.508]',-0.015
'[09:20:31.516]',-0.025
'[09:20:31.523]',0.015
'[09:20:31.531]',0.025
'[09:20:31.539]',0.095
'[09:20:31.547]',0.045
'[09:20:31.555]',-0.005
'[09:20:31.563]',0.005
'[09:20:31.570]',-0.055
'[09:20:31.578]',-0.135
'[09:20:31.586]',-0.125
'[09:20:31.594]',-0.185
'[09:20:31.602]',-0.185
'[09:20:31.609]',-0.185
'[09:20:31.617]',-0.145
'[09:20:31.625]',-0.255
'[09:20:31.633]',-0.135
'[09:20:31.641]',0.415
'[09:20:31.648]',1465
'[09:20:31.656]',2425
'[09:20:31.664]',1725
'[09:20:31.672]',-0.345
'[09:20:31.680]',-0.965
'[09:20:31.688]',-0.695
'[09:20:31.695]',-0.435
'[09:20:31.703]',-0.315
'[09:20:31.711]',-0.265
'[09:20:31.719]',-0.285
'[09:20:31.727]',-0.255
'[09:20:31.734]',-0.275
'[09:20:31.742]',-0.265
'[09:20:31.750]',-0.245
'[09:20:31.758]',-0.245
'[09:20:31.766]',-0.255
'[09:20:31.773]',-0.245
'[09:20:31.781]',-0.255
'[09:20:31.789]',-0.235
'[09:20:31.797]',-0.235
'[09:20:31.805]',-0.225
'[09:20:31.813]',-0.205
'[09:20:31.820]',-0.215
'[09:20:31.828]',-0.205
'[09:20:31.836]',-0.195
'[09:20:31.844]',-0.205
'[09:20:31.852]',-0.195
'[09:20:31.859]',-0.205
'[09:20:31.867]',-0.195
'[09:20:31.875]',-0.185
'[09:20:31.883]',-0.185
'[09:20:31.891]',-0.205
'[09:20:31.898]',-0.185
'[09:20:31.906]',-0.195
'[09:20:31.914]',-0.155
'[09:20:31.922]',-0.135
'[09:20:31.930]',-0.095
'[09:20:31.938]',-0.095
'[09:20:31.945]',-0.085
'[09:20:31.953]',-0.105
'[09:20:31.961]',-0.105
'[09:20:31.969]',-0.125
'[09:20:31.977]',-0.135
'[09:20:31.984]',-0.135
'[09:20:31.992]',-0.135
'[09:20:32.000]',-0.125
'[09:20:32.008]',-0.145
'[09:20:32.016]',-0.135
'[09:20:32.023]',-0.145
'[09:20:32.031]',-0.125
'[09:20:32.039]',-0.135
'[09:20:32.047]',-0.125
'[09:20:32.055]',-0.115
'[09:20:32.063]',-0.115
'[09:20:32.070]',-0.085
'[09:20:32.078]',-0.105
'[09:20:32.086]',-0.105
'[09:20:32.094]',-0.095
'[09:20:32.102]',-0.105
'[09:20:32.109]',-0.095
'[09:20:32.117]',-0.095
'[09:20:32.125]',-0.105
'[09:20:32.133]',-0.095
'[09:20:32.141]',-0.105
'[09:20:32.148]',-0.115
'[09:20:32.156]',-0.105
'[09:20:32.164]',-0.115
'[09:20:32.172]',-0.125
'[09:20:32.180]',-0.125
'[09:20:32.188]',-0.115
'[09:20:32.195]',-0.115
'[09:20:32.203]',-0.125
'[09:20:32.211]',-0.095
'[09:20:32.219]',-0.025
'[09:20:32.227]',-0.035
'[09:20:32.234]',-0.025
'[09:20:32.242]',0.005
'[09:20:32.250]',0.095
'[09:20:32.258]',0.065
'[09:20:32.266]',-0.005
'[09:20:32.273]',-0.025
'[09:20:32.281]',-0.055
'[09:20:32.289]',-0.135
'[09:20:32.297]',-0.135
'[09:20:32.305]',-0.175
'[09:20:32.313]',-0.175
'[09:20:32.320]',-0.175
'[09:20:32.328]',-0.155
'[09:20:32.336]',-0.255
'[09:20:32.344]',0.035
'[09:20:32.352]',0.815
'[09:20:32.359]',1655
'[09:20:32.367]',2395
'[09:20:32.375]',1525
'[09:20:32.383]',-0.375
'[09:20:32.391]',-0.955
'[09:20:32.398]',-0.675
'[09:20:32.406]',-0.445
'[09:20:32.414]',-0.305
'[09:20:32.422]',-0.265
'[09:20:32.430]',-0.265
'[09:20:32.438]',-0.255
'[09:20:32.445]',-0.245
'[09:20:32.453]',-0.255
'[09:20:32.461]',-0.245
'[09:20:32.469]',-0.245
'[09:20:32.477]',-0.225
'[09:20:32.484]',-0.215
'[09:20:32.492]',-0.215
'[09:20:32.500]',-0.205
'[09:20:32.508]',-0.205
'[09:20:32.516]',-0.205
'[09:20:32.523]',-0.195
'[09:20:32.531]',-0.195
'[09:20:32.539]',-0.195
'[09:20:32.547]',-0.185
'[09:20:32.555]',-0.175
'[09:20:32.563]',-0.165
'[09:20:32.570]',-0.175
'[09:20:32.578]',-0.175
'[09:20:32.586]',-0.185
'[09:20:32.594]',-0.195
'[09:20:32.602]',-0.185
'[09:20:32.609]',-0.195
'[09:20:32.617]',-0.185
'[09:20:32.625]',-0.165
'[09:20:32.633]',-0.145
'[09:20:32.641]',-0.135
'[09:20:32.648]',-0.125
'[09:20:32.656]',-0.135
'[09:20:32.664]',-0.135
'[09:20:32.672]',-0.135
'[09:20:32.680]',-0.145
'[09:20:32.688]',-0.155
'[09:20:32.695]',-0.155
'[09:20:32.703]',-0.175
'[09:20:32.711]',-0.165
'[09:20:32.719]',-0.175
'[09:20:32.727]',-0.175
'[09:20:32.734]',-0.185
'[09:20:32.742]',-0.175
'[09:20:32.750]',-0.155
'[09:20:32.758]',-0.165
'[09:20:32.766]',-0.145
'[09:20:32.773]',-0.145
'[09:20:32.781]',-0.135
'[09:20:32.789]',-0.155
'[09:20:32.797]',-0.135
'[09:20:32.805]',-0.115
'[09:20:32.813]',-0.105
'[09:20:32.820]',-0.115
'[09:20:32.828]',-0.115
'[09:20:32.836]',-0.115
'[09:20:32.844]',-0.115
'[09:20:32.852]',-0.135
'[09:20:32.859]',-0.145
'[09:20:32.867]',-0.135
'[09:20:32.875]',-0.145
'[09:20:32.883]',-0.135
'[09:20:32.891]',-0.145
'[09:20:32.898]',-0.155
'[09:20:32.906]',-0.135
'[09:20:32.914]',-0.165
'[09:20:32.922]',-0.165
'[09:20:32.930]',-0.155
'[09:20:32.938]',-0.095
'[09:20:32.945]',-0.055
'[09:20:32.953]',-0.085
'[09:20:32.961]',-0.055
'[09:20:32.969]',0.005
'[09:20:32.977]',0.055
'[09:20:32.984]',0.005
'[09:20:32.992]',-0.045
'[09:20:33.000]',-0.045
'[09:20:33.008]',-0.105
'[09:20:33.016]',-0.175
'[09:20:33.023]',-0.175
'[09:20:33.031]',-0.205
'[09:20:33.039]',-0.215
'[09:20:33.047]',-0.195
'[09:20:33.055]',-0.185
'[09:20:33.063]',-0.255
'[09:20:33.070]',0.255
'[09:20:33.078]',1175
'[09:20:33.086]',2295
'[09:20:33.094]',2145
'[09:20:33.102]',0.125
'[09:20:33.109]',-0.925
'[09:20:33.117]',-0.765
'[09:20:33.125]',-0.535
'[09:20:33.133]',-0.395
'[09:20:33.141]',-0.315
'[09:20:33.148]',-0.285
'[09:20:33.156]',-0.315
'[09:20:33.164]',-0.285
'[09:20:33.172]',-0.285
'[09:20:33.180]',-0.275
'[09:20:33.188]',-0.275
'[09:20:33.195]',-0.255
'[09:20:33.203]',-0.265
'[09:20:33.211]',-0.255
'[09:20:33.219]',-0.265
'[09:20:33.227]',-0.255
'[09:20:33.234]',-0.235
'[09:20:33.242]',-0.225
'[09:20:33.250]',-0.215
'[09:20:33.258]',-0.215
'[09:20:33.266]',-0.205
'[09:20:33.273]',-0.195
'[09:20:33.281]',-0.195
'[09:20:33.289]',-0.185
'[09:20:33.297]',-0.175
'[09:20:33.305]',-0.175
'[09:20:33.313]',-0.165
'[09:20:33.320]',-0.185
'[09:20:33.328]',-0.185
'[09:20:33.336]',-0.175
'[09:20:33.344]',-0.185
'[09:20:33.352]',-0.145
'[09:20:33.359]',-0.115
'[09:20:33.367]',-0.095
'[09:20:33.375]',-0.075
'[09:20:33.383]',-0.095
'[09:20:33.391]',-0.105
'[09:20:33.398]',-0.105
'[09:20:33.406]',-0.125
'[09:20:33.414]',-0.125
'[09:20:33.422]',-0.125
'[09:20:33.430]',-0.115
'[09:20:33.438]',-0.125
'[09:20:33.445]',-0.125
'[09:20:33.453]',-0.135
'[09:20:33.461]',-0.125
'[09:20:33.469]',-0.115
'[09:20:33.477]',-0.115
'[09:20:33.484]',-0.105
'[09:20:33.492]',-0.085
'[09:20:33.500]',-0.065
'[09:20:33.508]',-0.065
'[09:20:33.516]',-0.065
'[09:20:33.523]',-0.055
'[09:20:33.531]',-0.045
'[09:20:33.539]',-0.055
'[09:20:33.547]',-0.045
'[09:20:33.555]',-0.035
'[09:20:33.563]',-0.035
'[09:20:33.570]',-0.035
'[09:20:33.578]',-0.045
'[09:20:33.586]',-0.045
'[09:20:33.594]',-0.045
'[09:20:33.602]',-0.075
'[09:20:33.609]',-0.065
'[09:20:33.617]',-0.065
'[09:20:33.625]',-0.065
'[09:20:33.633]',-0.035
'[09:20:33.641]',0.015
'[09:20:33.648]',0.025
'[09:20:33.656]',0.035
'[09:20:33.664]',0.055
'[09:20:33.672]',0.125
'[09:20:33.680]',0.105
'[09:20:33.688]',0.055
'[09:20:33.695]',0.045
'[09:20:33.703]',-0.015
'[09:20:33.711]',-0.085
'[09:20:33.719]',-0.095
'[09:20:33.727]',-0.115
'[09:20:33.734]',-0.125
'[09:20:33.742]',-0.105
'[09:20:33.750]',-0.135
'[09:20:33.758]',-0.145
'[09:20:33.766]',0.345
'[09:20:33.773]',1195
'[09:20:33.781]',2085
'[09:20:33.789]',2525
'[09:20:33.797]',1035
'[09:20:33.805]',-0.695
'[09:20:33.813]',-0.895
'[09:20:33.820]',-0.585
'[09:20:33.828]',-0.355
'[09:20:33.836]',-0.245
'[09:20:33.844]',-0.235
'[09:20:33.852]',-0.215
'[09:20:33.859]',-0.215
'[09:20:33.867]',-0.195
'[09:20:33.875]',-0.195
'[09:20:33.883]',-0.205
'[09:20:33.891]',-0.185
'[09:20:33.898]',-0.185
'[09:20:33.906]',-0.185
'[09:20:33.914]',-0.165
'[09:20:33.922]',-0.165
'[09:20:33.930]',-0.175
'[09:20:33.938]',-0.155
'[09:20:33.945]',-0.145
'[09:20:33.953]',-0.145
'[09:20:33.961]',-0.125
'[09:20:33.969]',-0.145
'[09:20:33.977]',-0.115
'[09:20:33.984]',-0.115
'[09:20:33.992]',-0.105
'[09:20:34.000]',-0.105
'[09:20:34.008]',-0.095
'[09:20:34.016]',-0.105
'[09:20:34.023]',-0.085
'[09:20:34.031]',-0.115
'[09:20:34.039]',-0.095
'[09:20:34.047]',-0.065
'[09:20:34.055]',-0.045
'[09:20:34.063]',-0.035
'[09:20:34.070]',-0.035
'[09:20:34.078]',-0.045
'[09:20:34.086]',-0.055
'[09:20:34.094]',-0.075
'[09:20:34.102]',-0.085
'[09:20:34.109]',-0.085
'[09:20:34.117]',-0.085
'[09:20:34.125]',-0.075
'[09:20:34.133]',-0.085
'[09:20:34.141]',-0.095
'[09:20:34.148]',-0.085
'[09:20:34.156]',-0.105
'[09:20:34.164]',-0.085
'[09:20:34.172]',-0.095
'[09:20:34.180]',-0.085
'[09:20:34.188]',-0.065
'[09:20:34.195]',-0.055
'[09:20:34.203]',-0.065
'[09:20:34.211]',-0.055
'[09:20:34.219]',-0.045
'[09:20:34.227]',-0.055
'[09:20:34.234]',-0.045
'[09:20:34.242]',-0.035
'[09:20:34.250]',-0.025
'[09:20:34.258]',-0.035
'[09:20:34.266]',-0.035
'[09:20:34.273]',-0.045
'[09:20:34.281]',-0.045
'[09:20:34.289]',-0.055
'[09:20:34.297]',-0.055
'[09:20:34.305]',-0.055
'[09:20:34.313]',-0.065
'[09:20:34.320]',-0.055
'[09:20:34.328]',-0.055
'[09:20:34.336]',-0.055
'[09:20:34.344]',-0.055
'[09:20:34.352]',-0.065
'[09:20:34.359]',-0.065
'[09:20:34.367]',-0.065
'[09:20:34.375]',-0.065
'[09:20:34.383]',-0.045
'[09:20:34.391]',-0.035
'[09:20:34.398]',0.025
'[09:20:34.406]',0.045
'[09:20:34.414]',0.035
'[09:20:34.422]',0.075
'[09:20:34.430]',0.155
'[09:20:34.438]',0.115
'[09:20:34.445]',0.045
'[09:20:34.453]',0.045
'[09:20:34.461]',0.005
'[09:20:34.469]',-0.065
'[09:20:34.477]',-0.075
'[09:20:34.484]',-0.105
'[09:20:34.492]',-0.125
'[09:20:34.500]',-0.085
'[09:20:34.508]',-0.075
'[09:20:34.516]',-0.175
'[09:20:34.523]',0.205
'[09:20:34.531]',1075
'[09:20:34.539]',1965
'[09:20:34.547]',2485
'[09:20:34.555]',1185
'[09:20:34.563]',-0.635
'[09:20:34.570]',-0.895
'[09:20:34.578]',-0.555
'[09:20:34.586]',-0.345
'[09:20:34.594]',-0.215
'[09:20:34.602]',-0.215
'[09:20:34.609]',-0.215
'[09:20:34.617]',-0.195
'[09:20:34.625]',-0.195
'[09:20:34.633]',-0.195
'[09:20:34.641]',-0.195
'[09:20:34.648]',-0.185
'[09:20:34.656]',-0.185
'[09:20:34.664]',-0.165
'[09:20:34.672]',-0.175
'[09:20:34.680]',-0.165
'[09:20:34.688]',-0.145
'[09:20:34.695]',-0.145
'[09:20:34.703]',-0.155
'[09:20:34.711]',-0.135
'[09:20:34.719]',-0.145
'[09:20:34.727]',-0.115
'[09:20:34.734]',-0.125
'[09:20:34.742]',-0.105
'[09:20:34.750]',-0.105
'[09:20:34.758]',-0.105
'[09:20:34.766]',-0.105
'[09:20:34.773]',-0.105
'[09:20:34.781]',-0.105
'[09:20:34.789]',-0.105
'[09:20:34.797]',-0.085
'[09:20:34.805]',-0.075
'[09:20:34.813]',-0.045
'[09:20:34.820]',-0.045
'[09:20:34.828]',-0.055
'[09:20:34.836]',-0.045
'[09:20:34.844]',-0.065
'[09:20:34.852]',-0.075
'[09:20:34.859]',-0.085
'[09:20:34.867]',-0.085
'[09:20:34.875]',-0.085
'[09:20:34.883]',-0.095
'[09:20:34.891]',-0.105
'[09:20:34.898]',-0.095
'[09:20:34.906]',-0.115
'[09:20:34.914]',-0.105
'[09:20:34.922]',-0.105
'[09:20:34.930]',-0.095
'[09:20:34.938]',-0.105
'[09:20:34.945]',-0.095
'[09:20:34.953]',-0.085
'[09:20:34.961]',-0.075
'[09:20:34.969]',-0.075
'[09:20:34.977]',-0.065
'[09:20:34.984]',-0.055
'[09:20:34.992]',-0.055
'[09:20:35.000]',-0.035
'[09:20:35.008]',-0.065
'[09:20:35.016]',-0.055
'[09:20:35.023]',-0.045
'[09:20:35.031]',-0.065
'[09:20:35.039]',-0.075
'[09:20:35.047]',-0.075
'[09:20:35.055]',-0.075
'[09:20:35.063]',-0.055
'[09:20:35.070]',-0.075
'[09:20:35.078]',-0.085
'[09:20:35.086]',-0.095
'[09:20:35.094]',-0.095
'[09:20:35.102]',-0.105
'[09:20:35.109]',-0.085
'[09:20:35.117]',-0.085
'[09:20:35.125]',-0.095
'[09:20:35.133]',-0.105
'[09:20:35.141]',-0.115
'[09:20:35.148]',-0.085
'[09:20:35.156]',-0.065
'[09:20:35.164]',-0.015
'[09:20:35.172]',-0.025
'[09:20:35.180]',0.005
'[09:20:35.188]',0.045
'[09:20:35.195]',0.095
'[09:20:35.203]',0.045
'[09:20:35.211]',-0.005
'[09:20:35.219]',-0.025
'[09:20:35.227]',-0.065
'[09:20:35.234]',-0.145
'[09:20:35.242]',-0.125
'[09:20:35.250]',-0.175
'[09:20:35.258]',-0.175
'[09:20:35.266]',-0.155
'[09:20:35.273]',-0.165
'[09:20:35.281]',-0.225
'[09:20:35.289]',0.185
'[09:20:35.297]',1005
'[09:20:35.305]',1875
'[09:20:35.313]',2435
'[09:20:35.320]',1215
'[09:20:35.328]',-0.675
'[09:20:35.336]',-1005
'[09:20:35.344]',-0.685
'[09:20:35.352]',-0.425
'[09:20:35.359]',-0.325
'[09:20:35.367]',-0.275
'[09:20:35.375]',-0.275
'[09:20:35.383]',-0.275
'[09:20:35.391]',-0.295
'[09:20:35.398]',-0.275
'[09:20:35.406]',-0.285
'[09:20:35.414]',-0.265
'[09:20:35.422]',-0.275
'[09:20:35.430]',-0.245
'[09:20:35.438]',-0.235
'[09:20:35.445]',-0.235
'[09:20:35.453]',-0.265
'[09:20:35.461]',-0.225
'[09:20:35.469]',-0.225
'[09:20:35.477]',-0.225
'[09:20:35.484]',-0.215
'[09:20:35.492]',-0.205
'[09:20:35.500]',-0.185
'[09:20:35.508]',-0.195
'[09:20:35.516]',-0.185
'[09:20:35.523]',-0.175
'[09:20:35.531]',-0.185
'[09:20:35.539]',-0.185
'[09:20:35.547]',-0.195
'[09:20:35.555]',-0.185
'[09:20:35.563]',-0.175
'[09:20:35.570]',-0.195
'[09:20:35.578]',-0.155
'[09:20:35.586]',-0.125
'[09:20:35.594]',-0.135
'[09:20:35.602]',-0.145
'[09:20:35.609]',-0.135
'[09:20:35.617]',-0.135
'[09:20:35.625]',-0.155
'[09:20:35.633]',-0.175
'[09:20:35.641]',-0.175
'[09:20:35.648]',-0.175
'[09:20:35.656]',-0.205
'[09:20:35.664]',-0.185
'[09:20:35.672]',-0.195
'[09:20:35.680]',-0.195
'[09:20:35.688]',-0.175
'[09:20:35.695]',-0.185
'[09:20:35.703]',-0.185
'[09:20:35.711]',-0.165
'[09:20:35.719]',-0.185
'[09:20:35.727]',-0.165
'[09:20:35.734]',-0.155
'[09:20:35.742]',-0.145
'[09:20:35.750]',-0.145
'[09:20:35.758]',-0.135
'[09:20:35.766]',-0.145
'[09:20:35.773]',-0.145
'[09:20:35.781]',-0.165
'[09:20:35.789]',-0.135
'[09:20:35.797]',-0.145
'[09:20:35.805]',-0.165
'[09:20:35.813]',-0.145
'[09:20:35.820]',-0.155
'[09:20:35.828]',-0.165
'[09:20:35.836]',-0.175
'[09:20:35.844]',-0.175
'[09:20:35.852]',-0.185
'[09:20:35.859]',-0.175
'[09:20:35.867]',-0.175
'[09:20:35.875]',-0.165
'[09:20:35.883]',-0.175
'[09:20:35.891]',-0.185
'[09:20:35.898]',-0.155
'[09:20:35.906]',-0.115
'[09:20:35.914]',-0.095
'[09:20:35.922]',-0.085
'[09:20:35.930]',-0.045
'[09:20:35.938]',0.015
'[09:20:35.945]',0.045
'[09:20:35.953]',-0.055
'[09:20:35.961]',-0.075
'[09:20:35.969]',-0.105
'[09:20:35.977]',-0.165
'[09:20:35.984]',-0.185
'[09:20:35.992]',-0.215
'[09:20:36.000]',-0.225
'[09:20:36.008]',-0.215
'[09:20:36.016]',-0.205
'[09:20:36.023]',-0.285
'[09:20:36.031]',-0.125
'[09:20:36.039]',0.665
'[09:20:36.047]',1595
'[09:20:36.055]',2535
'[09:20:36.063]',1825
'[09:20:36.070]',-0.175
'[09:20:36.078]',-1035
'[09:20:36.086]',-0.825
'[09:20:36.094]',-0.575
'[09:20:36.102]',-0.405
'[09:20:36.109]',-0.335
'[09:20:36.117]',-0.295
'[09:20:36.125]',-0.275
'[09:20:36.133]',-0.295
'[09:20:36.141]',-0.295
'[09:20:36.148]',-0.275
'[09:20:36.156]',-0.275
'[09:20:36.164]',-0.265
'[09:20:36.172]',-0.255
'[09:20:36.180]',-0.225
'[09:20:36.188]',-0.225
'[09:20:36.195]',-0.225
'[09:20:36.203]',-0.215
'[09:20:36.211]',-0.215
'[09:20:36.219]',-0.195
'[09:20:36.227]',-0.185
'[09:20:36.234]',-0.175
'[09:20:36.242]',-0.155
'[09:20:36.250]',-0.135
'[09:20:36.258]',-0.135
'[09:20:36.266]',-0.145
'[09:20:36.273]',-0.125
'[09:20:36.281]',-0.135
'[09:20:36.289]',-0.135
'[09:20:36.297]',-0.135
'[09:20:36.305]',-0.135
'[09:20:36.313]',-0.115
'[09:20:36.320]',-0.115
'[09:20:36.328]',-0.085
'[09:20:36.336]',-0.065
'[09:20:36.344]',-0.075
'[09:20:36.352]',-0.065
'[09:20:36.359]',-0.065
'[09:20:36.367]',-0.075
'[09:20:36.375]',-0.075
'[09:20:36.383]',-0.095
'[09:20:36.391]',-0.095
'[09:20:36.398]',-0.105
'[09:20:36.406]',-0.125
'[09:20:36.414]',-0.115
'[09:20:36.422]',-0.105
'[09:20:36.430]',-0.085
'[09:20:36.438]',-0.085
'[09:20:36.445]',-0.085
'[09:20:36.453]',-0.085
'[09:20:36.461]',-0.055
'[09:20:36.469]',-0.065
'[09:20:36.477]',-0.045
'[09:20:36.484]',-0.045
'[09:20:36.492]',-0.045
'[09:20:36.500]',-0.025
'[09:20:36.508]',-0.025
'[09:20:36.516]',-0.035
'[09:20:36.523]',-0.025
'[09:20:36.531]',-0.055
'[09:20:36.539]',-0.035
'[09:20:36.547]',-0.055
'[09:20:36.555]',-0.045
'[09:20:36.563]',-0.035
'[09:20:36.570]',-0.065
'[09:20:36.578]',-0.055
'[09:20:36.586]',-0.055
'[09:20:36.594]',-0.085
'[09:20:36.602]',-0.075
'[09:20:36.609]',-0.075
'[09:20:36.617]',-0.055
'[09:20:36.625]',0.025
'[09:20:36.633]',0.025
'[09:20:36.641]',-0.005
'[09:20:36.648]',0.055
'[09:20:36.656]',0.095
'[09:20:36.664]',0.165
'[09:20:36.672]',0.055
'[09:20:36.680]',0.015
'[09:20:36.688]',0.055
'[09:20:36.695]',-0.045
'[09:20:36.703]',-0.105
'[09:20:36.711]',-0.105
'[09:20:36.719]',-0.155
'[09:20:36.727]',-0.135
'[09:20:36.734]',-0.125
'[09:20:36.742]',-0.135
'[09:20:36.750]',-0.155
'[09:20:36.758]',0.385
'[09:20:36.766]',1265
'[09:20:36.773]',2245
'[09:20:36.781]',2495
'[09:20:36.789]',0.955
'[09:20:36.797]',-0.845
'[09:20:36.805]',-0.955
'[09:20:36.813]',-0.555
'[09:20:36.820]',-0.335
'[09:20:36.828]',-0.245
'[09:20:36.836]',-0.215
'[09:20:36.844]',-0.215
'[09:20:36.852]',-0.225
'[09:20:36.859]',-0.225
'[09:20:36.867]',-0.225
'[09:20:36.875]',-0.205
'[09:20:36.883]',-0.195
'[09:20:36.891]',-0.205
'[09:20:36.898]',-0.195
'[09:20:36.906]',-0.175
'[09:20:36.914]',-0.175
'[09:20:36.922]',-0.165
'[09:20:36.930]',-0.145
'[09:20:36.938]',-0.135
'[09:20:36.945]',-0.135
'[09:20:36.953]',-0.135
'[09:20:36.961]',-0.115
'[09:20:36.969]',-0.125
'[09:20:36.977]',-0.095
'[09:20:36.984]',-0.105
'[09:20:36.992]',-0.095
'[09:20:37.000]',-0.075
'[09:20:37.008]',-0.085
'[09:20:37.016]',-0.115
'[09:20:37.023]',-0.085
'[09:20:37.031]',-0.075
'[09:20:37.039]',-0.065
'[09:20:37.047]',-0.045
'[09:20:37.055]',-0.035
'[09:20:37.063]',-0.025
'[09:20:37.070]',-0.045
'[09:20:37.078]',-0.055
'[09:20:37.086]',-0.055
'[09:20:37.094]',-0.075
'[09:20:37.102]',-0.085
'[09:20:37.109]',-0.075
'[09:20:37.117]',-0.085
'[09:20:37.125]',-0.075
'[09:20:37.133]',-0.075
'[09:20:37.141]',-0.075
'[09:20:37.148]',-0.075
'[09:20:37.156]',-0.085
'[09:20:37.164]',-0.085
'[09:20:37.172]',-0.085
'[09:20:37.180]',-0.065
'[09:20:37.188]',-0.055
'[09:20:37.195]',-0.055
'[09:20:37.203]',-0.055
'[09:20:37.211]',-0.025
'[09:20:37.219]',-0.045
'[09:20:37.227]',-0.035
'[09:20:37.234]',-0.055
'[09:20:37.242]',-0.025
'[09:20:37.250]',-0.025
'[09:20:37.258]',-0.035
'[09:20:37.266]',-0.055
'[09:20:37.273]',-0.045
'[09:20:37.281]',-0.065
'[09:20:37.289]',-0.055
'[09:20:37.297]',-0.075
'[09:20:37.305]',-0.075
'[09:20:37.313]',-0.065
'[09:20:37.320]',-0.075
'[09:20:37.328]',-0.085
'[09:20:37.336]',-0.075
'[09:20:37.344]',-0.025
'[09:20:37.352]',0.035
'[09:20:37.359]',0.025
'[09:20:37.367]',0.045
'[09:20:37.375]',0.075
'[09:20:37.383]',0.135
'[09:20:37.391]',0.095
'[09:20:37.398]',0.045
'[09:20:37.406]',0.035
'[09:20:37.414]',-0.025
'[09:20:37.422]',-0.115
'[09:20:37.430]',-0.085
'[09:20:37.438]',-0.135
'[09:20:37.445]',-0.145
'[09:20:37.453]',-0.155
'[09:20:37.461]',-0.125
'[09:20:37.469]',-0.235
'[09:20:37.477]',0.115
'[09:20:37.484]',0.975
'[09:20:37.492]',1925
'[09:20:37.500]',2615
'[09:20:37.508]',1545
'[09:20:37.516]',-0.575
'[09:20:37.523]',-1045
'[09:20:37.531]',-0.665
'[09:20:37.539]',-0.395
'[09:20:37.547]',-0.285
'[09:20:37.555]',-0.255
'[09:20:37.563]',-0.255
'[09:20:37.570]',-0.255
'[09:20:37.578]',-0.245
'[09:20:37.586]',-0.245
'[09:20:37.594]',-0.265
'[09:20:37.602]',-0.245
'[09:20:37.609]',-0.235
'[09:20:37.617]',-0.225
'[09:20:37.625]',-0.215
'[09:20:37.633]',-0.205
'[09:20:37.641]',-0.215
'[09:20:37.648]',-0.205
'[09:20:37.656]',-0.205
'[09:20:37.664]',-0.195
'[09:20:37.672]',-0.185
'[09:20:37.680]',-0.175
'[09:20:37.688]',-0.155
'[09:20:37.695]',-0.155
'[09:20:37.703]',-0.165
'[09:20:37.711]',-0.155
'[09:20:37.719]',-0.155
'[09:20:37.727]',-0.145
'[09:20:37.734]',-0.165
'[09:20:37.742]',-0.155
'[09:20:37.750]',-0.135
'[09:20:37.758]',-0.145
'[09:20:37.766]',-0.125
'[09:20:37.773]',-0.095
'[09:20:37.781]',-0.095
'[09:20:37.789]',-0.085
'[09:20:37.797]',-0.085
'[09:20:37.805]',-0.105
'[09:20:37.813]',-0.095
'[09:20:37.820]',-0.125
'[09:20:37.828]',-0.125
'[09:20:37.836]',-0.125
'[09:20:37.844]',-0.145
'[09:20:37.852]',-0.135
'[09:20:37.859]',-0.145
'[09:20:37.867]',-0.135
'[09:20:37.875]',-0.115
'[09:20:37.883]',-0.115
'[09:20:37.891]',-0.115
'[09:20:37.898]',-0.105
'[09:20:37.906]',-0.105
'[09:20:37.914]',-0.085
'[09:20:37.922]',-0.095
'[09:20:37.930]',-0.075
'[09:20:37.938]',-0.065
'[09:20:37.945]',-0.085
'[09:20:37.953]',-0.095
'[09:20:37.961]',-0.085
'[09:20:37.969]',-0.095
'[09:20:37.977]',-0.075
'[09:20:37.984]',-0.095
'[09:20:37.992]',-0.095
'[09:20:38.000]',-0.095
'[09:20:38.008]',-0.085
'[09:20:38.016]',-0.115
'[09:20:38.023]',-0.105
'[09:20:38.031]',-0.115
'[09:20:38.039]',-0.115
'[09:20:38.047]',-0.115
'[09:20:38.055]',-0.125
'[09:20:38.063]',-0.105
'[09:20:38.070]',-0.105
'[09:20:38.078]',-0.055
'[09:20:38.086]',-0.015
'[09:20:38.094]',-0.025
'[09:20:38.102]',0.005
'[09:20:38.109]',0.035
'[09:20:38.117]',0.115
'[09:20:38.125]',0.065
'[09:20:38.133]',0.005
'[09:20:38.141]',-0.005
'[09:20:38.148]',-0.075
'[09:20:38.156]',-0.145
'[09:20:38.164]',-0.135
'[09:20:38.172]',-0.205
'[09:20:38.180]',-0.185
'[09:20:38.188]',-0.155
'[09:20:38.195]',-0.145
'[09:20:38.203]',-0.275
'[09:20:38.211]',0.145
'[09:20:38.219]',1025
'[09:20:38.227]',1905
'[09:20:38.234]',2485
'[09:20:38.242]',1445
'[09:20:38.250]',-0.605
'[09:20:38.258]',-1055
'[09:20:38.266]',-0.715
'[09:20:38.273]',-0.455
'[09:20:38.281]',-0.295
'[09:20:38.289]',-0.285
'[09:20:38.297]',-0.285
'[09:20:38.305]',-0.275
'[09:20:38.313]',-0.265
'[09:20:38.320]',-0.275
'[09:20:38.328]',-0.265
'[09:20:38.336]',-0.255
'[09:20:38.344]',-0.255
'[09:20:38.352]',-0.245
'[09:20:38.359]',-0.245
'[09:20:38.367]',-0.225
'[09:20:38.375]',-0.215
'[09:20:38.383]',-0.215
'[09:20:38.391]',-0.215
'[09:20:38.398]',-0.195
'[09:20:38.406]',-0.185
'[09:20:38.414]',-0.185
'[09:20:38.422]',-0.185
'[09:20:38.430]',-0.175
'[09:20:38.438]',-0.175
'[09:20:38.445]',-0.165
'[09:20:38.453]',-0.185
'[09:20:38.461]',-0.185
'[09:20:38.469]',-0.215
'[09:20:38.477]',-0.205
'[09:20:38.484]',-0.215
'[09:20:38.492]',-0.195
'[09:20:38.500]',-0.155
'[09:20:38.508]',-0.145
'[09:20:38.516]',-0.135
'[09:20:38.523]',-0.125
'[09:20:38.531]',-0.145
'[09:20:38.539]',-0.145
'[09:20:38.547]',-0.155
'[09:20:38.555]',-0.155
'[09:20:38.563]',-0.145
'[09:20:38.570]',-0.175
'[09:20:38.578]',-0.185
'[09:20:38.586]',-0.185
'[09:20:38.594]',-0.185
'[09:20:38.602]',-0.175
'[09:20:38.609]',-0.165
'[09:20:38.617]',-0.165
'[09:20:38.625]',-0.135
'[09:20:38.633]',-0.145
'[09:20:38.641]',-0.145
'[09:20:38.648]',-0.135
'[09:20:38.656]',-0.125
'[09:20:38.664]',-0.125
'[09:20:38.672]',-0.115
'[09:20:38.680]',-0.125
'[09:20:38.688]',-0.125
'[09:20:38.695]',-0.115
'[09:20:38.703]',-0.135
'[09:20:38.711]',-0.125
'[09:20:38.719]',-0.155
'[09:20:38.727]',-0.145
'[09:20:38.734]',-0.145
'[09:20:38.742]',-0.155
'[09:20:38.750]',-0.155
'[09:20:38.758]',-0.155
'[09:20:38.766]',-0.165
'[09:20:38.773]',-0.175
'[09:20:38.781]',-0.175
'[09:20:38.789]',-0.145
'[09:20:38.797]',-0.085
'[09:20:38.805]',-0.085
'[09:20:38.813]',-0.055
'[09:20:38.820]',-0.055
'[09:20:38.828]',0.045
'[09:20:38.836]',0.025
'[09:20:38.844]',-0.025
'[09:20:38.852]',-0.035
'[09:20:38.859]',-0.075
'[09:20:38.867]',-0.205
'[09:20:38.875]',-0.145
'[09:20:38.883]',-0.175
'[09:20:38.891]',-0.205
'[09:20:38.898]',-0.175
'[09:20:38.906]',-0.195
'[09:20:38.914]',-0.275
'[09:20:38.922]',0.065
'[09:20:38.930]',0.935
'[09:20:38.938]',1835
'[09:20:38.945]',2535
'[09:20:38.953]',1535
'[09:20:38.961]',-0.335
'[09:20:38.969]',-0.975
'[09:20:38.977]',-0.755
'[09:20:38.984]',-0.495
'[09:20:38.992]',-0.355
'[09:20:39.000]',-0.275
'[09:20:39.008]',-0.275
'[09:20:39.016]',-0.285
'[09:20:39.023]',-0.265
'[09:20:39.031]',-0.255
'[09:20:39.039]',-0.255
'[09:20:39.047]',-0.245
'[09:20:39.055]',-0.235
'[09:20:39.063]',-0.215
'[09:20:39.070]',-0.195
'[09:20:39.078]',-0.195
'[09:20:39.086]',-0.185
'[09:20:39.094]',-0.175
'[09:20:39.102]',-0.175
'[09:20:39.109]',-0.165
'[09:20:39.117]',-0.145
'[09:20:39.125]',-0.125
'[09:20:39.133]',-0.115
'[09:20:39.141]',-0.125
'[09:20:39.148]',-0.115
'[09:20:39.156]',-0.135
'[09:20:39.164]',-0.115
'[09:20:39.172]',-0.125
'[09:20:39.180]',-0.135
'[09:20:39.188]',-0.145
'[09:20:39.195]',-0.145
'[09:20:39.203]',-0.145
'[09:20:39.211]',-0.105
'[09:20:39.219]',-0.105
'[09:20:39.227]',-0.065
'[09:20:39.234]',-0.065
'[09:20:39.242]',-0.045
'[09:20:39.250]',-0.055
'[09:20:39.258]',-0.055
'[09:20:39.266]',-0.075
'[09:20:39.273]',-0.075
'[09:20:39.281]',-0.085
'[09:20:39.289]',-0.085
'[09:20:39.297]',-0.075
'[09:20:39.305]',-0.085
'[09:20:39.313]',-0.075
'[09:20:39.320]',-0.075
