'Time','ECG1'
'[10:58:00.000]',0.365
'[10:58:00.008]',0.365
'[10:58:00.016]',0.355
'[10:58:00.023]',0.355
'[10:58:00.031]',0.345
'[10:58:00.039]',0.335
'[10:58:00.047]',0.335
'[10:58:00.055]',0.325
'[10:58:00.063]',0.315
'[10:58:00.070]',0.315
'[10:58:00.078]',0.305
'[10:58:00.086]',0.295
'[10:58:00.094]',0.295
'[10:58:00.102]',0.285
'[10:58:00.109]',0.275
'[10:58:00.117]',0.275
'[10:58:00.125]',0.265
'[10:58:00.133]',0.255
'[10:58:00.141]',0.245
'[10:58:00.148]',0.245
'[10:58:00.156]',0.235
'[10:58:00.164]',0.235
'[10:58:00.172]',0.215
'[10:58:00.180]',0.215
'[10:58:00.188]',0.205
'[10:58:00.195]',0.195
'[10:58:00.203]',0.185
'[10:58:00.211]',0.175
'[10:58:00.219]',0.165
'[10:58:00.227]',0.155
'[10:58:00.234]',0.135
'[10:58:00.242]',0.135
'[10:58:00.250]',0.115
'[10:58:00.258]',0.105
'[10:58:00.266]',0.075
'[10:58:00.273]',-0.415
'[10:58:00.281]',-0.645
'[10:58:00.289]',-0.575
'[10:58:00.297]',-0.535
'[10:58:00.305]',-0.535
'[10:58:00.313]',-0.525
'[10:58:00.320]',-0.525
'[10:58:00.328]',-0.525
'[10:58:00.336]',-0.525
'[10:58:00.344]',-0.515
'[10:58:00.352]',-0.515
'[10:58:00.359]',-0.505
'[10:58:00.367]',-0.515
'[10:58:00.375]',-0.505
'[10:58:00.383]',-0.505
'[10:58:00.391]',-0.495
'[10:58:00.398]',-0.495
'[10:58:00.406]',-0.485
'[10:58:00.414]',-0.485
'[10:58:00.422]',-0.475
'[10:58:00.430]',-0.475
'[10:58:00.438]',-0.465
'[10:58:00.445]',-0.465
'[10:58:00.453]',-0.455
'[10:58:00.461]',-0.455
'[10:58:00.469]',-0.445
'[10:58:00.477]',-0.435
'[10:58:00.484]',-0.435
'[10:58:00.492]',-0.425
'[10:58:00.500]',-0.425
'[10:58:00.508]',-0.415
'[10:58:00.516]',-0.405
'[10:58:00.523]',-0.405
'[10:58:00.531]',-0.395
'[10:58:00.539]',-0.385
'[10:58:00.547]',-0.385
'[10:58:00.555]',-0.375
'[10:58:00.563]',-0.375
'[10:58:00.570]',-0.355
'[10:58:00.578]',-0.355
'[10:58:00.586]',-0.355
'[10:58:00.594]',-0.345
'[10:58:00.602]',-0.335
'[10:58:00.609]',-0.335
'[10:58:00.617]',-0.325
'[10:58:00.625]',-0.315
'[10:58:00.633]',-0.305
'[10:58:00.641]',-0.305
'[10:58:00.648]',-0.295
'[10:58:00.656]',-0.285
'[10:58:00.664]',-0.275
'[10:58:00.672]',-0.265
'[10:58:00.680]',-0.255
'[10:58:00.688]',-0.255
'[10:58:00.695]',-0.235
'[10:58:00.703]',-0.235
'[10:58:00.711]',-0.225
'[10:58:00.719]',-0.215
'[10:58:00.727]',-0.205
'[10:58:00.734]',-0.185
'[10:58:00.742]',-0.175
'[10:58:00.750]',-0.165
'[10:58:00.758]',-0.145
'[10:58:00.766]',-0.125
'[10:58:00.773]',0.365
'[10:58:00.781]',0.595
'[10:58:00.789]',0.525
'[10:58:00.797]',0.495
'[10:58:00.805]',0.485
'[10:58:00.813]',0.485
'[10:58:00.820]',0.475
'[10:58:00.828]',0.475
'[10:58:00.836]',0.475
'[10:58:00.844]',0.475
'[10:58:00.852]',0.465
'[10:58:00.859]',0.465
'[10:58:00.867]',0.465
'[10:58:00.875]',0.455
'[10:58:00.883]',0.455
'[10:58:00.891]',0.455
'[10:58:00.898]',0.445
'[10:58:00.906]',0.445
'[10:58:00.914]',0.435
'[10:58:00.922]',0.435
'[10:58:00.930]',0.435
'[10:58:00.938]',0.425
'[10:58:00.945]',0.415
'[10:58:00.953]',0.405
'[10:58:00.961]',0.405
'[10:58:00.969]',0.405
'[10:58:00.977]',0.395
'[10:58:00.984]',0.385
'[10:58:00.992]',0.385
'[10:58:01.000]',0.375
'[10:58:01.008]',0.375
'[10:58:01.016]',0.365
'[10:58:01.023]',0.355
'[10:58:01.031]',0.355
'[10:58:01.039]',0.345
'[10:58:01.047]',0.335
'[10:58:01.055]',0.335
'[10:58:01.063]',0.325
'[10:58:01.070]',0.325
'[10:58:01.078]',0.305
'[10:58:01.086]',0.305
'[10:58:01.094]',0.295
'[10:58:01.102]',0.295
'[10:58:01.109]',0.285
'[10:58:01.117]',0.275
'[10:58:01.125]',0.265
'[10:58:01.133]',0.265
'[10:58:01.141]',0.255
'[10:58:01.148]',0.245
'[10:58:01.156]',0.245
'[10:58:01.164]',0.235
'[10:58:01.172]',0.225
'[10:58:01.180]',0.215
'[10:58:01.188]',0.205
'[10:58:01.195]',0.205
'[10:58:01.203]',0.195
'[10:58:01.211]',0.175
'[10:58:01.219]',0.175
'[10:58:01.227]',0.165
'[10:58:01.234]',0.145
'[10:58:01.242]',0.135
'[10:58:01.250]',0.125
'[10:58:01.258]',0.115
'[10:58:01.266]',0.075
'[10:58:01.273]',-0.275
'[10:58:01.281]',-0.645
'[10:58:01.289]',-0.575
'[10:58:01.297]',-0.545
'[10:58:01.305]',-0.535
'[10:58:01.313]',-0.525
'[10:58:01.320]',-0.525
'[10:58:01.328]',-0.525
'[10:58:01.336]',-0.525
'[10:58:01.344]',-0.515
'[10:58:01.352]',-0.515
'[10:58:01.359]',-0.515
'[10:58:01.367]',-0.515
'[10:58:01.375]',-0.505
'[10:58:01.383]',-0.505
'[10:58:01.391]',-0.495
'[10:58:01.398]',-0.495
'[10:58:01.406]',-0.495
'[10:58:01.414]',-0.485
'[10:58:01.422]',-0.485
'[10:58:01.430]',-0.485
'[10:58:01.438]',-0.475
'[10:58:01.445]',-0.465
'[10:58:01.453]',-0.455
'[10:58:01.461]',-0.455
'[10:58:01.469]',-0.445
'[10:58:01.477]',-0.445
'[10:58:01.484]',-0.435
'[10:58:01.492]',-0.425
'[10:58:01.500]',-0.425
'[10:58:01.508]',-0.415
'[10:58:01.516]',-0.415
'[10:58:01.523]',-0.405
'[10:58:01.531]',-0.395
'[10:58:01.539]',-0.385
'[10:58:01.547]',-0.385
'[10:58:01.555]',-0.375
'[10:58:01.563]',-0.375
'[10:58:01.570]',-0.365
'[10:58:01.578]',-0.365
'[10:58:01.586]',-0.345
'[10:58:01.594]',-0.345
'[10:58:01.602]',-0.335
'[10:58:01.609]',-0.335
'[10:58:01.617]',-0.315
'[10:58:01.625]',-0.315
'[10:58:01.633]',-0.305
'[10:58:01.641]',-0.295
'[10:58:01.648]',-0.295
'[10:58:01.656]',-0.285
'[10:58:01.664]',-0.275
'[10:58:01.672]',-0.265
'[10:58:01.680]',-0.255
'[10:58:01.688]',-0.245
'[10:58:01.695]',-0.235
'[10:58:01.703]',-0.225
'[10:58:01.711]',-0.215
'[10:58:01.719]',-0.215
'[10:58:01.727]',-0.195
'[10:58:01.734]',-0.185
'[10:58:01.742]',-0.175
'[10:58:01.750]',-0.155
'[10:58:01.758]',-0.145
'[10:58:01.766]',-0.115
'[10:58:01.773]',0.425
'[10:58:01.781]',0.595
'[10:58:01.789]',0.525
'[10:58:01.797]',0.495
'[10:58:01.805]',0.485
'[10:58:01.813]',0.485
'[10:58:01.820]',0.485
'[10:58:01.828]',0.485
'[10:58:01.836]',0.475
'[10:58:01.844]',0.475
'[10:58:01.852]',0.475
'[10:58:01.859]',0.465
'[10:58:01.867]',0.465
'[10:58:01.875]',0.465
'[10:58:01.883]',0.465
'[10:58:01.891]',0.455
'[10:58:01.898]',0.455
'[10:58:01.906]',0.455
'[10:58:01.914]',0.445
'[10:58:01.922]',0.445
'[10:58:01.930]',0.435
'[10:58:01.938]',0.435
'[10:58:01.945]',0.425
'[10:58:01.953]',0.425
'[10:58:01.961]',0.415
'[10:58:01.969]',0.415
'[10:58:01.977]',0.405
'[10:58:01.984]',0.395
'[10:58:01.992]',0.395
'[10:58:02.000]',0.385
'[10:58:02.008]',0.375
'[10:58:02.016]',0.375
'[10:58:02.023]',0.365
'[10:58:02.031]',0.365
'[10:58:02.039]',0.355
'[10:58:02.047]',0.345
'[10:58:02.055]',0.345
'[10:58:02.063]',0.335
'[10:58:02.070]',0.325
'[10:58:02.078]',0.315
'[10:58:02.086]',0.315
'[10:58:02.094]',0.305
'[10:58:02.102]',0.295
'[10:58:02.109]',0.285
'[10:58:02.117]',0.285
'[10:58:02.125]',0.275
'[10:58:02.133]',0.275
'[10:58:02.141]',0.265
'[10:58:02.148]',0.255
'[10:58:02.156]',0.245
'[10:58:02.164]',0.245
'[10:58:02.172]',0.225
'[10:58:02.180]',0.225
'[10:58:02.188]',0.215
'[10:58:02.195]',0.205
'[10:58:02.203]',0.195
'[10:58:02.211]',0.185
'[10:58:02.219]',0.175
'[10:58:02.227]',0.165
'[10:58:02.234]',0.145
'[10:58:02.242]',0.135
'[10:58:02.250]',0.125
'[10:58:02.258]',0.105
'[10:58:02.266]',0.085
'[10:58:02.273]',-0.555
'[10:58:02.281]',-0.625
'[10:58:02.289]',-0.555
'[10:58:02.297]',-0.535
'[10:58:02.305]',-0.525
'[10:58:02.313]',-0.525
'[10:58:02.320]',-0.515
'[10:58:02.328]',-0.515
'[10:58:02.336]',-0.515
'[10:58:02.344]',-0.515
'[10:58:02.352]',-0.515
'[10:58:02.359]',-0.515
'[10:58:02.367]',-0.505
'[10:58:02.375]',-0.495
'[10:58:02.383]',-0.495
'[10:58:02.391]',-0.495
'[10:58:02.398]',-0.495
'[10:58:02.406]',-0.485
'[10:58:02.414]',-0.485
'[10:58:02.422]',-0.475
'[10:58:02.430]',-0.475
'[10:58:02.438]',-0.465
'[10:58:02.445]',-0.465
'[10:58:02.453]',-0.455
'[10:58:02.461]',-0.445
'[10:58:02.469]',-0.445
'[10:58:02.477]',-0.435
'[10:58:02.484]',-0.435
'[10:58:02.492]',-0.425
'[10:58:02.500]',-0.415
'[10:58:02.508]',-0.415
'[10:58:02.516]',-0.405
'[10:58:02.523]',-0.395
'[10:58:02.531]',-0.395
'[10:58:02.539]',-0.385
'[10:58:02.547]',-0.385
'[10:58:02.555]',-0.375
'[10:58:02.563]',-0.365
'[10:58:02.570]',-0.355
'[10:58:02.578]',-0.355
'[10:58:02.586]',-0.345
'[10:58:02.594]',-0.345
'[10:58:02.602]',-0.335
'[10:58:02.609]',-0.325
'[10:58:02.617]',-0.325
'[10:58:02.625]',-0.315
'[10:58:02.633]',-0.305
'[10:58:02.641]',-0.295
'[10:58:02.648]',-0.295
'[10:58:02.656]',-0.285
'[10:58:02.664]',-0.275
'[10:58:02.672]',-0.265
'[10:58:02.680]',-0.255
'[10:58:02.688]',-0.245
'[10:58:02.695]',-0.235
'[10:58:02.703]',-0.225
'[10:58:02.711]',-0.215
'[10:58:02.719]',-0.205
'[10:58:02.727]',-0.195
'[10:58:02.734]',-0.185
'[10:58:02.742]',-0.175
'[10:58:02.750]',-0.155
'[10:58:02.758]',-0.145
'[10:58:02.766]',-0.125
'[10:58:02.773]',-0.045
'[10:58:02.781]',0.605
'[10:58:02.789]',0.565
'[10:58:02.797]',0.515
'[10:58:02.805]',0.495
'[10:58:02.813]',0.495
'[10:58:02.820]',0.495
'[10:58:02.828]',0.485
'[10:58:02.836]',0.485
'[10:58:02.844]',0.485
'[10:58:02.852]',0.485
'[10:58:02.859]',0.475
'[10:58:02.867]',0.465
'[10:58:02.875]',0.465
'[10:58:02.883]',0.465
'[10:58:02.891]',0.455
'[10:58:02.898]',0.455
'[10:58:02.906]',0.455
'[10:58:02.914]',0.445
'[10:58:02.922]',0.445
'[10:58:02.930]',0.435
'[10:58:02.938]',0.435
'[10:58:02.945]',0.425
'[10:58:02.953]',0.415
'[10:58:02.961]',0.415
'[10:58:02.969]',0.405
'[10:58:02.977]',0.405
'[10:58:02.984]',0.395
'[10:58:02.992]',0.385
'[10:58:03.000]',0.385
'[10:58:03.008]',0.375
'[10:58:03.016]',0.365
'[10:58:03.023]',0.365
'[10:58:03.031]',0.355
'[10:58:03.039]',0.345
'[10:58:03.047]',0.335
'[10:58:03.055]',0.335
'[10:58:03.063]',0.325
'[10:58:03.070]',0.315
'[10:58:03.078]',0.305
'[10:58:03.086]',0.305
'[10:58:03.094]',0.295
'[10:58:03.102]',0.285
'[10:58:03.109]',0.285
'[10:58:03.117]',0.275
'[10:58:03.125]',0.265
'[10:58:03.133]',0.255
'[10:58:03.141]',0.245
'[10:58:03.148]',0.235
'[10:58:03.156]',0.235
'[10:58:03.164]',0.225
'[10:58:03.172]',0.215
'[10:58:03.180]',0.205
'[10:58:03.188]',0.195
'[10:58:03.195]',0.185
'[10:58:03.203]',0.175
'[10:58:03.211]',0.165
'[10:58:03.219]',0.155
'[10:58:03.227]',0.145
'[10:58:03.234]',0.135
'[10:58:03.242]',0.125
'[10:58:03.250]',0.105
'[10:58:03.258]',0.085
'[10:58:03.266]',0.085
'[10:58:03.273]',-0.595
'[10:58:03.281]',-0.625
'[10:58:03.289]',-0.575
'[10:58:03.297]',-0.545
'[10:58:03.305]',-0.535
'[10:58:03.313]',-0.535
'[10:58:03.320]',-0.535
'[10:58:03.328]',-0.535
'[10:58:03.336]',-0.525
'[10:58:03.344]',-0.525
'[10:58:03.352]',-0.525
'[10:58:03.359]',-0.515
'[10:58:03.367]',-0.515
'[10:58:03.375]',-0.505
'[10:58:03.383]',-0.515
'[10:58:03.391]',-0.505
'[10:58:03.398]',-0.505
'[10:58:03.406]',-0.495
'[10:58:03.414]',-0.495
'[10:58:03.422]',-0.495
'[10:58:03.430]',-0.485
'[10:58:03.438]',-0.475
'[10:58:03.445]',-0.465
'[10:58:03.453]',-0.465
'[10:58:03.461]',-0.465
'[10:58:03.469]',-0.455
'[10:58:03.477]',-0.445
'[10:58:03.484]',-0.445
'[10:58:03.492]',-0.435
'[10:58:03.500]',-0.425
'[10:58:03.508]',-0.425
'[10:58:03.516]',-0.415
'[10:58:03.523]',-0.405
'[10:58:03.531]',-0.405
'[10:58:03.539]',-0.395
'[10:58:03.547]',-0.385
'[10:58:03.555]',-0.375
'[10:58:03.563]',-0.375
'[10:58:03.570]',-0.365
'[10:58:03.578]',-0.355
'[10:58:03.586]',-0.345
'[10:58:03.594]',-0.345
'[10:58:03.602]',-0.335
'[10:58:03.609]',-0.335
'[10:58:03.617]',-0.325
'[10:58:03.625]',-0.315
'[10:58:03.633]',-0.305
'[10:58:03.641]',-0.295
'[10:58:03.648]',-0.295
'[10:58:03.656]',-0.285
'[10:58:03.664]',-0.275
'[10:58:03.672]',-0.265
'[10:58:03.680]',-0.255
'[10:58:03.688]',-0.245
'[10:58:03.695]',-0.235
'[10:58:03.703]',-0.225
'[10:58:03.711]',-0.215
'[10:58:03.719]',-0.205
'[10:58:03.727]',-0.195
'[10:58:03.734]',-0.185
'[10:58:03.742]',-0.175
'[10:58:03.750]',-0.155
'[10:58:03.758]',-0.135
'[10:58:03.766]',-0.115
'[10:58:03.773]',0.445
'[10:58:03.781]',0.595
'[10:58:03.789]',0.535
'[10:58:03.797]',0.495
'[10:58:03.805]',0.485
'[10:58:03.813]',0.485
'[10:58:03.820]',0.485
'[10:58:03.828]',0.485
'[10:58:03.836]',0.475
'[10:58:03.844]',0.475
'[10:58:03.852]',0.475
'[10:58:03.859]',0.465
'[10:58:03.867]',0.465
'[10:58:03.875]',0.465
'[10:58:03.883]',0.455
'[10:58:03.891]',0.455
'[10:58:03.898]',0.445
'[10:58:03.906]',0.445
'[10:58:03.914]',0.445
'[10:58:03.922]',0.435
'[10:58:03.930]',0.425
'[10:58:03.938]',0.425
'[10:58:03.945]',0.415
'[10:58:03.953]',0.415
'[10:58:03.961]',0.395
'[10:58:03.969]',0.395
'[10:58:03.977]',0.395
'[10:58:03.984]',0.385
'[10:58:03.992]',0.375
'[10:58:04.000]',0.375
'[10:58:04.008]',0.365
'[10:58:04.016]',0.355
'[10:58:04.023]',0.345
'[10:58:04.031]',0.345
'[10:58:04.039]',0.335
'[10:58:04.047]',0.325
'[10:58:04.055]',0.315
'[10:58:04.063]',0.315
'[10:58:04.070]',0.305
'[10:58:04.078]',0.295
'[10:58:04.086]',0.295
'[10:58:04.094]',0.285
'[10:58:04.102]',0.275
'[10:58:04.109]',0.265
'[10:58:04.117]',0.265
'[10:58:04.125]',0.255
'[10:58:04.133]',0.255
'[10:58:04.141]',0.235
'[10:58:04.148]',0.235
'[10:58:04.156]',0.215
'[10:58:04.164]',0.215
'[10:58:04.172]',0.205
'[10:58:04.180]',0.195
'[10:58:04.188]',0.185
'[10:58:04.195]',0.175
'[10:58:04.203]',0.165
'[10:58:04.211]',0.155
'[10:58:04.219]',0.145
'[10:58:04.227]',0.135
'[10:58:04.234]',0.125
'[10:58:04.242]',0.115
'[10:58:04.250]',0.105
'[10:58:04.258]',0.085
'[10:58:04.266]',0.055
'[10:58:04.273]',-0.355
'[10:58:04.281]',-0.675
'[10:58:04.289]',-0.595
'[10:58:04.297]',-0.565
'[10:58:04.305]',-0.545
'[10:58:04.313]',-0.545
'[10:58:04.320]',-0.545
'[10:58:04.328]',-0.545
'[10:58:04.336]',-0.535
'[10:58:04.344]',-0.535
'[10:58:04.352]',-0.535
'[10:58:04.359]',-0.535
'[10:58:04.367]',-0.535
'[10:58:04.375]',-0.525
'[10:58:04.383]',-0.525
'[10:58:04.391]',-0.515
'[10:58:04.398]',-0.515
'[10:58:04.406]',-0.505
'[10:58:04.414]',-0.495
'[10:58:04.422]',-0.495
'[10:58:04.430]',-0.485
'[10:58:04.438]',-0.485
'[10:58:04.445]',-0.475
'[10:58:04.453]',-0.465
'[10:58:04.461]',-0.465
'[10:58:04.469]',-0.465
'[10:58:04.477]',-0.455
'[10:58:04.484]',-0.445
'[10:58:04.492]',-0.435
'[10:58:04.500]',-0.425
'[10:58:04.508]',-0.425
'[10:58:04.516]',-0.415
'[10:58:04.523]',-0.415
'[10:58:04.531]',-0.405
'[10:58:04.539]',-0.405
'[10:58:04.547]',-0.395
'[10:58:04.555]',-0.385
'[10:58:04.563]',-0.375
'[10:58:04.570]',-0.375
'[10:58:04.578]',-0.365
'[10:58:04.586]',-0.355
'[10:58:04.594]',-0.345
'[10:58:04.602]',-0.345
'[10:58:04.609]',-0.335
'[10:58:04.617]',-0.325
'[10:58:04.625]',-0.315
'[10:58:04.633]',-0.315
'[10:58:04.641]',-0.305
'[10:58:04.648]',-0.295
'[10:58:04.656]',-0.285
'[10:58:04.664]',-0.275
'[10:58:04.672]',-0.265
'[10:58:04.680]',-0.255
'[10:58:04.688]',-0.245
'[10:58:04.695]',-0.235
'[10:58:04.703]',-0.225
'[10:58:04.711]',-0.215
'[10:58:04.719]',-0.205
'[10:58:04.727]',-0.195
'[10:58:04.734]',-0.185
'[10:58:04.742]',-0.175
'[10:58:04.750]',-0.165
'[10:58:04.758]',-0.145
'[10:58:04.766]',-0.115
'[10:58:04.773]',0.395
'[10:58:04.781]',0.605
'[10:58:04.789]',0.535
'[10:58:04.797]',0.495
'[10:58:04.805]',0.485
'[10:58:04.813]',0.485
'[10:58:04.820]',0.485
'[10:58:04.828]',0.475
'[10:58:04.836]',0.475
'[10:58:04.844]',0.475
'[10:58:04.852]',0.475
'[10:58:04.859]',0.465
'[10:58:04.867]',0.465
'[10:58:04.875]',0.465
'[10:58:04.883]',0.455
'[10:58:04.891]',0.445
'[10:58:04.898]',0.445
'[10:58:04.906]',0.445
'[10:58:04.914]',0.435
'[10:58:04.922]',0.425
'[10:58:04.930]',0.425
'[10:58:04.938]',0.425
'[10:58:04.945]',0.415
'[10:58:04.953]',0.405
'[10:58:04.961]',0.405
'[10:58:04.969]',0.395
'[10:58:04.977]',0.385
'[10:58:04.984]',0.375
'[10:58:04.992]',0.375
'[10:58:05.000]',0.365
'[10:58:05.008]',0.365
'[10:58:05.016]',0.355
'[10:58:05.023]',0.345
'[10:58:05.031]',0.345
'[10:58:05.039]',0.335
'[10:58:05.047]',0.325
'[10:58:05.055]',0.325
'[10:58:05.063]',0.315
'[10:58:05.070]',0.305
'[10:58:05.078]',0.295
'[10:58:05.086]',0.285
'[10:58:05.094]',0.285
'[10:58:05.102]',0.285
'[10:58:05.109]',0.275
'[10:58:05.117]',0.265
'[10:58:05.125]',0.255
'[10:58:05.133]',0.255
'[10:58:05.141]',0.245
'[10:58:05.148]',0.235
'[10:58:05.156]',0.225
'[10:58:05.164]',0.215
'[10:58:05.172]',0.205
'[10:58:05.180]',0.195
'[10:58:05.188]',0.185
'[10:58:05.195]',0.175
'[10:58:05.203]',0.165
'[10:58:05.211]',0.155
'[10:58:05.219]',0.145
'[10:58:05.227]',0.135
'[10:58:05.234]',0.125
'[10:58:05.242]',0.115
'[10:58:05.250]',0.105
'[10:58:05.258]',0.085
'[10:58:05.266]',0.065
'[10:58:05.273]',-0.245
'[10:58:05.281]',-0.675
'[10:58:05.289]',-0.605
'[10:58:05.297]',-0.565
'[10:58:05.305]',-0.555
'[10:58:05.313]',-0.545
'[10:58:05.320]',-0.545
'[10:58:05.328]',-0.545
'[10:58:05.336]',-0.545
'[10:58:05.344]',-0.545
'[10:58:05.352]',-0.535
'[10:58:05.359]',-0.535
'[10:58:05.367]',-0.525
'[10:58:05.375]',-0.525
'[10:58:05.383]',-0.515
'[10:58:05.391]',-0.515
'[10:58:05.398]',-0.505
'[10:58:05.406]',-0.505
'[10:58:05.414]',-0.505
'[10:58:05.422]',-0.495
'[10:58:05.430]',-0.485
'[10:58:05.438]',-0.475
'[10:58:05.445]',-0.475
'[10:58:05.453]',-0.465
'[10:58:05.461]',-0.465
'[10:58:05.469]',-0.455
'[10:58:05.477]',-0.445
'[10:58:05.484]',-0.445
'[10:58:05.492]',-0.435
'[10:58:05.500]',-0.425
'[10:58:05.508]',-0.425
'[10:58:05.516]',-0.425
'[10:58:05.523]',-0.415
'[10:58:05.531]',-0.405
'[10:58:05.539]',-0.395
'[10:58:05.547]',-0.395
'[10:58:05.555]',-0.385
'[10:58:05.563]',-0.385
'[10:58:05.570]',-0.375
'[10:58:05.578]',-0.365
'[10:58:05.586]',-0.365
'[10:58:05.594]',-0.355
'[10:58:05.602]',-0.345
'[10:58:05.609]',-0.345
'[10:58:05.617]',-0.335
'[10:58:05.625]',-0.325
'[10:58:05.633]',-0.315
'[10:58:05.641]',-0.305
'[10:58:05.648]',-0.305
'[10:58:05.656]',-0.295
'[10:58:05.664]',-0.285
'[10:58:05.672]',-0.275
'[10:58:05.680]',-0.265
'[10:58:05.688]',-0.255
'[10:58:05.695]',-0.245
'[10:58:05.703]',-0.235
'[10:58:05.711]',-0.225
'[10:58:05.719]',-0.215
'[10:58:05.727]',-0.205
'[10:58:05.734]',-0.195
'[10:58:05.742]',-0.185
'[10:58:05.750]',-0.175
'[10:58:05.758]',-0.155
'[10:58:05.766]',-0.135
'[10:58:05.773]',0.315
'[10:58:05.781]',0.595
'[10:58:05.789]',0.525
'[10:58:05.797]',0.495
'[10:58:05.805]',0.475
'[10:58:05.813]',0.485
'[10:58:05.820]',0.475
'[10:58:05.828]',0.475
'[10:58:05.836]',0.475
'[10:58:05.844]',0.465
'[10:58:05.852]',0.465
'[10:58:05.859]',0.455
'[10:58:05.867]',0.455
'[10:58:05.875]',0.455
'[10:58:05.883]',0.455
'[10:58:05.891]',0.445
'[10:58:05.898]',0.435
'[10:58:05.906]',0.435
'[10:58:05.914]',0.425
'[10:58:05.922]',0.415
'[10:58:05.930]',0.415
'[10:58:05.938]',0.405
'[10:58:05.945]',0.405
'[10:58:05.953]',0.395
'[10:58:05.961]',0.385
'[10:58:05.969]',0.385
'[10:58:05.977]',0.375
'[10:58:05.984]',0.365
'[10:58:05.992]',0.365
'[10:58:06.000]',0.355
'[10:58:06.008]',0.345
'[10:58:06.016]',0.345
'[10:58:06.023]',0.335
'[10:58:06.031]',0.325
'[10:58:06.039]',0.325
'[10:58:06.047]',0.315
'[10:58:06.055]',0.305
'[10:58:06.063]',0.305
'[10:58:06.070]',0.295
'[10:58:06.078]',0.285
'[10:58:06.086]',0.285
'[10:58:06.094]',0.275
'[10:58:06.102]',0.265
'[10:58:06.109]',0.255
'[10:58:06.117]',0.255
'[10:58:06.125]',0.245
'[10:58:06.133]',0.245
'[10:58:06.141]',0.235
'[10:58:06.148]',0.225
'[10:58:06.156]',0.215
'[10:58:06.164]',0.205
'[10:58:06.172]',0.195
'[10:58:06.180]',0.185
'[10:58:06.188]',0.175
'[10:58:06.195]',0.165
'[10:58:06.203]',0.155
'[10:58:06.211]',0.155
'[10:58:06.219]',0.145
'[10:58:06.227]',0.135
'[10:58:06.234]',0.115
'[10:58:06.242]',0.105
'[10:58:06.250]',0.095
'[10:58:06.258]',0.075
'[10:58:06.266]',0.055
'[10:58:06.273]',-0.315
'[10:58:06.281]',-0.675
'[10:58:06.289]',-0.615
'[10:58:06.297]',-0.575
'[10:58:06.305]',-0.555
'[10:58:06.313]',-0.555
'[10:58:06.320]',-0.545
'[10:58:06.328]',-0.555
'[10:58:06.336]',-0.545
'[10:58:06.344]',-0.545
'[10:58:06.352]',-0.535
'[10:58:06.359]',-0.535
'[10:58:06.367]',-0.545
'[10:58:06.375]',-0.525
'[10:58:06.383]',-0.525
'[10:58:06.391]',-0.525
'[10:58:06.398]',-0.515
'[10:58:06.406]',-0.515
'[10:58:06.414]',-0.505
'[10:58:06.422]',-0.505
'[10:58:06.430]',-0.495
'[10:58:06.438]',-0.485
'[10:58:06.445]',-0.475
'[10:58:06.453]',-0.475
'[10:58:06.461]',-0.475
'[10:58:06.469]',-0.465
'[10:58:06.477]',-0.455
'[10:58:06.484]',-0.455
'[10:58:06.492]',-0.455
'[10:58:06.500]',-0.445
'[10:58:06.508]',-0.435
'[10:58:06.516]',-0.435
'[10:58:06.523]',-0.425
'[10:58:06.531]',-0.415
'[10:58:06.539]',-0.405
'[10:58:06.547]',-0.405
'[10:58:06.555]',-0.395
'[10:58:06.563]',-0.385
'[10:58:06.570]',-0.375
'[10:58:06.578]',-0.375
'[10:58:06.586]',-0.365
'[10:58:06.594]',-0.355
'[10:58:06.602]',-0.355
'[10:58:06.609]',-0.345
'[10:58:06.617]',-0.345
'[10:58:06.625]',-0.335
'[10:58:06.633]',-0.325
'[10:58:06.641]',-0.315
'[10:58:06.648]',-0.315
'[10:58:06.656]',-0.305
'[10:58:06.664]',-0.285
'[10:58:06.672]',-0.285
'[10:58:06.680]',-0.275
'[10:58:06.688]',-0.265
'[10:58:06.695]',-0.255
'[10:58:06.703]',-0.245
'[10:58:06.711]',-0.225
'[10:58:06.719]',-0.225
'[10:58:06.727]',-0.215
'[10:58:06.734]',-0.205
'[10:58:06.742]',-0.185
'[10:58:06.750]',-0.175
'[10:58:06.758]',-0.155
'[10:58:06.766]',-0.135
'[10:58:06.773]',0.335
'[10:58:06.781]',0.595
'[10:58:06.789]',0.535
'[10:58:06.797]',0.495
'[10:58:06.805]',0.485
'[10:58:06.813]',0.475
'[10:58:06.820]',0.475
'[10:58:06.828]',0.475
'[10:58:06.836]',0.475
'[10:58:06.844]',0.465
'[10:58:06.852]',0.455
'[10:58:06.859]',0.455
'[10:58:06.867]',0.455
'[10:58:06.875]',0.455
'[10:58:06.883]',0.445
'[10:58:06.891]',0.435
'[10:58:06.898]',0.435
'[10:58:06.906]',0.435
'[10:58:06.914]',0.425
'[10:58:06.922]',0.415
'[10:58:06.930]',0.415
'[10:58:06.938]',0.405
'[10:58:06.945]',0.395
'[10:58:06.953]',0.395
'[10:58:06.961]',0.395
'[10:58:06.969]',0.385
'[10:58:06.977]',0.375
'[10:58:06.984]',0.375
'[10:58:06.992]',0.365
'[10:58:07.000]',0.365
'[10:58:07.008]',0.355
'[10:58:07.016]',0.345
'[10:58:07.023]',0.345
'[10:58:07.031]',0.335
'[10:58:07.039]',0.335
'[10:58:07.047]',0.325
'[10:58:07.055]',0.315
'[10:58:07.063]',0.315
'[10:58:07.070]',0.305
'[10:58:07.078]',0.295
'[10:58:07.086]',0.285
'[10:58:07.094]',0.285
'[10:58:07.102]',0.285
'[10:58:07.109]',0.275
'[10:58:07.117]',0.265
'[10:58:07.125]',0.255
'[10:58:07.133]',0.255
'[10:58:07.141]',0.245
'[10:58:07.148]',0.235
'[10:58:07.156]',0.225
'[10:58:07.164]',0.225
'[10:58:07.172]',0.215
'[10:58:07.180]',0.195
'[10:58:07.188]',0.195
'[10:58:07.195]',0.185
'[10:58:07.203]',0.175
'[10:58:07.211]',0.155
'[10:58:07.219]',0.155
'[10:58:07.227]',0.145
'[10:58:07.234]',0.135
'[10:58:07.242]',0.115
'[10:58:07.250]',0.115
'[10:58:07.258]',0.095
'[10:58:07.266]',0.065
'[10:58:07.273]',-0.195
'[10:58:07.281]',-0.665
'[10:58:07.289]',-0.595
'[10:58:07.297]',-0.565
'[10:58:07.305]',-0.545
'[10:58:07.313]',-0.545
'[10:58:07.320]',-0.535
'[10:58:07.328]',-0.535
'[10:58:07.336]',-0.535
'[10:58:07.344]',-0.525
'[10:58:07.352]',-0.525
'[10:58:07.359]',-0.525
'[10:58:07.367]',-0.515
'[10:58:07.375]',-0.515
'[10:58:07.383]',-0.515
'[10:58:07.391]',-0.505
'[10:58:07.398]',-0.495
'[10:58:07.406]',-0.495
'[10:58:07.414]',-0.485
'[10:58:07.422]',-0.485
'[10:58:07.430]',-0.475
'[10:58:07.438]',-0.475
'[10:58:07.445]',-0.465
'[10:58:07.453]',-0.465
'[10:58:07.461]',-0.455
'[10:58:07.469]',-0.445
'[10:58:07.477]',-0.445
'[10:58:07.484]',-0.435
'[10:58:07.492]',-0.425
'[10:58:07.500]',-0.425
'[10:58:07.508]',-0.415
'[10:58:07.516]',-0.415
'[10:58:07.523]',-0.405
'[10:58:07.531]',-0.395
'[10:58:07.539]',-0.395
'[10:58:07.547]',-0.385
'[10:58:07.555]',-0.375
'[10:58:07.563]',-0.375
'[10:58:07.570]',-0.365
'[10:58:07.578]',-0.355
'[10:58:07.586]',-0.355
'[10:58:07.594]',-0.345
'[10:58:07.602]',-0.335
'[10:58:07.609]',-0.325
'[10:58:07.617]',-0.325
'[10:58:07.625]',-0.315
'[10:58:07.633]',-0.315
'[10:58:07.641]',-0.305
'[10:58:07.648]',-0.295
'[10:58:07.656]',-0.285
'[10:58:07.664]',-0.285
'[10:58:07.672]',-0.275
'[10:58:07.680]',-0.265
'[10:58:07.688]',-0.255
'[10:58:07.695]',-0.245
'[10:58:07.703]',-0.235
'[10:58:07.711]',-0.225
'[10:58:07.719]',-0.215
'[10:58:07.727]',-0.205
'[10:58:07.734]',-0.195
'[10:58:07.742]',-0.185
'[10:58:07.750]',-0.165
'[10:58:07.758]',-0.155
'[10:58:07.766]',-0.125
'[10:58:07.773]',0.325
'[10:58:07.781]',0.605
'[10:58:07.789]',0.535
'[10:58:07.797]',0.495
'[10:58:07.805]',0.485
'[10:58:07.813]',0.485
'[10:58:07.820]',0.485
'[10:58:07.828]',0.475
'[10:58:07.836]',0.475
'[10:58:07.844]',0.475
'[10:58:07.852]',0.465
'[10:58:07.859]',0.455
'[10:58:07.867]',0.455
'[10:58:07.875]',0.455
'[10:58:07.883]',0.455
'[10:58:07.891]',0.445
'[10:58:07.898]',0.445
'[10:58:07.906]',0.435
'[10:58:07.914]',0.435
'[10:58:07.922]',0.425
'[10:58:07.930]',0.415
'[10:58:07.938]',0.415
'[10:58:07.945]',0.415
'[10:58:07.953]',0.405
'[10:58:07.961]',0.405
'[10:58:07.969]',0.395
'[10:58:07.977]',0.395
'[10:58:07.984]',0.385
'[10:58:07.992]',0.375
'[10:58:08.000]',0.375
'[10:58:08.008]',0.375
'[10:58:08.016]',0.355
'[10:58:08.023]',0.355
'[10:58:08.031]',0.345
'[10:58:08.039]',0.345
'[10:58:08.047]',0.335
'[10:58:08.055]',0.325
'[10:58:08.063]',0.325
'[10:58:08.070]',0.315
'[10:58:08.078]',0.305
'[10:58:08.086]',0.305
'[10:58:08.094]',0.295
'[10:58:08.102]',0.285
'[10:58:08.109]',0.285
'[10:58:08.117]',0.275
'[10:58:08.125]',0.265
'[10:58:08.133]',0.265
'[10:58:08.141]',0.255
'[10:58:08.148]',0.245
'[10:58:08.156]',0.245
'[10:58:08.164]',0.235
'[10:58:08.172]',0.215
'[10:58:08.180]',0.205
'[10:58:08.188]',0.205
'[10:58:08.195]',0.195
'[10:58:08.203]',0.185
'[10:58:08.211]',0.175
'[10:58:08.219]',0.165
'[10:58:08.227]',0.155
'[10:58:08.234]',0.135
'[10:58:08.242]',0.125
'[10:58:08.250]',0.115
'[10:58:08.258]',0.095
'[10:58:08.266]',0.075
'[10:58:08.273]',-0.405
'[10:58:08.281]',-0.655
'[10:58:08.289]',-0.585
'[10:58:08.297]',-0.545
'[10:58:08.305]',-0.535
'[10:58:08.313]',-0.525
'[10:58:08.320]',-0.535
'[10:58:08.328]',-0.525
'[10:58:08.336]',-0.525
'[10:58:08.344]',-0.525
'[10:58:08.352]',-0.515
'[10:58:08.359]',-0.515
'[10:58:08.367]',-0.515
'[10:58:08.375]',-0.515
'[10:58:08.383]',-0.505
'[10:58:08.391]',-0.505
'[10:58:08.398]',-0.495
'[10:58:08.406]',-0.495
'[10:58:08.414]',-0.485
'[10:58:08.422]',-0.485
'[10:58:08.430]',-0.475
'[10:58:08.438]',-0.475
'[10:58:08.445]',-0.465
'[10:58:08.453]',-0.465
'[10:58:08.461]',-0.455
'[10:58:08.469]',-0.445
'[10:58:08.477]',-0.445
'[10:58:08.484]',-0.445
'[10:58:08.492]',-0.425
'[10:58:08.500]',-0.425
'[10:58:08.508]',-0.415
'[10:58:08.516]',-0.415
'[10:58:08.523]',-0.405
'[10:58:08.531]',-0.395
'[10:58:08.539]',-0.395
'[10:58:08.547]',-0.385
'[10:58:08.555]',-0.375
'[10:58:08.563]',-0.375
'[10:58:08.570]',-0.365
'[10:58:08.578]',-0.355
'[10:58:08.586]',-0.355
'[10:58:08.594]',-0.345
'[10:58:08.602]',-0.335
'[10:58:08.609]',-0.335
'[10:58:08.617]',-0.325
'[10:58:08.625]',-0.315
'[10:58:08.633]',-0.315
'[10:58:08.641]',-0.305
'[10:58:08.648]',-0.295
'[10:58:08.656]',-0.285
'[10:58:08.664]',-0.285
'[10:58:08.672]',-0.265
'[10:58:08.680]',-0.265
'[10:58:08.688]',-0.255
'[10:58:08.695]',-0.245
'[10:58:08.703]',-0.235
'[10:58:08.711]',-0.225
'[10:58:08.719]',-0.215
'[10:58:08.727]',-0.205
'[10:58:08.734]',-0.195
'[10:58:08.742]',-0.175
'[10:58:08.750]',-0.165
'[10:58:08.758]',-0.145
'[10:58:08.766]',-0.125
'[10:58:08.773]',0.445
'[10:58:08.781]',0.575
'[10:58:08.789]',0.515
'[10:58:08.797]',0.485
'[10:58:08.805]',0.475
'[10:58:08.813]',0.475
'[10:58:08.820]',0.475
'[10:58:08.828]',0.465
'[10:58:08.836]',0.465
'[10:58:08.844]',0.465
'[10:58:08.852]',0.465
'[10:58:08.859]',0.455
'[10:58:08.867]',0.455
'[10:58:08.875]',0.455
'[10:58:08.883]',0.455
'[10:58:08.891]',0.445
'[10:58:08.898]',0.445
'[10:58:08.906]',0.435
'[10:58:08.914]',0.435
'[10:58:08.922]',0.425
'[10:58:08.930]',0.425
'[10:58:08.938]',0.415
'[10:58:08.945]',0.415
'[10:58:08.953]',0.405
'[10:58:08.961]',0.405
'[10:58:08.969]',0.395
'[10:58:08.977]',0.395
'[10:58:08.984]',0.385
'[10:58:08.992]',0.375
'[10:58:09.000]',0.375
'[10:58:09.008]',0.365
'[10:58:09.016]',0.355
'[10:58:09.023]',0.355
'[10:58:09.031]',0.355
'[10:58:09.039]',0.345
'[10:58:09.047]',0.335
'[10:58:09.055]',0.325
'[10:58:09.063]',0.325
'[10:58:09.070]',0.315
'[10:58:09.078]',0.305
'[10:58:09.086]',0.305
'[10:58:09.094]',0.295
'[10:58:09.102]',0.295
'[10:58:09.109]',0.285
'[10:58:09.117]',0.275
'[10:58:09.125]',0.275
'[10:58:09.133]',0.265
'[10:58:09.141]',0.255
'[10:58:09.148]',0.245
'[10:58:09.156]',0.245
'[10:58:09.164]',0.235
'[10:58:09.172]',0.225
'[10:58:09.180]',0.215
'[10:58:09.188]',0.215
'[10:58:09.195]',0.195
'[10:58:09.203]',0.185
'[10:58:09.211]',0.185
'[10:58:09.219]',0.165
'[10:58:09.227]',0.155
'[10:58:09.234]',0.145
'[10:58:09.242]',0.135
'[10:58:09.250]',0.125
'[10:58:09.258]',0.105
'[10:58:09.266]',0.075
'[10:58:09.273]',-0.475
'[10:58:09.281]',-0.645
'[10:58:09.289]',-0.575
'[10:58:09.297]',-0.535
'[10:58:09.305]',-0.535
'[10:58:09.313]',-0.535
'[10:58:09.320]',-0.525
'[10:58:09.328]',-0.525
'[10:58:09.336]',-0.525
'[10:58:09.344]',-0.525
'[10:58:09.352]',-0.515
'[10:58:09.359]',-0.515
'[10:58:09.367]',-0.515
'[10:58:09.375]',-0.505
'[10:58:09.383]',-0.505
'[10:58:09.391]',-0.505
'[10:58:09.398]',-0.505
'[10:58:09.406]',-0.495
'[10:58:09.414]',-0.485
'[10:58:09.422]',-0.485
'[10:58:09.430]',-0.485
'[10:58:09.438]',-0.465
'[10:58:09.445]',-0.465
'[10:58:09.453]',-0.465
'[10:58:09.461]',-0.455
'[10:58:09.469]',-0.445
'[10:58:09.477]',-0.445
'[10:58:09.484]',-0.435
'[10:58:09.492]',-0.425
'[10:58:09.500]',-0.425
'[10:58:09.508]',-0.415
'[10:58:09.516]',-0.405
'[10:58:09.523]',-0.405
'[10:58:09.531]',-0.395
'[10:58:09.539]',-0.385
'[10:58:09.547]',-0.385
'[10:58:09.555]',-0.385
'[10:58:09.563]',-0.375
'[10:58:09.570]',-0.365
'[10:58:09.578]',-0.355
'[10:58:09.586]',-0.345
'[10:58:09.594]',-0.345
'[10:58:09.602]',-0.335
'[10:58:09.609]',-0.335
'[10:58:09.617]',-0.325
'[10:58:09.625]',-0.315
'[10:58:09.633]',-0.305
'[10:58:09.641]',-0.295
'[10:58:09.648]',-0.295
'[10:58:09.656]',-0.285
'[10:58:09.664]',-0.275
'[10:58:09.672]',-0.265
'[10:58:09.680]',-0.255
'[10:58:09.688]',-0.245
'[10:58:09.695]',-0.235
'[10:58:09.703]',-0.225
'[10:58:09.711]',-0.215
'[10:58:09.719]',-0.205
'[10:58:09.727]',-0.195
'[10:58:09.734]',-0.185
'[10:58:09.742]',-0.175
'[10:58:09.750]',-0.165
'[10:58:09.758]',-0.145
'[10:58:09.766]',-0.125
'[10:58:09.773]',0.425
'[10:58:09.781]',0.585
'[10:58:09.789]',0.525
'[10:58:09.797]',0.495
'[10:58:09.805]',0.485
'[10:58:09.813]',0.485
'[10:58:09.820]',0.485
'[10:58:09.828]',0.475
'[10:58:09.836]',0.475
'[10:58:09.844]',0.475
'[10:58:09.852]',0.475
'[10:58:09.859]',0.465
'[10:58:09.867]',0.465
'[10:58:09.875]',0.465
'[10:58:09.883]',0.455
'[10:58:09.891]',0.455
'[10:58:09.898]',0.455
'[10:58:09.906]',0.455
'[10:58:09.914]',0.445
'[10:58:09.922]',0.445
'[10:58:09.930]',0.435
'[10:58:09.938]',0.435
'[10:58:09.945]',0.425
'[10:58:09.953]',0.415
'[10:58:09.961]',0.415
'[10:58:09.969]',0.405
'[10:58:09.977]',0.405
'[10:58:09.984]',0.395
'[10:58:09.992]',0.395
'[10:58:10.000]',0.385
'[10:58:10.008]',0.375
'[10:58:10.016]',0.375
'[10:58:10.023]',0.365
'[10:58:10.031]',0.365
'[10:58:10.039]',0.355
'[10:58:10.047]',0.345
'[10:58:10.055]',0.345
'[10:58:10.063]',0.335
'[10:58:10.070]',0.325
'[10:58:10.078]',0.315
'[10:58:10.086]',0.315
'[10:58:10.094]',0.305
'[10:58:10.102]',0.305
'[10:58:10.109]',0.285
'[10:58:10.117]',0.285
'[10:58:10.125]',0.275
'[10:58:10.133]',0.275
'[10:58:10.141]',0.265
'[10:58:10.148]',0.255
'[10:58:10.156]',0.245
'[10:58:10.164]',0.245
'[10:58:10.172]',0.235
'[10:58:10.180]',0.215
'[10:58:10.188]',0.215
'[10:58:10.195]',0.205
'[10:58:10.203]',0.185
'[10:58:10.211]',0.175
'[10:58:10.219]',0.175
'[10:58:10.227]',0.165
'[10:58:10.234]',0.155
'[10:58:10.242]',0.135
'[10:58:10.250]',0.125
'[10:58:10.258]',0.115
'[10:58:10.266]',0.085
'[10:58:10.273]',-0.235
'[10:58:10.281]',-0.615
'[10:58:10.289]',-0.565
'[10:58:10.297]',-0.535
'[10:58:10.305]',-0.525
'[10:58:10.313]',-0.515
'[10:58:10.320]',-0.515
'[10:58:10.328]',-0.515
'[10:58:10.336]',-0.515
'[10:58:10.344]',-0.515
'[10:58:10.352]',-0.505
'[10:58:10.359]',-0.505
'[10:58:10.367]',-0.505
'[10:58:10.375]',-0.495
'[10:58:10.383]',-0.495
'[10:58:10.391]',-0.495
'[10:58:10.398]',-0.495
'[10:58:10.406]',-0.485
'[10:58:10.414]',-0.485
'[10:58:10.422]',-0.475
'[10:58:10.430]',-0.475
'[10:58:10.438]',-0.465
'[10:58:10.445]',-0.465
'[10:58:10.453]',-0.455
'[10:58:10.461]',-0.455
'[10:58:10.469]',-0.445
'[10:58:10.477]',-0.435
'[10:58:10.484]',-0.435
'[10:58:10.492]',-0.435
'[10:58:10.500]',-0.425
'[10:58:10.508]',-0.405
'[10:58:10.516]',-0.405
'[10:58:10.523]',-0.405
'[10:58:10.531]',-0.395
'[10:58:10.539]',-0.385
'[10:58:10.547]',-0.385
'[10:58:10.555]',-0.375
'[10:58:10.563]',-0.375
'[10:58:10.570]',-0.365
'[10:58:10.578]',-0.355
'[10:58:10.586]',-0.345
'[10:58:10.594]',-0.335
'[10:58:10.602]',-0.325
'[10:58:10.609]',-0.335
'[10:58:10.617]',-0.325
'[10:58:10.625]',-0.315
'[10:58:10.633]',-0.305
'[10:58:10.641]',-0.305
'[10:58:10.648]',-0.295
'[10:58:10.656]',-0.275
'[10:58:10.664]',-0.265
'[10:58:10.672]',-0.255
'[10:58:10.680]',-0.245
'[10:58:10.688]',-0.245
'[10:58:10.695]',-0.225
'[10:58:10.703]',-0.225
'[10:58:10.711]',-0.215
'[10:58:10.719]',-0.195
'[10:58:10.727]',-0.185
'[10:58:10.734]',-0.175
'[10:58:10.742]',-0.165
'[10:58:10.750]',-0.145
'[10:58:10.758]',-0.135
'[10:58:10.766]',-0.125
'[10:58:10.773]',0.545
'[10:58:10.781]',0.565
'[10:58:10.789]',0.515
'[10:58:10.797]',0.485
'[10:58:10.805]',0.485
'[10:58:10.813]',0.485
'[10:58:10.820]',0.485
'[10:58:10.828]',0.475
'[10:58:10.836]',0.475
'[10:58:10.844]',0.475
'[10:58:10.852]',0.465
'[10:58:10.859]',0.465
'[10:58:10.867]',0.465
'[10:58:10.875]',0.465
'[10:58:10.883]',0.455
'[10:58:10.891]',0.455
'[10:58:10.898]',0.455
'[10:58:10.906]',0.445
'[10:58:10.914]',0.445
'[10:58:10.922]',0.435
'[10:58:10.930]',0.425
'[10:58:10.938]',0.425
'[10:58:10.945]',0.425
'[10:58:10.953]',0.415
'[10:58:10.961]',0.405
'[10:58:10.969]',0.405
'[10:58:10.977]',0.395
'[10:58:10.984]',0.385
'[10:58:10.992]',0.385
'[10:58:11.000]',0.375
'[10:58:11.008]',0.365
'[10:58:11.016]',0.365
'[10:58:11.023]',0.355
'[10:58:11.031]',0.355
'[10:58:11.039]',0.345
'[10:58:11.047]',0.335
'[10:58:11.055]',0.335
'[10:58:11.063]',0.325
'[10:58:11.070]',0.315
'[10:58:11.078]',0.305
'[10:58:11.086]',0.305
'[10:58:11.094]',0.295
'[10:58:11.102]',0.285
'[10:58:11.109]',0.285
'[10:58:11.117]',0.275
'[10:58:11.125]',0.265
'[10:58:11.133]',0.255
'[10:58:11.141]',0.245
'[10:58:11.148]',0.235
'[10:58:11.156]',0.235
'[10:58:11.164]',0.225
'[10:58:11.172]',0.205
'[10:58:11.180]',0.205
'[10:58:11.188]',0.195
'[10:58:11.195]',0.185
'[10:58:11.203]',0.175
'[10:58:11.211]',0.165
'[10:58:11.219]',0.155
'[10:58:11.227]',0.145
'[10:58:11.234]',0.135
'[10:58:11.242]',0.125
'[10:58:11.250]',0.105
'[10:58:11.258]',0.095
'[10:58:11.266]',0.075
'[10:58:11.273]',-0.575
'[10:58:11.281]',-0.635
'[10:58:11.289]',-0.575
'[10:58:11.297]',-0.545
'[10:58:11.305]',-0.535
'[10:58:11.313]',-0.535
'[10:58:11.320]',-0.535
'[10:58:11.328]',-0.525
'[10:58:11.336]',-0.525
'[10:58:11.344]',-0.525
'[10:58:11.352]',-0.525
'[10:58:11.359]',-0.525
'[10:58:11.367]',-0.515
'[10:58:11.375]',-0.515
'[10:58:11.383]',-0.515
'[10:58:11.391]',-0.505
'[10:58:11.398]',-0.495
'[10:58:11.406]',-0.495
'[10:58:11.414]',-0.485
'[10:58:11.422]',-0.485
'[10:58:11.430]',-0.485
'[10:58:11.438]',-0.475
'[10:58:11.445]',-0.465
'[10:58:11.453]',-0.465
'[10:58:11.461]',-0.455
'[10:58:11.469]',-0.455
'[10:58:11.477]',-0.445
'[10:58:11.484]',-0.435
'[10:58:11.492]',-0.435
'[10:58:11.500]',-0.425
'[10:58:11.508]',-0.425
'[10:58:11.516]',-0.415
'[10:58:11.523]',-0.405
'[10:58:11.531]',-0.405
'[10:58:11.539]',-0.395
'[10:58:11.547]',-0.385
'[10:58:11.555]',-0.385
'[10:58:11.563]',-0.375
'[10:58:11.570]',-0.375
'[10:58:11.578]',-0.365
'[10:58:11.586]',-0.355
'[10:58:11.594]',-0.345
'[10:58:11.602]',-0.345
'[10:58:11.609]',-0.335
'[10:58:11.617]',-0.325
'[10:58:11.625]',-0.315
'[10:58:11.633]',-0.305
'[10:58:11.641]',-0.305
'[10:58:11.648]',-0.295
'[10:58:11.656]',-0.285
'[10:58:11.664]',-0.275
'[10:58:11.672]',-0.275
'[10:58:11.680]',-0.265
'[10:58:11.688]',-0.245
'[10:58:11.695]',-0.235
'[10:58:11.703]',-0.235
'[10:58:11.711]',-0.225
'[10:58:11.719]',-0.215
'[10:58:11.727]',-0.195
'[10:58:11.734]',-0.195
'[10:58:11.742]',-0.185
'[10:58:11.750]',-0.165
'[10:58:11.758]',-0.155
'[10:58:11.766]',-0.135
'[10:58:11.773]',0.135
'[10:58:11.781]',0.605
'[10:58:11.789]',0.545
'[10:58:11.797]',0.505
'[10:58:11.805]',0.485
'[10:58:11.813]',0.485
'[10:58:11.820]',0.485
'[10:58:11.828]',0.475
'[10:58:11.836]',0.475
'[10:58:11.844]',0.475
'[10:58:11.852]',0.475
'[10:58:11.859]',0.465
'[10:58:11.867]',0.465
'[10:58:11.875]',0.465
'[10:58:11.883]',0.465
'[10:58:11.891]',0.455
'[10:58:11.898]',0.455
'[10:58:11.906]',0.445
'[10:58:11.914]',0.445
'[10:58:11.922]',0.435
'[10:58:11.930]',0.425
'[10:58:11.938]',0.425
'[10:58:11.945]',0.425
'[10:58:11.953]',0.415
'[10:58:11.961]',0.405
'[10:58:11.969]',0.395
'[10:58:11.977]',0.395
'[10:58:11.984]',0.385
'[10:58:11.992]',0.375
'[10:58:12.000]',0.375
'[10:58:12.008]',0.375
'[10:58:12.016]',0.365
'[10:58:12.023]',0.355
'[10:58:12.031]',0.355
'[10:58:12.039]',0.345
'[10:58:12.047]',0.335
'[10:58:12.055]',0.325
'[10:58:12.063]',0.325
'[10:58:12.070]',0.315
'[10:58:12.078]',0.305
'[10:58:12.086]',0.295
'[10:58:12.094]',0.295
'[10:58:12.102]',0.285
'[10:58:12.109]',0.275
'[10:58:12.117]',0.265
'[10:58:12.125]',0.265
'[10:58:12.133]',0.255
'[10:58:12.141]',0.245
'[10:58:12.148]',0.225
'[10:58:12.156]',0.225
'[10:58:12.164]',0.215
'[10:58:12.172]',0.205
'[10:58:12.180]',0.195
'[10:58:12.188]',0.185
'[10:58:12.195]',0.175
'[10:58:12.203]',0.165
'[10:58:12.211]',0.155
'[10:58:12.219]',0.145
'[10:58:12.227]',0.135
'[10:58:12.234]',0.115
'[10:58:12.242]',0.105
'[10:58:12.250]',0.095
'[10:58:12.258]',0.075
'[10:58:12.266]',0.065
'[10:58:12.273]',-0.605
'[10:58:12.281]',-0.645
'[10:58:12.289]',-0.585
'[10:58:12.297]',-0.555
'[10:58:12.305]',-0.555
'[10:58:12.313]',-0.545
'[10:58:12.320]',-0.545
'[10:58:12.328]',-0.545
'[10:58:12.336]',-0.535
'[10:58:12.344]',-0.535
'[10:58:12.352]',-0.535
'[10:58:12.359]',-0.535
'[10:58:12.367]',-0.525
'[10:58:12.375]',-0.525
'[10:58:12.383]',-0.515
'[10:58:12.391]',-0.515
'[10:58:12.398]',-0.505
'[10:58:12.406]',-0.505
'[10:58:12.414]',-0.495
'[10:58:12.422]',-0.495
'[10:58:12.430]',-0.485
'[10:58:12.438]',-0.485
'[10:58:12.445]',-0.475
'[10:58:12.453]',-0.465
'[10:58:12.461]',-0.465
'[10:58:12.469]',-0.455
'[10:58:12.477]',-0.445
'[10:58:12.484]',-0.445
'[10:58:12.492]',-0.435
'[10:58:12.500]',-0.425
'[10:58:12.508]',-0.425
'[10:58:12.516]',-0.415
'[10:58:12.523]',-0.405
'[10:58:12.531]',-0.405
'[10:58:12.539]',-0.395
'[10:58:12.547]',-0.385
'[10:58:12.555]',-0.385
'[10:58:12.563]',-0.375
'[10:58:12.570]',-0.365
'[10:58:12.578]',-0.365
'[10:58:12.586]',-0.355
'[10:58:12.594]',-0.345
'[10:58:12.602]',-0.335
'[10:58:12.609]',-0.335
'[10:58:12.617]',-0.325
'[10:58:12.625]',-0.315
'[10:58:12.633]',-0.305
'[10:58:12.641]',-0.305
'[10:58:12.648]',-0.295
'[10:58:12.656]',-0.275
'[10:58:12.664]',-0.265
'[10:58:12.672]',-0.265
'[10:58:12.680]',-0.255
'[10:58:12.688]',-0.245
'[10:58:12.695]',-0.235
'[10:58:12.703]',-0.225
'[10:58:12.711]',-0.215
'[10:58:12.719]',-0.205
'[10:58:12.727]',-0.195
'[10:58:12.734]',-0.185
'[10:58:12.742]',-0.165
'[10:58:12.750]',-0.155
'[10:58:12.758]',-0.145
'[10:58:12.766]',-0.125
'[10:58:12.773]',0.495
'[10:58:12.781]',0.595
'[10:58:12.789]',0.535
'[10:58:12.797]',0.505
'[10:58:12.805]',0.495
'[10:58:12.813]',0.485
'[10:58:12.820]',0.485
'[10:58:12.828]',0.475
'[10:58:12.836]',0.485
'[10:58:12.844]',0.475
'[10:58:12.852]',0.475
'[10:58:12.859]',0.465
'[10:58:12.867]',0.465
'[10:58:12.875]',0.465
'[10:58:12.883]',0.455
'[10:58:12.891]',0.445
'[10:58:12.898]',0.445
'[10:58:12.906]',0.435
'[10:58:12.914]',0.435
'[10:58:12.922]',0.425
'[10:58:12.930]',0.425
'[10:58:12.938]',0.415
'[10:58:12.945]',0.405
'[10:58:12.953]',0.395
'[10:58:12.961]',0.395
'[10:58:12.969]',0.385
'[10:58:12.977]',0.375
'[10:58:12.984]',0.365
'[10:58:12.992]',0.365
'[10:58:13.000]',0.355
'[10:58:13.008]',0.345
'[10:58:13.016]',0.335
'[10:58:13.023]',0.335
'[10:58:13.031]',0.325
'[10:58:13.039]',0.315
'[10:58:13.047]',0.305
'[10:58:13.055]',0.305
'[10:58:13.063]',0.295
'[10:58:13.070]',0.295
'[10:58:13.078]',0.285
'[10:58:13.086]',0.275
'[10:58:13.094]',0.275
'[10:58:13.102]',0.265
'[10:58:13.109]',0.255
'[10:58:13.117]',0.255
'[10:58:13.125]',0.245
'[10:58:13.133]',0.235
'[10:58:13.141]',0.225
'[10:58:13.148]',0.225
'[10:58:13.156]',0.215
'[10:58:13.164]',0.205
'[10:58:13.172]',0.195
'[10:58:13.180]',0.185
'[10:58:13.188]',0.175
'[10:58:13.195]',0.165
'[10:58:13.203]',0.155
'[10:58:13.211]',0.145
'[10:58:13.219]',0.145
'[10:58:13.227]',0.135
'[10:58:13.234]',0.125
'[10:58:13.242]',0.105
'[10:58:13.250]',0.095
'[10:58:13.258]',0.085
'[10:58:13.266]',0.055
'[10:58:13.273]',-0.355
'[10:58:13.281]',-0.635
'[10:58:13.289]',-0.585
'[10:58:13.297]',-0.555
'[10:58:13.305]',-0.545
'[10:58:13.313]',-0.535
'[10:58:13.320]',-0.535
'[10:58:13.328]',-0.545
'[10:58:13.336]',-0.535
'[10:58:13.344]',-0.535
'[10:58:13.352]',-0.535
'[10:58:13.359]',-0.535
'[10:58:13.367]',-0.525
'[10:58:13.375]',-0.525
'[10:58:13.383]',-0.515
'[10:58:13.391]',-0.515
'[10:58:13.398]',-0.515
'[10:58:13.406]',-0.505
'[10:58:13.414]',-0.495
'[10:58:13.422]',-0.495
'[10:58:13.430]',-0.485
'[10:58:13.438]',-0.475
'[10:58:13.445]',-0.465
'[10:58:13.453]',-0.465
'[10:58:13.461]',-0.465
'[10:58:13.469]',-0.455
'[10:58:13.477]',-0.445
'[10:58:13.484]',-0.445
'[10:58:13.492]',-0.435
'[10:58:13.500]',-0.425
'[10:58:13.508]',-0.425
'[10:58:13.516]',-0.415
'[10:58:13.523]',-0.415
'[10:58:13.531]',-0.405
'[10:58:13.539]',-0.395
'[10:58:13.547]',-0.395
'[10:58:13.555]',-0.395
'[10:58:13.563]',-0.385
'[10:58:13.570]',-0.375
'[10:58:13.578]',-0.375
'[10:58:13.586]',-0.365
'[10:58:13.594]',-0.355
'[10:58:13.602]',-0.345
'[10:58:13.609]',-0.335
'[10:58:13.617]',-0.335
'[10:58:13.625]',-0.325
'[10:58:13.633]',-0.315
'[10:58:13.641]',-0.305
'[10:58:13.648]',-0.295
'[10:58:13.656]',-0.285
'[10:58:13.664]',-0.275
'[10:58:13.672]',-0.265
'[10:58:13.680]',-0.255
'[10:58:13.688]',-0.245
'[10:58:13.695]',-0.235
'[10:58:13.703]',-0.235
'[10:58:13.711]',-0.215
'[10:58:13.719]',-0.215
'[10:58:13.727]',-0.195
'[10:58:13.734]',-0.185
'[10:58:13.742]',-0.175
'[10:58:13.750]',-0.165
'[10:58:13.758]',-0.145
'[10:58:13.766]',-0.125
'[10:58:13.773]',0.425
'[10:58:13.781]',0.565
'[10:58:13.789]',0.515
'[10:58:13.797]',0.485
'[10:58:13.805]',0.475
'[10:58:13.813]',0.465
'[10:58:13.820]',0.465
'[10:58:13.828]',0.455
'[10:58:13.836]',0.455
'[10:58:13.844]',0.455
'[10:58:13.852]',0.445
'[10:58:13.859]',0.445
'[10:58:13.867]',0.435
'[10:58:13.875]',0.435
'[10:58:13.883]',0.425
'[10:58:13.891]',0.425
'[10:58:13.898]',0.425
'[10:58:13.906]',0.415
'[10:58:13.914]',0.405
'[10:58:13.922]',0.405
'[10:58:13.930]',0.405
'[10:58:13.938]',0.395
'[10:58:13.945]',0.385
'[10:58:13.953]',0.385
'[10:58:13.961]',0.375
'[10:58:13.969]',0.375
'[10:58:13.977]',0.365
'[10:58:13.984]',0.365
'[10:58:13.992]',0.355
'[10:58:14.000]',0.355
'[10:58:14.008]',0.345
'[10:58:14.016]',0.335
'[10:58:14.023]',0.335
'[10:58:14.031]',0.325
'[10:58:14.039]',0.315
'[10:58:14.047]',0.315
'[10:58:14.055]',0.305
'[10:58:14.063]',0.305
'[10:58:14.070]',0.295
'[10:58:14.078]',0.285
'[10:58:14.086]',0.275
'[10:58:14.094]',0.275
'[10:58:14.102]',0.265
'[10:58:14.109]',0.265
'[10:58:14.117]',0.255
'[10:58:14.125]',0.245
'[10:58:14.133]',0.235
'[10:58:14.141]',0.235
'[10:58:14.148]',0.225
'[10:58:14.156]',0.215
'[10:58:14.164]',0.205
'[10:58:14.172]',0.195
'[10:58:14.180]',0.185
'[10:58:14.188]',0.185
'[10:58:14.195]',0.175
'[10:58:14.203]',0.155
'[10:58:14.211]',0.145
'[10:58:14.219]',0.145
'[10:58:14.227]',0.135
'[10:58:14.234]',0.115
'[10:58:14.242]',0.105
'[10:58:14.250]',0.095
'[10:58:14.258]',0.085
'[10:58:14.266]',0.065
'[10:58:14.273]',0.035
'[10:58:14.281]',-0.665
'[10:58:14.289]',-0.635
'[10:58:14.297]',-0.585
'[10:58:14.305]',-0.565
'[10:58:14.313]',-0.555
'[10:58:14.320]',-0.545
'[10:58:14.328]',-0.555
'[10:58:14.336]',-0.555
'[10:58:14.344]',-0.545
'[10:58:14.352]',-0.535
'[10:58:14.359]',-0.535
'[10:58:14.367]',-0.535
'[10:58:14.375]',-0.525
'[10:58:14.383]',-0.525
'[10:58:14.391]',-0.515
'[10:58:14.398]',-0.515
'[10:58:14.406]',-0.505
'[10:58:14.414]',-0.495
'[10:58:14.422]',-0.495
'[10:58:14.430]',-0.485
'[10:58:14.438]',-0.485
'[10:58:14.445]',-0.475
'[10:58:14.453]',-0.475
'[10:58:14.461]',-0.465
'[10:58:14.469]',-0.455
'[10:58:14.477]',-0.445
'[10:58:14.484]',-0.445
'[10:58:14.492]',-0.435
'[10:58:14.500]',-0.435
'[10:58:14.508]',-0.425
'[10:58:14.516]',-0.425
'[10:58:14.523]',-0.415
'[10:58:14.531]',-0.405
'[10:58:14.539]',-0.395
'[10:58:14.547]',-0.395
'[10:58:14.555]',-0.385
'[10:58:14.563]',-0.375
'[10:58:14.570]',-0.375
'[10:58:14.578]',-0.365
'[10:58:14.586]',-0.355
'[10:58:14.594]',-0.355
'[10:58:14.602]',-0.345
'[10:58:14.609]',-0.335
'[10:58:14.617]',-0.325
'[10:58:14.625]',-0.325
'[10:58:14.633]',-0.315
'[10:58:14.641]',-0.315
'[10:58:14.648]',-0.295
'[10:58:14.656]',-0.295
'[10:58:14.664]',-0.285
'[10:58:14.672]',-0.275
'[10:58:14.680]',-0.265
'[10:58:14.688]',-0.255
'[10:58:14.695]',-0.245
'[10:58:14.703]',-0.235
'[10:58:14.711]',-0.225
'[10:58:14.719]',-0.215
'[10:58:14.727]',-0.205
'[10:58:14.734]',-0.195
'[10:58:14.742]',-0.175
'[10:58:14.750]',-0.165
'[10:58:14.758]',-0.155
'[10:58:14.766]',-0.135
'[10:58:14.773]',0.515
'[10:58:14.781]',0.585
'[10:58:14.789]',0.515
'[10:58:14.797]',0.485
'[10:58:14.805]',0.485
'[10:58:14.813]',0.475
'[10:58:14.820]',0.475
'[10:58:14.828]',0.475
'[10:58:14.836]',0.465
'[10:58:14.844]',0.465
'[10:58:14.852]',0.465
'[10:58:14.859]',0.465
'[10:58:14.867]',0.455
'[10:58:14.875]',0.455
'[10:58:14.883]',0.445
'[10:58:14.891]',0.445
'[10:58:14.898]',0.435
'[10:58:14.906]',0.435
'[10:58:14.914]',0.425
'[10:58:14.922]',0.425
'[10:58:14.930]',0.415
'[10:58:14.938]',0.405
'[10:58:14.945]',0.405
'[10:58:14.953]',0.395
'[10:58:14.961]',0.395
'[10:58:14.969]',0.385
'[10:58:14.977]',0.375
'[10:58:14.984]',0.375
'[10:58:14.992]',0.365
'[10:58:15.000]',0.365
'[10:58:15.008]',0.355
'[10:58:15.016]',0.345
'[10:58:15.023]',0.345
'[10:58:15.031]',0.335
'[10:58:15.039]',0.335
'[10:58:15.047]',0.325
'[10:58:15.055]',0.315
'[10:58:15.063]',0.315
'[10:58:15.070]',0.305
'[10:58:15.078]',0.295
'[10:58:15.086]',0.295
'[10:58:15.094]',0.285
'[10:58:15.102]',0.275
'[10:58:15.109]',0.265
'[10:58:15.117]',0.265
'[10:58:15.125]',0.255
'[10:58:15.133]',0.245
'[10:58:15.141]',0.245
'[10:58:15.148]',0.235
'[10:58:15.156]',0.225
'[10:58:15.164]',0.215
'[10:58:15.172]',0.215
'[10:58:15.180]',0.205
'[10:58:15.188]',0.195
'[10:58:15.195]',0.185
'[10:58:15.203]',0.175
'[10:58:15.211]',0.165
'[10:58:15.219]',0.155
'[10:58:15.227]',0.145
'[10:58:15.234]',0.135
'[10:58:15.242]',0.125
'[10:58:15.250]',0.105
'[10:58:15.258]',0.095
'[10:58:15.266]',0.065
'[10:58:15.273]',-0.445
'[10:58:15.281]',-0.655
'[10:58:15.289]',-0.585
'[10:58:15.297]',-0.555
'[10:58:15.305]',-0.545
'[10:58:15.313]',-0.535
'[10:58:15.320]',-0.535
'[10:58:15.328]',-0.535
'[10:58:15.336]',-0.535
'[10:58:15.344]',-0.525
'[10:58:15.352]',-0.525
'[10:58:15.359]',-0.525
'[10:58:15.367]',-0.515
'[10:58:15.375]',-0.515
'[10:58:15.383]',-0.505
'[10:58:15.391]',-0.505
'[10:58:15.398]',-0.495
'[10:58:15.406]',-0.495
'[10:58:15.414]',-0.485
'[10:58:15.422]',-0.485
'[10:58:15.430]',-0.475
'[10:58:15.438]',-0.465
'[10:58:15.445]',-0.465
'[10:58:15.453]',-0.455
'[10:58:15.461]',-0.455
'[10:58:15.469]',-0.445
'[10:58:15.477]',-0.435
'[10:58:15.484]',-0.435
'[10:58:15.492]',-0.425
'[10:58:15.500]',-0.425
'[10:58:15.508]',-0.415
'[10:58:15.516]',-0.405
'[10:58:15.523]',-0.395
'[10:58:15.531]',-0.395
'[10:58:15.539]',-0.385
'[10:58:15.547]',-0.385
'[10:58:15.555]',-0.375
'[10:58:15.563]',-0.365
'[10:58:15.570]',-0.365
'[10:58:15.578]',-0.355
'[10:58:15.586]',-0.345
'[10:58:15.594]',-0.345
'[10:58:15.602]',-0.335
'[10:58:15.609]',-0.325
'[10:58:15.617]',-0.325
'[10:58:15.625]',-0.315
'[10:58:15.633]',-0.305
'[10:58:15.641]',-0.295
'[10:58:15.648]',-0.295
'[10:58:15.656]',-0.285
'[10:58:15.664]',-0.275
'[10:58:15.672]',-0.265
'[10:58:15.680]',-0.255
'[10:58:15.688]',-0.245
'[10:58:15.695]',-0.235
'[10:58:15.703]',-0.225
'[10:58:15.711]',-0.225
'[10:58:15.719]',-0.205
'[10:58:15.727]',-0.195
'[10:58:15.734]',-0.185
'[10:58:15.742]',-0.185
'[10:58:15.750]',-0.165
'[10:58:15.758]',-0.145
'[10:58:15.766]',-0.125
'[10:58:15.773]',0.065
'[10:58:15.781]',0.575
'[10:58:15.789]',0.535
'[10:58:15.797]',0.495
'[10:58:15.805]',0.475
'[10:58:15.813]',0.475
'[10:58:15.820]',0.475
'[10:58:15.828]',0.475
'[10:58:15.836]',0.465
'[10:58:15.844]',0.465
'[10:58:15.852]',0.465
'[10:58:15.859]',0.455
'[10:58:15.867]',0.455
'[10:58:15.875]',0.455
'[10:58:15.883]',0.455
'[10:58:15.891]',0.445
'[10:58:15.898]',0.435
'[10:58:15.906]',0.435
'[10:58:15.914]',0.435
'[10:58:15.922]',0.425
'[10:58:15.930]',0.415
'[10:58:15.938]',0.405
'[10:58:15.945]',0.405
'[10:58:15.953]',0.395
'[10:58:15.961]',0.395
'[10:58:15.969]',0.385
'[10:58:15.977]',0.375
'[10:58:15.984]',0.365
'[10:58:15.992]',0.365
'[10:58:16.000]',0.365
'[10:58:16.008]',0.355
'[10:58:16.016]',0.345
'[10:58:16.023]',0.345
'[10:58:16.031]',0.335
'[10:58:16.039]',0.325
'[10:58:16.047]',0.325
'[10:58:16.055]',0.315
'[10:58:16.063]',0.305
'[10:58:16.070]',0.305
'[10:58:16.078]',0.295
'[10:58:16.086]',0.295
'[10:58:16.094]',0.285
'[10:58:16.102]',0.275
'[10:58:16.109]',0.265
'[10:58:16.117]',0.265
'[10:58:16.125]',0.255
'[10:58:16.133]',0.245
'[10:58:16.141]',0.235
'[10:58:16.148]',0.235
'[10:58:16.156]',0.225
'[10:58:16.164]',0.215
'[10:58:16.172]',0.205
'[10:58:16.180]',0.205
'[10:58:16.188]',0.195
'[10:58:16.195]',0.175
'[10:58:16.203]',0.165
'[10:58:16.211]',0.165
'[10:58:16.219]',0.155
'[10:58:16.227]',0.145
'[10:58:16.234]',0.125
'[10:58:16.242]',0.115
'[10:58:16.250]',0.105
'[10:58:16.258]',0.085
'[10:58:16.266]',0.075
'[10:58:16.273]',-0.555
'[10:58:16.281]',-0.635
'[10:58:16.289]',-0.585
'[10:58:16.297]',-0.555
'[10:58:16.305]',-0.545
'[10:58:16.313]',-0.535
'[10:58:16.320]',-0.535
'[10:58:16.328]',-0.535
'[10:58:16.336]',-0.535
'[10:58:16.344]',-0.535
'[10:58:16.352]',-0.525
'[10:58:16.359]',-0.525
'[10:58:16.367]',-0.525
'[10:58:16.375]',-0.515
'[10:58:16.383]',-0.505
'[10:58:16.391]',-0.505
'[10:58:16.398]',-0.505
'[10:58:16.406]',-0.495
'[10:58:16.414]',-0.495
'[10:58:16.422]',-0.485
'[10:58:16.430]',-0.485
'[10:58:16.438]',-0.475
'[10:58:16.445]',-0.475
'[10:58:16.453]',-0.465
'[10:58:16.461]',-0.465
'[10:58:16.469]',-0.455
'[10:58:16.477]',-0.445
'[10:58:16.484]',-0.445
'[10:58:16.492]',-0.435
'[10:58:16.500]',-0.435
'[10:58:16.508]',-0.425
'[10:58:16.516]',-0.415
'[10:58:16.523]',-0.415
'[10:58:16.531]',-0.405
'[10:58:16.539]',-0.395
'[10:58:16.547]',-0.395
'[10:58:16.555]',-0.395
'[10:58:16.563]',-0.375
'[10:58:16.570]',-0.375
'[10:58:16.578]',-0.375
'[10:58:16.586]',-0.365
'[10:58:16.594]',-0.355
'[10:58:16.602]',-0.345
'[10:58:16.609]',-0.345
'[10:58:16.617]',-0.335
'[10:58:16.625]',-0.325
'[10:58:16.633]',-0.315
'[10:58:16.641]',-0.315
'[10:58:16.648]',-0.305
'[10:58:16.656]',-0.295
'[10:58:16.664]',-0.285
'[10:58:16.672]',-0.285
'[10:58:16.680]',-0.275
'[10:58:16.688]',-0.265
'[10:58:16.695]',-0.255
'[10:58:16.703]',-0.245
'[10:58:16.711]',-0.245
'[10:58:16.719]',-0.225
'[10:58:16.727]',-0.215
'[10:58:16.734]',-0.205
'[10:58:16.742]',-0.195
'[10:58:16.750]',-0.175
'[10:58:16.758]',-0.165
'[10:58:16.766]',-0.135
'[10:58:16.773]',0.365
'[10:58:16.781]',0.585
'[10:58:16.789]',0.515
'[10:58:16.797]',0.485
'[10:58:16.805]',0.475
'[10:58:16.813]',0.465
'[10:58:16.820]',0.465
'[10:58:16.828]',0.465
'[10:58:16.836]',0.455
'[10:58:16.844]',0.455
'[10:58:16.852]',0.455
'[10:58:16.859]',0.445
'[10:58:16.867]',0.445
'[10:58:16.875]',0.445
'[10:58:16.883]',0.435
'[10:58:16.891]',0.435
'[10:58:16.898]',0.425
'[10:58:16.906]',0.425
'[10:58:16.914]',0.415
'[10:58:16.922]',0.405
'[10:58:16.930]',0.405
'[10:58:16.938]',0.395
'[10:58:16.945]',0.395
'[10:58:16.953]',0.385
'[10:58:16.961]',0.385
'[10:58:16.969]',0.375
'[10:58:16.977]',0.375
'[10:58:16.984]',0.365
'[10:58:16.992]',0.365
'[10:58:17.000]',0.355
'[10:58:17.008]',0.345
'[10:58:17.016]',0.345
'[10:58:17.023]',0.335
'[10:58:17.031]',0.335
'[10:58:17.039]',0.325
'[10:58:17.047]',0.325
'[10:58:17.055]',0.315
'[10:58:17.063]',0.305
'[10:58:17.070]',0.305
'[10:58:17.078]',0.295
'[10:58:17.086]',0.295
'[10:58:17.094]',0.285
'[10:58:17.102]',0.285
'[10:58:17.109]',0.275
'[10:58:17.117]',0.265
'[10:58:17.125]',0.255
'[10:58:17.133]',0.255
'[10:58:17.141]',0.245
'[10:58:17.148]',0.245
'[10:58:17.156]',0.235
'[10:58:17.164]',0.225
'[10:58:17.172]',0.215
'[10:58:17.180]',0.215
'[10:58:17.188]',0.195
'[10:58:17.195]',0.195
'[10:58:17.203]',0.185
'[10:58:17.211]',0.175
'[10:58:17.219]',0.165
'[10:58:17.227]',0.155
'[10:58:17.234]',0.145
'[10:58:17.242]',0.135
'[10:58:17.250]',0.125
'[10:58:17.258]',0.115
'[10:58:17.266]',0.085
'[10:58:17.273]',-0.345
'[10:58:17.281]',-0.635
'[10:58:17.289]',-0.575
'[10:58:17.297]',-0.535
'[10:58:17.305]',-0.535
'[10:58:17.313]',-0.525
'[10:58:17.320]',-0.515
'[10:58:17.328]',-0.515
'[10:58:17.336]',-0.525
'[10:58:17.344]',-0.515
'[10:58:17.352]',-0.505
'[10:58:17.359]',-0.505
'[10:58:17.367]',-0.505
'[10:58:17.375]',-0.505
'[10:58:17.383]',-0.495
'[10:58:17.391]',-0.495
'[10:58:17.398]',-0.495
'[10:58:17.406]',-0.485
'[10:58:17.414]',-0.475
'[10:58:17.422]',-0.475
'[10:58:17.430]',-0.465
'[10:58:17.438]',-0.455
'[10:58:17.445]',-0.455
'[10:58:17.453]',-0.445
'[10:58:17.461]',-0.445
'[10:58:17.469]',-0.435
'[10:58:17.477]',-0.425
'[10:58:17.484]',-0.425
'[10:58:17.492]',-0.415
'[10:58:17.500]',-0.405
'[10:58:17.508]',-0.405
'[10:58:17.516]',-0.395
'[10:58:17.523]',-0.395
'[10:58:17.531]',-0.385
'[10:58:17.539]',-0.375
'[10:58:17.547]',-0.375
'[10:58:17.555]',-0.365
'[10:58:17.563]',-0.355
'[10:58:17.570]',-0.345
'[10:58:17.578]',-0.345
'[10:58:17.586]',-0.345
'[10:58:17.594]',-0.325
'[10:58:17.602]',-0.325
'[10:58:17.609]',-0.315
'[10:58:17.617]',-0.315
'[10:58:17.625]',-0.305
'[10:58:17.633]',-0.295
'[10:58:17.641]',-0.295
'[10:58:17.648]',-0.285
'[10:58:17.656]',-0.275
'[10:58:17.664]',-0.265
'[10:58:17.672]',-0.255
'[10:58:17.680]',-0.245
'[10:58:17.688]',-0.245
'[10:58:17.695]',-0.225
'[10:58:17.703]',-0.225
'[10:58:17.711]',-0.215
'[10:58:17.719]',-0.205
'[10:58:17.727]',-0.195
'[10:58:17.734]',-0.185
'[10:58:17.742]',-0.165
'[10:58:17.750]',-0.155
'[10:58:17.758]',-0.135
'[10:58:17.766]',-0.115
'[10:58:17.773]',0.525
'[10:58:17.781]',0.585
'[10:58:17.789]',0.525
'[10:58:17.797]',0.495
'[10:58:17.805]',0.495
'[10:58:17.813]',0.485
'[10:58:17.820]',0.485
'[10:58:17.828]',0.475
'[10:58:17.836]',0.485
'[10:58:17.844]',0.475
'[10:58:17.852]',0.475
'[10:58:17.859]',0.465
'[10:58:17.867]',0.465
'[10:58:17.875]',0.465
'[10:58:17.883]',0.455
'[10:58:17.891]',0.455
'[10:58:17.898]',0.445
'[10:58:17.906]',0.445
'[10:58:17.914]',0.435
'[10:58:17.922]',0.435
'[10:58:17.930]',0.425
'[10:58:17.938]',0.425
'[10:58:17.945]',0.415
'[10:58:17.953]',0.405
'[10:58:17.961]',0.405
'[10:58:17.969]',0.395
'[10:58:17.977]',0.395
'[10:58:17.984]',0.385
'[10:58:17.992]',0.375
'[10:58:18.000]',0.375
'[10:58:18.008]',0.375
'[10:58:18.016]',0.365
'[10:58:18.023]',0.355
'[10:58:18.031]',0.355
'[10:58:18.039]',0.345
'[10:58:18.047]',0.335
'[10:58:18.055]',0.335
'[10:58:18.063]',0.325
'[10:58:18.070]',0.315
'[10:58:18.078]',0.315
'[10:58:18.086]',0.305
'[10:58:18.094]',0.295
'[10:58:18.102]',0.285
'[10:58:18.109]',0.285
'[10:58:18.117]',0.275
'[10:58:18.125]',0.265
'[10:58:18.133]',0.265
'[10:58:18.141]',0.255
'[10:58:18.148]',0.245
'[10:58:18.156]',0.245
'[10:58:18.164]',0.235
'[10:58:18.172]',0.225
'[10:58:18.180]',0.205
'[10:58:18.188]',0.205
'[10:58:18.195]',0.195
'[10:58:18.203]',0.185
'[10:58:18.211]',0.175
'[10:58:18.219]',0.165
'[10:58:18.227]',0.155
'[10:58:18.234]',0.145
'[10:58:18.242]',0.135
'[10:58:18.250]',0.115
'[10:58:18.258]',0.095
'[10:58:18.266]',0.095
'[10:58:18.273]',-0.605
'[10:58:18.281]',-0.625
'[10:58:18.289]',-0.565
'[10:58:18.297]',-0.535
'[10:58:18.305]',-0.525
'[10:58:18.313]',-0.525
'[10:58:18.320]',-0.525
'[10:58:18.328]',-0.525
'[10:58:18.336]',-0.525
'[10:58:18.344]',-0.515
'[10:58:18.352]',-0.515
'[10:58:18.359]',-0.505
'[10:58:18.367]',-0.505
'[10:58:18.375]',-0.505
'[10:58:18.383]',-0.495
'[10:58:18.391]',-0.505
'[10:58:18.398]',-0.485
'[10:58:18.406]',-0.485
'[10:58:18.414]',-0.475
'[10:58:18.422]',-0.475
'[10:58:18.430]',-0.465
'[10:58:18.438]',-0.465
'[10:58:18.445]',-0.455
'[10:58:18.453]',-0.455
'[10:58:18.461]',-0.445
'[10:58:18.469]',-0.445
'[10:58:18.477]',-0.435
'[10:58:18.484]',-0.425
'[10:58:18.492]',-0.425
'[10:58:18.500]',-0.415
'[10:58:18.508]',-0.405
'[10:58:18.516]',-0.405
'[10:58:18.523]',-0.395
'[10:58:18.531]',-0.385
'[10:58:18.539]',-0.385
'[10:58:18.547]',-0.375
'[10:58:18.555]',-0.375
'[10:58:18.563]',-0.365
'[10:58:18.570]',-0.355
'[10:58:18.578]',-0.355
'[10:58:18.586]',-0.345
'[10:58:18.594]',-0.335
'[10:58:18.602]',-0.335
'[10:58:18.609]',-0.325
'[10:58:18.617]',-0.315
'[10:58:18.625]',-0.315
'[10:58:18.633]',-0.305
'[10:58:18.641]',-0.305
'[10:58:18.648]',-0.285
'[10:58:18.656]',-0.285
'[10:58:18.664]',-0.275
'[10:58:18.672]',-0.265
'[10:58:18.680]',-0.255
'[10:58:18.688]',-0.245
'[10:58:18.695]',-0.235
'[10:58:18.703]',-0.235
'[10:58:18.711]',-0.215
'[10:58:18.719]',-0.205
'[10:58:18.727]',-0.205
'[10:58:18.734]',-0.185
'[10:58:18.742]',-0.175
'[10:58:18.750]',-0.155
'[10:58:18.758]',-0.145
'[10:58:18.766]',-0.135
'[10:58:18.773]',0.545
'[10:58:18.781]',0.575
'[10:58:18.789]',0.515
'[10:58:18.797]',0.485
'[10:58:18.805]',0.485
'[10:58:18.813]',0.475
'[10:58:18.820]',0.475
'[10:58:18.828]',0.475
'[10:58:18.836]',0.475
'[10:58:18.844]',0.465
'[10:58:18.852]',0.465
'[10:58:18.859]',0.465
'[10:58:18.867]',0.455
'[10:58:18.875]',0.455
'[10:58:18.883]',0.455
'[10:58:18.891]',0.445
'[10:58:18.898]',0.445
'[10:58:18.906]',0.445
'[10:58:18.914]',0.435
'[10:58:18.922]',0.435
'[10:58:18.930]',0.425
'[10:58:18.938]',0.425
'[10:58:18.945]',0.415
'[10:58:18.953]',0.415
'[10:58:18.961]',0.405
'[10:58:18.969]',0.395
'[10:58:18.977]',0.395
'[10:58:18.984]',0.385
'[10:58:18.992]',0.375
'[10:58:19.000]',0.375
'[10:58:19.008]',0.375
'[10:58:19.016]',0.365
'[10:58:19.023]',0.355
'[10:58:19.031]',0.355
'[10:58:19.039]',0.345
'[10:58:19.047]',0.335
'[10:58:19.055]',0.325
'[10:58:19.063]',0.325
'[10:58:19.070]',0.315
'[10:58:19.078]',0.305
'[10:58:19.086]',0.295
'[10:58:19.094]',0.295
'[10:58:19.102]',0.295
'[10:58:19.109]',0.285
'[10:58:19.117]',0.275
'[10:58:19.125]',0.275
'[10:58:19.133]',0.265
'[10:58:19.141]',0.255
'[10:58:19.148]',0.245
'[10:58:19.156]',0.245
'[10:58:19.164]',0.235
'[10:58:19.172]',0.225
'[10:58:19.180]',0.215
'[10:58:19.188]',0.205
'[10:58:19.195]',0.195
'[10:58:19.203]',0.185
'[10:58:19.211]',0.175
'[10:58:19.219]',0.175
'[10:58:19.227]',0.155
'[10:58:19.234]',0.145
'[10:58:19.242]',0.135
'[10:58:19.250]',0.115
'[10:58:19.258]',0.105
'[10:58:19.266]',0.075
'[10:58:19.273]',-0.365
'[10:58:19.281]',-0.555
'[10:58:19.289]',-0.505
'[10:58:19.297]',-0.475
'[10:58:19.305]',-0.465
'[10:58:19.313]',-0.455
'[10:58:19.320]',-0.445
'[10:58:19.328]',-0.445
'[10:58:19.336]',-0.435
'[10:58:19.344]',-0.425
'[10:58:19.352]',-0.415
'[10:58:19.359]',-0.405
'[10:58:19.367]',-0.405
'[10:58:19.375]',-0.395
'[10:58:19.383]',-0.385
'[10:58:19.391]',-0.385
'[10:58:19.398]',-0.375
'[10:58:19.406]',-0.365
'[10:58:19.414]',-0.355
'[10:58:19.422]',-0.355
'[10:58:19.430]',-0.355
'[10:58:19.438]',-0.345
'[10:58:19.445]',-0.335
'[10:58:19.453]',-0.335
'[10:58:19.461]',-0.335
'[10:58:19.469]',-0.335
'[10:58:19.477]',-0.325
'[10:58:19.484]',-0.325
'[10:58:19.492]',-0.325
'[10:58:19.500]',-0.315
'[10:58:19.508]',-0.315
'[10:58:19.516]',-0.315
'[10:58:19.523]',-0.305
'[10:58:19.531]',-0.305
'[10:58:19.539]',-0.305
'[10:58:19.547]',-0.305
'[10:58:19.555]',-0.305
'[10:58:19.563]',-0.305
'[10:58:19.570]',-0.295
'[10:58:19.578]',-0.295
'[10:58:19.586]',-0.295
'[10:58:19.594]',-0.295
'[10:58:19.602]',-0.295
'[10:58:19.609]',-0.285
'[10:58:19.617]',-0.285
'[10:58:19.625]',-0.285
'[10:58:19.633]',-0.275
'[10:58:19.641]',-0.275
'[10:58:19.648]',-0.265
'[10:58:19.656]',-0.265
'[10:58:19.664]',-0.255
'[10:58:19.672]',-0.245
'[10:58:19.680]',-0.245
'[10:58:19.688]',-0.235
'[10:58:19.695]',-0.225
'[10:58:19.703]',-0.225
'[10:58:19.711]',-0.215
'[10:58:19.719]',-0.205
'[10:58:19.727]',-0.205
'[10:58:19.734]',-0.195
'[10:58:19.742]',-0.175
'[10:58:19.750]',-0.165
'[10:58:19.758]',-0.155
'[10:58:19.766]',-0.135
'[10:58:19.773]',0.465
'[10:58:19.781]',0.555
'[10:58:19.789]',0.505
'[10:58:19.797]',0.475
'[10:58:19.805]',0.465
'[10:58:19.813]',0.465
'[10:58:19.820]',0.465
'[10:58:19.828]',0.455
'[10:58:19.836]',0.455
'[10:58:19.844]',0.455
'[10:58:19.852]',0.455
'[10:58:19.859]',0.445
'[10:58:19.867]',0.445
'[10:58:19.875]',0.445
'[10:58:19.883]',0.435
'[10:58:19.891]',0.435
'[10:58:19.898]',0.435
'[10:58:19.906]',0.425
'[10:58:19.914]',0.425
'[10:58:19.922]',0.415
'[10:58:19.930]',0.415
'[10:58:19.938]',0.405
'[10:58:19.945]',0.405
'[10:58:19.953]',0.395
'[10:58:19.961]',0.385
'[10:58:19.969]',0.385
'[10:58:19.977]',0.375
'[10:58:19.984]',0.365
'[10:58:19.992]',0.365
'[10:58:20.000]',0.365
'[10:58:20.008]',0.355
'[10:58:20.016]',0.345
'[10:58:20.023]',0.335
'[10:58:20.031]',0.335
'[10:58:20.039]',0.335
'[10:58:20.047]',0.315
'[10:58:20.055]',0.315
'[10:58:20.063]',0.315
'[10:58:20.070]',0.305
'[10:58:20.078]',0.295
'[10:58:20.086]',0.285
'[10:58:20.094]',0.285
'[10:58:20.102]',0.275
'[10:58:20.109]',0.265
'[10:58:20.117]',0.265
'[10:58:20.125]',0.255
'[10:58:20.133]',0.245
'[10:58:20.141]',0.235
'[10:58:20.148]',0.225
'[10:58:20.156]',0.225
'[10:58:20.164]',0.215
'[10:58:20.172]',0.205
'[10:58:20.180]',0.195
'[10:58:20.188]',0.185
'[10:58:20.195]',0.175
'[10:58:20.203]',0.165
'[10:58:20.211]',0.155
'[10:58:20.219]',0.145
'[10:58:20.227]',0.135
'[10:58:20.234]',0.125
'[10:58:20.242]',0.115
'[10:58:20.250]',0.105
'[10:58:20.258]',0.085
'[10:58:20.266]',0.065
'[10:58:20.273]',-0.545
'[10:58:20.281]',-0.635
'[10:58:20.289]',-0.575
'[10:58:20.297]',-0.545
'[10:58:20.305]',-0.545
'[10:58:20.313]',-0.535
'[10:58:20.320]',-0.535
'[10:58:20.328]',-0.535
'[10:58:20.336]',-0.535
'[10:58:20.344]',-0.535
'[10:58:20.352]',-0.525
'[10:58:20.359]',-0.525
'[10:58:20.367]',-0.515
'[10:58:20.375]',-0.515
'[10:58:20.383]',-0.515
'[10:58:20.391]',-0.515
'[10:58:20.398]',-0.505
'[10:58:20.406]',-0.495
'[10:58:20.414]',-0.495
'[10:58:20.422]',-0.495
'[10:58:20.430]',-0.485
'[10:58:20.438]',-0.485
'[10:58:20.445]',-0.475
'[10:58:20.453]',-0.475
'[10:58:20.461]',-0.465
'[10:58:20.469]',-0.465
'[10:58:20.477]',-0.445
'[10:58:20.484]',-0.445
'[10:58:20.492]',-0.445
'[10:58:20.500]',-0.435
'[10:58:20.508]',-0.425
'[10:58:20.516]',-0.425
'[10:58:20.523]',-0.415
'[10:58:20.531]',-0.405
'[10:58:20.539]',-0.405
'[10:58:20.547]',-0.395
'[10:58:20.555]',-0.385
'[10:58:20.563]',-0.385
'[10:58:20.570]',-0.375
'[10:58:20.578]',-0.375
'[10:58:20.586]',-0.365
'[10:58:20.594]',-0.355
'[10:58:20.602]',-0.345
'[10:58:20.609]',-0.345
'[10:58:20.617]',-0.335
'[10:58:20.625]',-0.325
'[10:58:20.633]',-0.315
'[10:58:20.641]',-0.315
'[10:58:20.648]',-0.305
'[10:58:20.656]',-0.295
'[10:58:20.664]',-0.285
'[10:58:20.672]',-0.275
'[10:58:20.680]',-0.265
'[10:58:20.688]',-0.255
'[10:58:20.695]',-0.245
'[10:58:20.703]',-0.245
'[10:58:20.711]',-0.225
'[10:58:20.719]',-0.215
'[10:58:20.727]',-0.215
'[10:58:20.734]',-0.195
'[10:58:20.742]',-0.185
'[10:58:20.750]',-0.175
'[10:58:20.758]',-0.155
'[10:58:20.766]',-0.145
'[10:58:20.773]',0.535
'[10:58:20.781]',0.565
'[10:58:20.789]',0.505
'[10:58:20.797]',0.475
'[10:58:20.805]',0.475
'[10:58:20.813]',0.465
'[10:58:20.820]',0.465
'[10:58:20.828]',0.465
'[10:58:20.836]',0.465
'[10:58:20.844]',0.455
'[10:58:20.852]',0.455
'[10:58:20.859]',0.445
'[10:58:20.867]',0.455
'[10:58:20.875]',0.445
'[10:58:20.883]',0.435
'[10:58:20.891]',0.435
'[10:58:20.898]',0.435
'[10:58:20.906]',0.425
'[10:58:20.914]',0.425
'[10:58:20.922]',0.415
'[10:58:20.930]',0.405
'[10:58:20.938]',0.405
'[10:58:20.945]',0.395
'[10:58:20.953]',0.385
'[10:58:20.961]',0.385
'[10:58:20.969]',0.375
'[10:58:20.977]',0.375
'[10:58:20.984]',0.365
'[10:58:20.992]',0.365
'[10:58:21.000]',0.355
'[10:58:21.008]',0.345
'[10:58:21.016]',0.335
'[10:58:21.023]',0.335
'[10:58:21.031]',0.325
'[10:58:21.039]',0.325
'[10:58:21.047]',0.315
'[10:58:21.055]',0.315
'[10:58:21.063]',0.305
'[10:58:21.070]',0.295
'[10:58:21.078]',0.285
'[10:58:21.086]',0.285
'[10:58:21.094]',0.275
'[10:58:21.102]',0.265
'[10:58:21.109]',0.255
'[10:58:21.117]',0.255
'[10:58:21.125]',0.245
'[10:58:21.133]',0.245
'[10:58:21.141]',0.225
'[10:58:21.148]',0.225
'[10:58:21.156]',0.215
'[10:58:21.164]',0.205
'[10:58:21.172]',0.195
'[10:58:21.180]',0.185
'[10:58:21.188]',0.175
'[10:58:21.195]',0.165
'[10:58:21.203]',0.155
'[10:58:21.211]',0.145
'[10:58:21.219]',0.135
'[10:58:21.227]',0.135
'[10:58:21.234]',0.115
'[10:58:21.242]',0.105
'[10:58:21.250]',0.095
'[10:58:21.258]',0.085
'[10:58:21.266]',0.055
'[10:58:21.273]',-0.245
'[10:58:21.281]',-0.655
'[10:58:21.289]',-0.605
'[10:58:21.297]',-0.575
'[10:58:21.305]',-0.555
'[10:58:21.313]',-0.555
'[10:58:21.320]',-0.545
'[10:58:21.328]',-0.555
'[10:58:21.336]',-0.545
'[10:58:21.344]',-0.545
'[10:58:21.352]',-0.545
'[10:58:21.359]',-0.545
'[10:58:21.367]',-0.535
'[10:58:21.375]',-0.535
'[10:58:21.383]',-0.525
'[10:58:21.391]',-0.525
'[10:58:21.398]',-0.525
'[10:58:21.406]',-0.515
'[10:58:21.414]',-0.505
'[10:58:21.422]',-0.505
'[10:58:21.430]',-0.505
'[10:58:21.438]',-0.495
'[10:58:21.445]',-0.485
'[10:58:21.453]',-0.475
'[10:58:21.461]',-0.475
'[10:58:21.469]',-0.465
'[10:58:21.477]',-0.455
'[10:58:21.484]',-0.455
'[10:58:21.492]',-0.455
'[10:58:21.500]',-0.445
'[10:58:21.508]',-0.435
'[10:58:21.516]',-0.425
'[10:58:21.523]',-0.425
'[10:58:21.531]',-0.415
'[10:58:21.539]',-0.405
'[10:58:21.547]',-0.405
'[10:58:21.555]',-0.395
'[10:58:21.563]',-0.385
'[10:58:21.570]',-0.385
'[10:58:21.578]',-0.375
'[10:58:21.586]',-0.375
'[10:58:21.594]',-0.365
'[10:58:21.602]',-0.355
'[10:58:21.609]',-0.345
'[10:58:21.617]',-0.335
'[10:58:21.625]',-0.335
'[10:58:21.633]',-0.325
'[10:58:21.641]',-0.315
'[10:58:21.648]',-0.305
'[10:58:21.656]',-0.295
'[10:58:21.664]',-0.295
'[10:58:21.672]',-0.275
'[10:58:21.680]',-0.275
'[10:58:21.688]',-0.265
'[10:58:21.695]',-0.255
'[10:58:21.703]',-0.245
'[10:58:21.711]',-0.235
'[10:58:21.719]',-0.215
'[10:58:21.727]',-0.215
'[10:58:21.734]',-0.205
'[10:58:21.742]',-0.185
'[10:58:21.750]',-0.175
'[10:58:21.758]',-0.165
'[10:58:21.766]',-0.155
'[10:58:21.773]',0.545
'[10:58:21.781]',0.555
'[10:58:21.789]',0.495
'[10:58:21.797]',0.465
'[10:58:21.805]',0.465
'[10:58:21.813]',0.455
'[10:58:21.820]',0.455
'[10:58:21.828]',0.455
'[10:58:21.836]',0.445
'[10:58:21.844]',0.445
'[10:58:21.852]',0.435
'[10:58:21.859]',0.435
'[10:58:21.867]',0.435
'[10:58:21.875]',0.425
'[10:58:21.883]',0.425
'[10:58:21.891]',0.425
'[10:58:21.898]',0.415
'[10:58:21.906]',0.405
'[10:58:21.914]',0.405
'[10:58:21.922]',0.395
'[10:58:21.930]',0.385
'[10:58:21.938]',0.385
'[10:58:21.945]',0.385
'[10:58:21.953]',0.375
'[10:58:21.961]',0.365
'[10:58:21.969]',0.365
'[10:58:21.977]',0.355
'[10:58:21.984]',0.345
'[10:58:21.992]',0.335
'[10:58:22.000]',0.335
'[10:58:22.008]',0.335
'[10:58:22.016]',0.325
'[10:58:22.023]',0.315
'[10:58:22.031]',0.305
'[10:58:22.039]',0.305
'[10:58:22.047]',0.295
'[10:58:22.055]',0.295
'[10:58:22.063]',0.285
'[10:58:22.070]',0.275
'[10:58:22.078]',0.265
'[10:58:22.086]',0.265
'[10:58:22.094]',0.255
'[10:58:22.102]',0.245
'[10:58:22.109]',0.245
'[10:58:22.117]',0.235
'[10:58:22.125]',0.225
'[10:58:22.133]',0.215
'[10:58:22.141]',0.215
'[10:58:22.148]',0.205
'[10:58:22.156]',0.195
'[10:58:22.164]',0.185
'[10:58:22.172]',0.175
'[10:58:22.180]',0.165
'[10:58:22.188]',0.155
'[10:58:22.195]',0.145
'[10:58:22.203]',0.135
'[10:58:22.211]',0.135
'[10:58:22.219]',0.125
'[10:58:22.227]',0.105
'[10:58:22.234]',0.095
'[10:58:22.242]',0.095
'[10:58:22.250]',0.075
'[10:58:22.258]',0.055
'[10:58:22.266]',0.045
'[10:58:22.273]',-0.615
'[10:58:22.281]',-0.665
'[10:58:22.289]',-0.595
'[10:58:22.297]',-0.575
'[10:58:22.305]',-0.565
'[10:58:22.313]',-0.555
'[10:58:22.320]',-0.555
'[10:58:22.328]',-0.555
'[10:58:22.336]',-0.555
'[10:58:22.344]',-0.545
'[10:58:22.352]',-0.545
'[10:58:22.359]',-0.545
'[10:58:22.367]',-0.545
'[10:58:22.375]',-0.535
'[10:58:22.383]',-0.525
'[10:58:22.391]',-0.525
'[10:58:22.398]',-0.525
'[10:58:22.406]',-0.515
'[10:58:22.414]',-0.505
'[10:58:22.422]',-0.505
'[10:58:22.430]',-0.495
'[10:58:22.438]',-0.495
'[10:58:22.445]',-0.485
'[10:58:22.453]',-0.475
'[10:58:22.461]',-0.475
'[10:58:22.469]',-0.465
'[10:58:22.477]',-0.455
'[10:58:22.484]',-0.455
'[10:58:22.492]',-0.445
'[10:58:22.500]',-0.435
'[10:58:22.508]',-0.425
'[10:58:22.516]',-0.425
'[10:58:22.523]',-0.415
'[10:58:22.531]',-0.415
'[10:58:22.539]',-0.405
'[10:58:22.547]',-0.395
'[10:58:22.555]',-0.395
'[10:58:22.563]',-0.385
'[10:58:22.570]',-0.375
'[10:58:22.578]',-0.375
'[10:58:22.586]',-0.365
'[10:58:22.594]',-0.355
'[10:58:22.602]',-0.345
'[10:58:22.609]',-0.345
'[10:58:22.617]',-0.335
'[10:58:22.625]',-0.325
'[10:58:22.633]',-0.325
'[10:58:22.641]',-0.315
'[10:58:22.648]',-0.305
'[10:58:22.656]',-0.295
'[10:58:22.664]',-0.285
'[10:58:22.672]',-0.275
'[10:58:22.680]',-0.265
'[10:58:22.688]',-0.255
'[10:58:22.695]',-0.245
'[10:58:22.703]',-0.235
'[10:58:22.711]',-0.225
'[10:58:22.719]',-0.215
'[10:58:22.727]',-0.205
'[10:58:22.734]',-0.195
'[10:58:22.742]',-0.185
'[10:58:22.750]',-0.165
'[10:58:22.758]',-0.155
'[10:58:22.766]',-0.125
'[10:58:22.773]',0.425
'[10:58:22.781]',0.595
'[10:58:22.789]',0.525
'[10:58:22.797]',0.485
'[10:58:22.805]',0.475
'[10:58:22.813]',0.475
'[10:58:22.820]',0.475
'[10:58:22.828]',0.465
'[10:58:22.836]',0.465
'[10:58:22.844]',0.465
'[10:58:22.852]',0.455
'[10:58:22.859]',0.455
'[10:58:22.867]',0.455
'[10:58:22.875]',0.445
'[10:58:22.883]',0.445
'[10:58:22.891]',0.445
'[10:58:22.898]',0.435
'[10:58:22.906]',0.425
'[10:58:22.914]',0.425
'[10:58:22.922]',0.415
'[10:58:22.930]',0.415
'[10:58:22.938]',0.405
'[10:58:22.945]',0.405
'[10:58:22.953]',0.395
'[10:58:22.961]',0.395
'[10:58:22.969]',0.385
'[10:58:22.977]',0.375
'[10:58:22.984]',0.375
'[10:58:22.992]',0.365
'[10:58:23.000]',0.355
'[10:58:23.008]',0.355
'[10:58:23.016]',0.345
'[10:58:23.023]',0.335
'[10:58:23.031]',0.335
'[10:58:23.039]',0.325
'[10:58:23.047]',0.325
'[10:58:23.055]',0.315
'[10:58:23.063]',0.315
'[10:58:23.070]',0.305
'[10:58:23.078]',0.295
'[10:58:23.086]',0.295
'[10:58:23.094]',0.285
'[10:58:23.102]',0.275
'[10:58:23.109]',0.265
'[10:58:23.117]',0.265
'[10:58:23.125]',0.255
'[10:58:23.133]',0.255
'[10:58:23.141]',0.245
'[10:58:23.148]',0.235
'[10:58:23.156]',0.225
'[10:58:23.164]',0.215
'[10:58:23.172]',0.205
'[10:58:23.180]',0.195
'[10:58:23.188]',0.185
'[10:58:23.195]',0.175
'[10:58:23.203]',0.165
'[10:58:23.211]',0.155
'[10:58:23.219]',0.155
'[10:58:23.227]',0.145
'[10:58:23.234]',0.135
'[10:58:23.242]',0.115
'[10:58:23.250]',0.105
'[10:58:23.258]',0.085
'[10:58:23.266]',0.055
'[10:58:23.273]',-0.445
'[10:58:23.281]',-0.655
'[10:58:23.289]',-0.575
'[10:58:23.297]',-0.555
'[10:58:23.305]',-0.535
'[10:58:23.313]',-0.535
'[10:58:23.320]',-0.535
'[10:58:23.328]',-0.525
'[10:58:23.336]',-0.525
'[10:58:23.344]',-0.525
'[10:58:23.352]',-0.515
'[10:58:23.359]',-0.525
'[10:58:23.367]',-0.515
'[10:58:23.375]',-0.515
'[10:58:23.383]',-0.505
'[10:58:23.391]',-0.505
'[10:58:23.398]',-0.495
'[10:58:23.406]',-0.495
'[10:58:23.414]',-0.485
'[10:58:23.422]',-0.485
'[10:58:23.430]',-0.475
'[10:58:23.438]',-0.475
'[10:58:23.445]',-0.465
'[10:58:23.453]',-0.455
'[10:58:23.461]',-0.455
'[10:58:23.469]',-0.445
'[10:58:23.477]',-0.435
'[10:58:23.484]',-0.435
'[10:58:23.492]',-0.425
'[10:58:23.500]',-0.425
'[10:58:23.508]',-0.415
'[10:58:23.516]',-0.405
'[10:58:23.523]',-0.405
'[10:58:23.531]',-0.395
'[10:58:23.539]',-0.385
'[10:58:23.547]',-0.385
'[10:58:23.555]',-0.375
'[10:58:23.563]',-0.365
'[10:58:23.570]',-0.365
'[10:58:23.578]',-0.355
'[10:58:23.586]',-0.345
'[10:58:23.594]',-0.345
'[10:58:23.602]',-0.335
'[10:58:23.609]',-0.335
'[10:58:23.617]',-0.325
'[10:58:23.625]',-0.315
'[10:58:23.633]',-0.305
'[10:58:23.641]',-0.305
'[10:58:23.648]',-0.285
'[10:58:23.656]',-0.285
'[10:58:23.664]',-0.275
'[10:58:23.672]',-0.265
'[10:58:23.680]',-0.255
'[10:58:23.688]',-0.245
'[10:58:23.695]',-0.235
'[10:58:23.703]',-0.225
'[10:58:23.711]',-0.215
'[10:58:23.719]',-0.205
'[10:58:23.727]',-0.195
'[10:58:23.734]',-0.185
'[10:58:23.742]',-0.175
'[10:58:23.750]',-0.165
'[10:58:23.758]',-0.145
'[10:58:23.766]',-0.125
'[10:58:23.773]',0.225
'[10:58:23.781]',0.595
'[10:58:23.789]',0.535
'[10:58:23.797]',0.495
'[10:58:23.805]',0.485
'[10:58:23.813]',0.485
'[10:58:23.820]',0.475
'[10:58:23.828]',0.475
'[10:58:23.836]',0.465
'[10:58:23.844]',0.465
'[10:58:23.852]',0.465
'[10:58:23.859]',0.455
'[10:58:23.867]',0.455
'[10:58:23.875]',0.455
'[10:58:23.883]',0.445
'[10:58:23.891]',0.445
'[10:58:23.898]',0.435
'[10:58:23.906]',0.435
'[10:58:23.914]',0.435
'[10:58:23.922]',0.425
'[10:58:23.930]',0.415
'[10:58:23.938]',0.415
'[10:58:23.945]',0.405
'[10:58:23.953]',0.405
'[10:58:23.961]',0.395
'[10:58:23.969]',0.385
'[10:58:23.977]',0.385
'[10:58:23.984]',0.375
'[10:58:23.992]',0.375
'[10:58:24.000]',0.365
'[10:58:24.008]',0.355
'[10:58:24.016]',0.345
'[10:58:24.023]',0.345
'[10:58:24.031]',0.335
'[10:58:24.039]',0.335
'[10:58:24.047]',0.325
'[10:58:24.055]',0.315
'[10:58:24.063]',0.315
'[10:58:24.070]',0.305
'[10:58:24.078]',0.295
'[10:58:24.086]',0.295
'[10:58:24.094]',0.285
'[10:58:24.102]',0.275
'[10:58:24.109]',0.265
'[10:58:24.117]',0.265
'[10:58:24.125]',0.255
'[10:58:24.133]',0.255
'[10:58:24.141]',0.235
'[10:58:24.148]',0.235
'[10:58:24.156]',0.225
'[10:58:24.164]',0.215
'[10:58:24.172]',0.205
'[10:58:24.180]',0.195
'[10:58:24.188]',0.185
'[10:58:24.195]',0.185
'[10:58:24.203]',0.175
'[10:58:24.211]',0.165
'[10:58:24.219]',0.155
'[10:58:24.227]',0.145
'[10:58:24.234]',0.125
'[10:58:24.242]',0.115
'[10:58:24.250]',0.105
'[10:58:24.258]',0.085
'[10:58:24.266]',0.065
'[10:58:24.273]',-0.505
'[10:58:24.281]',-0.645
'[10:58:24.289]',-0.575
'[10:58:24.297]',-0.545
'[10:58:24.305]',-0.545
'[10:58:24.313]',-0.535
'[10:58:24.320]',-0.535
'[10:58:24.328]',-0.535
'[10:58:24.336]',-0.525
'[10:58:24.344]',-0.525
'[10:58:24.352]',-0.525
'[10:58:24.359]',-0.525
'[10:58:24.367]',-0.515
'[10:58:24.375]',-0.515
'[10:58:24.383]',-0.505
'[10:58:24.391]',-0.505
'[10:58:24.398]',-0.505
'[10:58:24.406]',-0.495
'[10:58:24.414]',-0.485
'[10:58:24.422]',-0.485
'[10:58:24.430]',-0.475
'[10:58:24.438]',-0.475
'[10:58:24.445]',-0.465
'[10:58:24.453]',-0.465
'[10:58:24.461]',-0.455
'[10:58:24.469]',-0.445
'[10:58:24.477]',-0.445
'[10:58:24.484]',-0.435
'[10:58:24.492]',-0.435
'[10:58:24.500]',-0.425
'[10:58:24.508]',-0.415
'[10:58:24.516]',-0.405
'[10:58:24.523]',-0.405
'[10:58:24.531]',-0.395
'[10:58:24.539]',-0.395
'[10:58:24.547]',-0.385
'[10:58:24.555]',-0.385
'[10:58:24.563]',-0.375
'[10:58:24.570]',-0.365
'[10:58:24.578]',-0.355
'[10:58:24.586]',-0.355
'[10:58:24.594]',-0.345
'[10:58:24.602]',-0.335
'[10:58:24.609]',-0.335
'[10:58:24.617]',-0.325
'[10:58:24.625]',-0.315
'[10:58:24.633]',-0.315
'[10:58:24.641]',-0.305
'[10:58:24.648]',-0.295
'[10:58:24.656]',-0.285
'[10:58:24.664]',-0.285
'[10:58:24.672]',-0.275
'[10:58:24.680]',-0.265
'[10:58:24.688]',-0.255
'[10:58:24.695]',-0.245
'[10:58:24.703]',-0.235
'[10:58:24.711]',-0.225
'[10:58:24.719]',-0.215
'[10:58:24.727]',-0.205
'[10:58:24.734]',-0.195
'[10:58:24.742]',-0.185
'[10:58:24.750]',-0.165
'[10:58:24.758]',-0.145
'[10:58:24.766]',-0.125
'[10:58:24.773]',0.365
'[10:58:24.781]',0.595
'[10:58:24.789]',0.525
'[10:58:24.797]',0.495
'[10:58:24.805]',0.475
'[10:58:24.813]',0.485
'[10:58:24.820]',0.475
'[10:58:24.828]',0.475
'[10:58:24.836]',0.475
'[10:58:24.844]',0.465
'[10:58:24.852]',0.465
'[10:58:24.859]',0.465
'[10:58:24.867]',0.455
'[10:58:24.875]',0.455
'[10:58:24.883]',0.445
'[10:58:24.891]',0.445
'[10:58:24.898]',0.445
'[10:58:24.906]',0.435
'[10:58:24.914]',0.435
'[10:58:24.922]',0.425
'[10:58:24.930]',0.425
'[10:58:24.938]',0.415
'[10:58:24.945]',0.405
'[10:58:24.953]',0.405
'[10:58:24.961]',0.395
'[10:58:24.969]',0.395
'[10:58:24.977]',0.385
'[10:58:24.984]',0.375
'[10:58:24.992]',0.375
'[10:58:25.000]',0.365
'[10:58:25.008]',0.365
'[10:58:25.016]',0.355
'[10:58:25.023]',0.345
'[10:58:25.031]',0.345
'[10:58:25.039]',0.345
'[10:58:25.047]',0.335
'[10:58:25.055]',0.325
'[10:58:25.063]',0.315
'[10:58:25.070]',0.315
'[10:58:25.078]',0.305
'[10:58:25.086]',0.295
'[10:58:25.094]',0.285
'[10:58:25.102]',0.285
'[10:58:25.109]',0.275
'[10:58:25.117]',0.265
'[10:58:25.125]',0.265
'[10:58:25.133]',0.255
'[10:58:25.141]',0.245
'[10:58:25.148]',0.245
'[10:58:25.156]',0.235
'[10:58:25.164]',0.225
'[10:58:25.172]',0.215
'[10:58:25.180]',0.205
'[10:58:25.188]',0.205
'[10:58:25.195]',0.195
'[10:58:25.203]',0.185
'[10:58:25.211]',0.165
'[10:58:25.219]',0.165
'[10:58:25.227]',0.155
'[10:58:25.234]',0.145
'[10:58:25.242]',0.125
'[10:58:25.250]',0.115
'[10:58:25.258]',0.105
'[10:58:25.266]',0.065
'[10:58:25.273]',-0.365
'[10:58:25.281]',-0.645
'[10:58:25.289]',-0.575
'[10:58:25.297]',-0.545
'[10:58:25.305]',-0.525
'[10:58:25.313]',-0.525
'[10:58:25.320]',-0.525
'[10:58:25.328]',-0.525
'[10:58:25.336]',-0.525
'[10:58:25.344]',-0.515
'[10:58:25.352]',-0.515
'[10:58:25.359]',-0.515
'[10:58:25.367]',-0.505
'[10:58:25.375]',-0.505
'[10:58:25.383]',-0.505
'[10:58:25.391]',-0.495
'[10:58:25.398]',-0.485
'[10:58:25.406]',-0.485
'[10:58:25.414]',-0.475
'[10:58:25.422]',-0.475
'[10:58:25.430]',-0.465
'[10:58:25.438]',-0.465
'[10:58:25.445]',-0.465
'[10:58:25.453]',-0.455
'[10:58:25.461]',-0.445
'[10:58:25.469]',-0.435
'[10:58:25.477]',-0.435
'[10:58:25.484]',-0.425
'[10:58:25.492]',-0.425
'[10:58:25.500]',-0.415
'[10:58:25.508]',-0.405
'[10:58:25.516]',-0.405
'[10:58:25.523]',-0.395
'[10:58:25.531]',-0.395
'[10:58:25.539]',-0.385
'[10:58:25.547]',-0.375
'[10:58:25.555]',-0.365
'[10:58:25.563]',-0.365
'[10:58:25.570]',-0.355
'[10:58:25.578]',-0.355
'[10:58:25.586]',-0.345
'[10:58:25.594]',-0.335
'[10:58:25.602]',-0.335
'[10:58:25.609]',-0.325
'[10:58:25.617]',-0.315
'[10:58:25.625]',-0.305
'[10:58:25.633]',-0.295
'[10:58:25.641]',-0.295
'[10:58:25.648]',-0.285
'[10:58:25.656]',-0.275
'[10:58:25.664]',-0.275
'[10:58:25.672]',-0.265
'[10:58:25.680]',-0.255
'[10:58:25.688]',-0.245
'[10:58:25.695]',-0.235
'[10:58:25.703]',-0.225
'[10:58:25.711]',-0.215
'[10:58:25.719]',-0.205
'[10:58:25.727]',-0.195
'[10:58:25.734]',-0.185
'[10:58:25.742]',-0.175
'[10:58:25.750]',-0.155
'[10:58:25.758]',-0.135
'[10:58:25.766]',-0.125
'[10:58:25.773]',0.375
'[10:58:25.781]',0.585
'[10:58:25.789]',0.525
'[10:58:25.797]',0.495
'[10:58:25.805]',0.485
'[10:58:25.813]',0.475
'[10:58:25.820]',0.485
'[10:58:25.828]',0.475
'[10:58:25.836]',0.465
'[10:58:25.844]',0.465
'[10:58:25.852]',0.465
'[10:58:25.859]',0.455
'[10:58:25.867]',0.455
'[10:58:25.875]',0.455
'[10:58:25.883]',0.455
'[10:58:25.891]',0.445
'[10:58:25.898]',0.445
'[10:58:25.906]',0.435
'[10:58:25.914]',0.425
'[10:58:25.922]',0.425
'[10:58:25.930]',0.415
'[10:58:25.938]',0.415
'[10:58:25.945]',0.405
'[10:58:25.953]',0.405
'[10:58:25.961]',0.395
'[10:58:25.969]',0.385
'[10:58:25.977]',0.385
'[10:58:25.984]',0.375
'[10:58:25.992]',0.375
'[10:58:26.000]',0.365
'[10:58:26.008]',0.355
'[10:58:26.016]',0.345
'[10:58:26.023]',0.345
'[10:58:26.031]',0.335
'[10:58:26.039]',0.335
'[10:58:26.047]',0.325
'[10:58:26.055]',0.315
'[10:58:26.063]',0.315
'[10:58:26.070]',0.305
'[10:58:26.078]',0.295
'[10:58:26.086]',0.295
'[10:58:26.094]',0.285
'[10:58:26.102]',0.275
'[10:58:26.109]',0.275
'[10:58:26.117]',0.265
'[10:58:26.125]',0.255
'[10:58:26.133]',0.245
'[10:58:26.141]',0.235
'[10:58:26.148]',0.235
'[10:58:26.156]',0.225
'[10:58:26.164]',0.215
'[10:58:26.172]',0.205
'[10:58:26.180]',0.195
'[10:58:26.188]',0.185
'[10:58:26.195]',0.175
'[10:58:26.203]',0.165
'[10:58:26.211]',0.165
'[10:58:26.219]',0.145
'[10:58:26.227]',0.145
'[10:58:26.234]',0.125
'[10:58:26.242]',0.115
'[10:58:26.250]',0.105
'[10:58:26.258]',0.085
'[10:58:26.266]',0.065
'[10:58:26.273]',-0.555
'[10:58:26.281]',-0.645
'[10:58:26.289]',-0.575
'[10:58:26.297]',-0.545
'[10:58:26.305]',-0.535
'[10:58:26.313]',-0.535
'[10:58:26.320]',-0.535
'[10:58:26.328]',-0.535
'[10:58:26.336]',-0.535
'[10:58:26.344]',-0.525
'[10:58:26.352]',-0.525
'[10:58:26.359]',-0.525
'[10:58:26.367]',-0.515
'[10:58:26.375]',-0.515
'[10:58:26.383]',-0.505
'[10:58:26.391]',-0.505
'[10:58:26.398]',-0.505
'[10:58:26.406]',-0.495
'[10:58:26.414]',-0.485
'[10:58:26.422]',-0.485
'[10:58:26.430]',-0.485
'[10:58:26.438]',-0.475
'[10:58:26.445]',-0.465
'[10:58:26.453]',-0.465
'[10:58:26.461]',-0.455
'[10:58:26.469]',-0.455
'[10:58:26.477]',-0.445
'[10:58:26.484]',-0.435
'[10:58:26.492]',-0.435
'[10:58:26.500]',-0.425
'[10:58:26.508]',-0.415
'[10:58:26.516]',-0.415
'[10:58:26.523]',-0.405
'[10:58:26.531]',-0.405
'[10:58:26.539]',-0.395
'[10:58:26.547]',-0.385
'[10:58:26.555]',-0.385
'[10:58:26.563]',-0.375
'[10:58:26.570]',-0.365
'[10:58:26.578]',-0.365
'[10:58:26.586]',-0.355
'[10:58:26.594]',-0.355
'[10:58:26.602]',-0.345
'[10:58:26.609]',-0.335
'[10:58:26.617]',-0.325
'[10:58:26.625]',-0.325
'[10:58:26.633]',-0.315
'[10:58:26.641]',-0.305
'[10:58:26.648]',-0.295
'[10:58:26.656]',-0.285
'[10:58:26.664]',-0.275
'[10:58:26.672]',-0.275
'[10:58:26.680]',-0.265
'[10:58:26.688]',-0.255
'[10:58:26.695]',-0.235
'[10:58:26.703]',-0.235
'[10:58:26.711]',-0.225
'[10:58:26.719]',-0.215
'[10:58:26.727]',-0.205
'[10:58:26.734]',-0.195
'[10:58:26.742]',-0.175
'[10:58:26.750]',-0.165
'[10:58:26.758]',-0.145
'[10:58:26.766]',-0.135
'[10:58:26.773]',0.565
'[10:58:26.781]',0.555
'[10:58:26.789]',0.495
'[10:58:26.797]',0.475
'[10:58:26.805]',0.475
'[10:58:26.813]',0.465
'[10:58:26.820]',0.465
'[10:58:26.828]',0.455
'[10:58:26.836]',0.465
'[10:58:26.844]',0.455
'[10:58:26.852]',0.455
'[10:58:26.859]',0.455
'[10:58:26.867]',0.445
'[10:58:26.875]',0.445
'[10:58:26.883]',0.445
'[10:58:26.891]',0.435
'[10:58:26.898]',0.435
'[10:58:26.906]',0.425
'[10:58:26.914]',0.425
'[10:58:26.922]',0.415
'[10:58:26.930]',0.405
'[10:58:26.938]',0.405
'[10:58:26.945]',0.395
'[10:58:26.953]',0.385
'[10:58:26.961]',0.385
'[10:58:26.969]',0.375
'[10:58:26.977]',0.375
'[10:58:26.984]',0.365
'[10:58:26.992]',0.365
'[10:58:27.000]',0.355
'[10:58:27.008]',0.345
'[10:58:27.016]',0.345
'[10:58:27.023]',0.335
'[10:58:27.031]',0.335
'[10:58:27.039]',0.325
'[10:58:27.047]',0.315
'[10:58:27.055]',0.315
'[10:58:27.063]',0.305
'[10:58:27.070]',0.295
'[10:58:27.078]',0.285
'[10:58:27.086]',0.285
'[10:58:27.094]',0.275
'[10:58:27.102]',0.275
'[10:58:27.109]',0.265
'[10:58:27.117]',0.255
'[10:58:27.125]',0.255
'[10:58:27.133]',0.245
'[10:58:27.141]',0.235
'[10:58:27.148]',0.225
'[10:58:27.156]',0.215
'[10:58:27.164]',0.205
'[10:58:27.172]',0.205
'[10:58:27.180]',0.195
'[10:58:27.188]',0.185
'[10:58:27.195]',0.175
'[10:58:27.203]',0.165
'[10:58:27.211]',0.155
'[10:58:27.219]',0.145
'[10:58:27.227]',0.135
'[10:58:27.234]',0.125
'[10:58:27.242]',0.115
'[10:58:27.250]',0.095
'[10:58:27.258]',0.085
'[10:58:27.266]',0.065
'[10:58:27.273]',-0.545
'[10:58:27.281]',-0.625
'[10:58:27.289]',-0.565
'[10:58:27.297]',-0.545
'[10:58:27.305]',-0.535
'[10:58:27.313]',-0.535
'[10:58:27.320]',-0.525
'[10:58:27.328]',-0.525
'[10:58:27.336]',-0.525
'[10:58:27.344]',-0.525
'[10:58:27.352]',-0.515
'[10:58:27.359]',-0.515
'[10:58:27.367]',-0.515
'[10:58:27.375]',-0.505
'[10:58:27.383]',-0.505
'[10:58:27.391]',-0.505
'[10:58:27.398]',-0.495
'[10:58:27.406]',-0.495
'[10:58:27.414]',-0.485
'[10:58:27.422]',-0.485
'[10:58:27.430]',-0.485
'[10:58:27.438]',-0.475
'[10:58:27.445]',-0.465
'[10:58:27.453]',-0.455
'[10:58:27.461]',-0.455
'[10:58:27.469]',-0.445
'[10:58:27.477]',-0.445
'[10:58:27.484]',-0.435
'[10:58:27.492]',-0.435
'[10:58:27.500]',-0.425
'[10:58:27.508]',-0.415
'[10:58:27.516]',-0.415
'[10:58:27.523]',-0.405
'[10:58:27.531]',-0.395
'[10:58:27.539]',-0.395
'[10:58:27.547]',-0.385
'[10:58:27.555]',-0.385
'[10:58:27.563]',-0.375
'[10:58:27.570]',-0.365
'[10:58:27.578]',-0.365
'[10:58:27.586]',-0.355
'[10:58:27.594]',-0.345
'[10:58:27.602]',-0.335
'[10:58:27.609]',-0.335
'[10:58:27.617]',-0.325
'[10:58:27.625]',-0.315
'[10:58:27.633]',-0.315
'[10:58:27.641]',-0.305
'[10:58:27.648]',-0.295
'[10:58:27.656]',-0.285
'[10:58:27.664]',-0.275
'[10:58:27.672]',-0.275
'[10:58:27.680]',-0.265
'[10:58:27.688]',-0.255
'[10:58:27.695]',-0.245
'[10:58:27.703]',-0.235
'[10:58:27.711]',-0.225
'[10:58:27.719]',-0.215
'[10:58:27.727]',-0.205
'[10:58:27.734]',-0.195
'[10:58:27.742]',-0.185
'[10:58:27.750]',-0.175
'[10:58:27.758]',-0.145
'[10:58:27.766]',-0.135
'[10:58:27.773]',0.485
'[10:58:27.781]',0.555
'[10:58:27.789]',0.505
'[10:58:27.797]',0.475
'[10:58:27.805]',0.465
'[10:58:27.813]',0.465
'[10:58:27.820]',0.465
'[10:58:27.828]',0.455
'[10:58:27.836]',0.455
'[10:58:27.844]',0.455
'[10:58:27.852]',0.455
'[10:58:27.859]',0.445
'[10:58:27.867]',0.445
'[10:58:27.875]',0.445
'[10:58:27.883]',0.445
'[10:58:27.891]',0.435
'[10:58:27.898]',0.425
'[10:58:27.906]',0.425
'[10:58:27.914]',0.425
'[10:58:27.922]',0.415
'[10:58:27.930]',0.415
'[10:58:27.938]',0.405
'[10:58:27.945]',0.405
'[10:58:27.953]',0.395
'[10:58:27.961]',0.385
'[10:58:27.969]',0.385
'[10:58:27.977]',0.375
'[10:58:27.984]',0.375
'[10:58:27.992]',0.365
'[10:58:28.000]',0.355
'[10:58:28.008]',0.355
'[10:58:28.016]',0.345
'[10:58:28.023]',0.335
'[10:58:28.031]',0.335
'[10:58:28.039]',0.335
'[10:58:28.047]',0.325
'[10:58:28.055]',0.315
'[10:58:28.063]',0.315
'[10:58:28.070]',0.305
'[10:58:28.078]',0.295
'[10:58:28.086]',0.295
'[10:58:28.094]',0.285
'[10:58:28.102]',0.285
'[10:58:28.109]',0.275
'[10:58:28.117]',0.265
'[10:58:28.125]',0.265
'[10:58:28.133]',0.255
'[10:58:28.141]',0.245
'[10:58:28.148]',0.235
'[10:58:28.156]',0.235
'[10:58:28.164]',0.225
'[10:58:28.172]',0.215
'[10:58:28.180]',0.205
'[10:58:28.188]',0.195
'[10:58:28.195]',0.185
'[10:58:28.203]',0.175
'[10:58:28.211]',0.165
'[10:58:28.219]',0.155
'[10:58:28.227]',0.145
'[10:58:28.234]',0.135
'[10:58:28.242]',0.125
'[10:58:28.250]',0.105
'[10:58:28.258]',0.095
'[10:58:28.266]',0.085
'[10:58:28.273]',-0.595
'[10:58:28.281]',-0.595
'[10:58:28.289]',-0.535
'[10:58:28.297]',-0.515
'[10:58:28.305]',-0.515
'[10:58:28.313]',-0.515
'[10:58:28.320]',-0.505
'[10:58:28.328]',-0.505
'[10:58:28.336]',-0.505
'[10:58:28.344]',-0.495
'[10:58:28.352]',-0.495
'[10:58:28.359]',-0.495
'[10:58:28.367]',-0.495
'[10:58:28.375]',-0.485
'[10:58:28.383]',-0.485
'[10:58:28.391]',-0.475
'[10:58:28.398]',-0.475
'[10:58:28.406]',-0.465
'[10:58:28.414]',-0.465
'[10:58:28.422]',-0.455
'[10:58:28.430]',-0.455
'[10:58:28.438]',-0.445
'[10:58:28.445]',-0.445
'[10:58:28.453]',-0.445
'[10:58:28.461]',-0.435
'[10:58:28.469]',-0.425
'[10:58:28.477]',-0.415
'[10:58:28.484]',-0.415
'[10:58:28.492]',-0.405
'[10:58:28.500]',-0.395
'[10:58:28.508]',-0.395
'[10:58:28.516]',-0.385
'[10:58:28.523]',-0.385
'[10:58:28.531]',-0.375
'[10:58:28.539]',-0.375
'[10:58:28.547]',-0.365
'[10:58:28.555]',-0.355
'[10:58:28.563]',-0.345
'[10:58:28.570]',-0.345
'[10:58:28.578]',-0.335
'[10:58:28.586]',-0.335
'[10:58:28.594]',-0.325
'[10:58:28.602]',-0.315
'[10:58:28.609]',-0.305
'[10:58:28.617]',-0.305
'[10:58:28.625]',-0.295
'[10:58:28.633]',-0.295
'[10:58:28.641]',-0.285
'[10:58:28.648]',-0.275
'[10:58:28.656]',-0.265
'[10:58:28.664]',-0.265
'[10:58:28.672]',-0.255
'[10:58:28.680]',-0.235
'[10:58:28.688]',-0.225
'[10:58:28.695]',-0.225
'[10:58:28.703]',-0.215
'[10:58:28.711]',-0.195
'[10:58:28.719]',-0.195
'[10:58:28.727]',-0.185
'[10:58:28.734]',-0.175
'[10:58:28.742]',-0.155
'[10:58:28.750]',-0.145
'[10:58:28.758]',-0.125
'[10:58:28.766]',-0.125
'[10:58:28.773]',0.545
'[10:58:28.781]',0.565
'[10:58:28.789]',0.505
'[10:58:28.797]',0.485
'[10:58:28.805]',0.475
'[10:58:28.813]',0.475
'[10:58:28.820]',0.475
'[10:58:28.828]',0.475
'[10:58:28.836]',0.465
'[10:58:28.844]',0.465
'[10:58:28.852]',0.465
'[10:58:28.859]',0.465
'[10:58:28.867]',0.465
'[10:58:28.875]',0.455
'[10:58:28.883]',0.455
'[10:58:28.891]',0.445
'[10:58:28.898]',0.445
'[10:58:28.906]',0.445
'[10:58:28.914]',0.435
'[10:58:28.922]',0.435
'[10:58:28.930]',0.425
'[10:58:28.938]',0.425
'[10:58:28.945]',0.415
'[10:58:28.953]',0.415
'[10:58:28.961]',0.405
'[10:58:28.969]',0.405
'[10:58:28.977]',0.395
'[10:58:28.984]',0.385
'[10:58:28.992]',0.385
'[10:58:29.000]',0.375
'[10:58:29.008]',0.375
'[10:58:29.016]',0.365
'[10:58:29.023]',0.355
'[10:58:29.031]',0.355
'[10:58:29.039]',0.345
'[10:58:29.047]',0.335
'[10:58:29.055]',0.335
'[10:58:29.063]',0.325
'[10:58:29.070]',0.315
'[10:58:29.078]',0.315
'[10:58:29.086]',0.305
'[10:58:29.094]',0.305
'[10:58:29.102]',0.295
'[10:58:29.109]',0.285
'[10:58:29.117]',0.275
'[10:58:29.125]',0.275
'[10:58:29.133]',0.265
'[10:58:29.141]',0.265
'[10:58:29.148]',0.255
'[10:58:29.156]',0.245
'[10:58:29.164]',0.235
'[10:58:29.172]',0.225
'[10:58:29.180]',0.215
'[10:58:29.188]',0.205
'[10:58:29.195]',0.205
'[10:58:29.203]',0.195
'[10:58:29.211]',0.185
'[10:58:29.219]',0.175
'[10:58:29.227]',0.165
'[10:58:29.234]',0.155
'[10:58:29.242]',0.135
'[10:58:29.250]',0.135
'[10:58:29.258]',0.115
'[10:58:29.266]',0.085
'[10:58:29.273]',-0.365
'[10:58:29.281]',-0.595
'[10:58:29.289]',-0.535
'[10:58:29.297]',-0.505
'[10:58:29.305]',-0.495
'[10:58:29.313]',-0.495
'[10:58:29.320]',-0.485
'[10:58:29.328]',-0.485
'[10:58:29.336]',-0.485
'[10:58:29.344]',-0.485
'[10:58:29.352]',-0.475
'[10:58:29.359]',-0.475
'[10:58:29.367]',-0.475
'[10:58:29.375]',-0.475
'[10:58:29.383]',-0.465
'[10:58:29.391]',-0.465
'[10:58:29.398]',-0.455
'[10:58:29.406]',-0.455
'[10:58:29.414]',-0.445
'[10:58:29.422]',-0.445
'[10:58:29.430]',-0.435
'[10:58:29.438]',-0.425
'[10:58:29.445]',-0.425
'[10:58:29.453]',-0.425
'[10:58:29.461]',-0.415
'[10:58:29.469]',-0.405
'[10:58:29.477]',-0.405
'[10:58:29.484]',-0.385
'[10:58:29.492]',-0.385
'[10:58:29.500]',-0.375
'[10:58:29.508]',-0.375
'[10:58:29.516]',-0.365
'[10:58:29.523]',-0.355
'[10:58:29.531]',-0.355
'[10:58:29.539]',-0.345
'[10:58:29.547]',-0.335
'[10:58:29.555]',-0.335
'[10:58:29.563]',-0.325
'[10:58:29.570]',-0.315
'[10:58:29.578]',-0.315
'[10:58:29.586]',-0.305
'[10:58:29.594]',-0.295
'[10:58:29.602]',-0.285
'[10:58:29.609]',-0.285
'[10:58:29.617]',-0.275
'[10:58:29.625]',-0.265
'[10:58:29.633]',-0.255
'[10:58:29.641]',-0.245
'[10:58:29.648]',-0.245
'[10:58:29.656]',-0.235
'[10:58:29.664]',-0.225
'[10:58:29.672]',-0.215
'[10:58:29.680]',-0.195
'[10:58:29.688]',-0.195
'[10:58:29.695]',-0.185
'[10:58:29.703]',-0.165
'[10:58:29.711]',-0.165
'[10:58:29.719]',-0.145
'[10:58:29.727]',-0.135
'[10:58:29.734]',-0.125
'[10:58:29.742]',-0.115
'[10:58:29.750]',-0.095
'[10:58:29.758]',-0.075
'[10:58:29.766]',-0.065
'[10:58:29.773]',0.585
'[10:58:29.781]',0.595
'[10:58:29.789]',0.545
'[10:58:29.797]',0.525
'[10:58:29.805]',0.525
'[10:58:29.813]',0.525
'[10:58:29.820]',0.515
'[10:58:29.828]',0.515
'[10:58:29.836]',0.515
'[10:58:29.844]',0.515
'[10:58:29.852]',0.515
'[10:58:29.859]',0.505
'[10:58:29.867]',0.505
'[10:58:29.875]',0.505
'[10:58:29.883]',0.495
'[10:58:29.891]',0.495
'[10:58:29.898]',0.495
'[10:58:29.906]',0.495
'[10:58:29.914]',0.485
'[10:58:29.922]',0.485
'[10:58:29.930]',0.485
'[10:58:29.938]',0.475
'[10:58:29.945]',0.475
'[10:58:29.953]',0.465
'[10:58:29.961]',0.465
'[10:58:29.969]',0.455
'[10:58:29.977]',0.455
'[10:58:29.984]',0.455
'[10:58:29.992]',0.445
'[10:58:30.000]',0.445
'[10:58:30.008]',0.435
'[10:58:30.016]',0.425
'[10:58:30.023]',0.425
'[10:58:30.031]',0.425
'[10:58:30.039]',0.415
'[10:58:30.047]',0.415
'[10:58:30.055]',0.405
'[10:58:30.063]',0.405
'[10:58:30.070]',0.405
'[10:58:30.078]',0.395
'[10:58:30.086]',0.385
'[10:58:30.094]',0.385
'[10:58:30.102]',0.375
'[10:58:30.109]',0.375
'[10:58:30.117]',0.365
'[10:58:30.125]',0.365
'[10:58:30.133]',0.355
'[10:58:30.141]',0.345
'[10:58:30.148]',0.345
'[10:58:30.156]',0.335
'[10:58:30.164]',0.325
'[10:58:30.172]',0.315
'[10:58:30.180]',0.315
'[10:58:30.188]',0.305
'[10:58:30.195]',0.295
'[10:58:30.203]',0.285
'[10:58:30.211]',0.285
'[10:58:30.219]',0.275
'[10:58:30.227]',0.265
'[10:58:30.234]',0.255
'[10:58:30.242]',0.245
'[10:58:30.250]',0.235
'[10:58:30.258]',0.215
'[10:58:30.266]',0.215
'[10:58:30.273]',-0.425
'[10:58:30.281]',-0.455
'[10:58:30.289]',-0.395
'[10:58:30.297]',-0.375
'[10:58:30.305]',-0.365
'[10:58:30.313]',-0.365
'[10:58:30.320]',-0.355
'[10:58:30.328]',-0.355
'[10:58:30.336]',-0.345
'[10:58:30.344]',-0.335
'[10:58:30.352]',-0.335
'[10:58:30.359]',-0.335
'[10:58:30.367]',-0.325
'[10:58:30.375]',-0.325
'[10:58:30.383]',-0.315
'[10:58:30.391]',-0.305
'[10:58:30.398]',-0.305
'[10:58:30.406]',-0.295
'[10:58:30.414]',-0.285
'[10:58:30.422]',-0.285
'[10:58:30.430]',-0.275
'[10:58:30.438]',-0.265
'[10:58:30.445]',-0.255
'[10:58:30.453]',-0.255
'[10:58:30.461]',-0.245
'[10:58:30.469]',-0.235
'[10:58:30.477]',-0.225
'[10:58:30.484]',-0.215
'[10:58:30.492]',-0.205
'[10:58:30.500]',-0.195
'[10:58:30.508]',-0.185
'[10:58:30.516]',-0.185
'[10:58:30.523]',-0.165
'[10:58:30.531]',-0.155
'[10:58:30.539]',-0.155
'[10:58:30.547]',-0.145
'[10:58:30.555]',-0.135
'[10:58:30.563]',-0.115
'[10:58:30.570]',-0.105
'[10:58:30.578]',-0.105
'[10:58:30.586]',-0.085
'[10:58:30.594]',-0.075
'[10:58:30.602]',-0.065
'[10:58:30.609]',-0.055
'[10:58:30.617]',-0.045
'[10:58:30.625]',-0.035
'[10:58:30.633]',-0.025
'[10:58:30.641]',-0.015
'[10:58:30.648]',-0.005
'[10:58:30.656]',0.015
'[10:58:30.664]',0.025
'[10:58:30.672]',0.035
'[10:58:30.680]',0.045
'[10:58:30.688]',0.065
'[10:58:30.695]',0.085
'[10:58:30.703]',0.085
'[10:58:30.711]',0.105
'[10:58:30.719]',0.125
'[10:58:30.727]',0.135
'[10:58:30.734]',0.145
'[10:58:30.742]',0.165
'[10:58:30.750]',0.185
'[10:58:30.758]',0.205
'[10:58:30.766]',0.235
'[10:58:30.773]',0.585
'[10:58:30.781]',0.945
'[10:58:30.789]',0.895
'[10:58:30.797]',0.865
'[10:58:30.805]',0.855
'[10:58:30.813]',0.855
'[10:58:30.820]',0.865
'[10:58:30.828]',0.865
'[10:58:30.836]',0.865
'[10:58:30.844]',0.865
'[10:58:30.852]',0.875
'[10:58:30.859]',0.875
'[10:58:30.867]',0.875
'[10:58:30.875]',0.885
'[10:58:30.883]',0.885
'[10:58:30.891]',0.885
'[10:58:30.898]',0.885
'[10:58:30.906]',0.885
'[10:58:30.914]',0.885
'[10:58:30.922]',0.885
'[10:58:30.930]',0.885
'[10:58:30.938]',0.895
'[10:58:30.945]',0.895
'[10:58:30.953]',0.895
'[10:58:30.961]',0.895
'[10:58:30.969]',0.885
'[10:58:30.977]',0.895
'[10:58:30.984]',0.885
'[10:58:30.992]',0.885
'[10:58:31.000]',0.885
'[10:58:31.008]',0.875
'[10:58:31.016]',0.875
'[10:58:31.023]',0.875
'[10:58:31.031]',0.865
'[10:58:31.039]',0.865
'[10:58:31.047]',0.855
'[10:58:31.055]',0.855
'[10:58:31.063]',0.845
'[10:58:31.070]',0.845
'[10:58:31.078]',0.835
'[10:58:31.086]',0.825
'[10:58:31.094]',0.825
'[10:58:31.102]',0.815
'[10:58:31.109]',0.815
'[10:58:31.117]',0.805
'[10:58:31.125]',0.805
'[10:58:31.133]',0.795
'[10:58:31.141]',0.785
'[10:58:31.148]',0.775
'[10:58:31.156]',0.775
'[10:58:31.164]',0.765
'[10:58:31.172]',0.755
'[10:58:31.180]',0.745
'[10:58:31.188]',0.745
'[10:58:31.195]',0.735
'[10:58:31.203]',0.715
'[10:58:31.211]',0.715
'[10:58:31.219]',0.705
'[10:58:31.227]',0.695
'[10:58:31.234]',0.685
'[10:58:31.242]',0.675
'[10:58:31.250]',0.665
'[10:58:31.258]',0.645
'[10:58:31.266]',0.635
'[10:58:31.273]',-0.035
'[10:58:31.281]',-0.045
'[10:58:31.289]',0.005
'[10:58:31.297]',0.025
'[10:58:31.305]',0.045
'[10:58:31.313]',0.045
'[10:58:31.320]',0.045
'[10:58:31.328]',0.045
'[10:58:31.336]',0.045
'[10:58:31.344]',0.055
'[10:58:31.352]',0.055
'[10:58:31.359]',0.055
'[10:58:31.367]',0.065
'[10:58:31.375]',0.065
'[10:58:31.383]',0.065
'[10:58:31.391]',0.075
'[10:58:31.398]',0.075
'[10:58:31.406]',0.085
'[10:58:31.414]',0.085
'[10:58:31.422]',0.085
'[10:58:31.430]',0.095
'[10:58:31.438]',0.095
'[10:58:31.445]',0.095
'[10:58:31.453]',0.095
'[10:58:31.461]',0.105
'[10:58:31.469]',0.105
'[10:58:31.477]',0.105
'[10:58:31.484]',0.105
'[10:58:31.492]',0.115
'[10:58:31.500]',0.115
'[10:58:31.508]',0.125
'[10:58:31.516]',0.125
'[10:58:31.523]',0.125
'[10:58:31.531]',0.125
'[10:58:31.539]',0.125
'[10:58:31.547]',0.135
'[10:58:31.555]',0.135
'[10:58:31.563]',0.145
'[10:58:31.570]',0.145
'[10:58:31.578]',0.145
'[10:58:31.586]',0.155
'[10:58:31.594]',0.155
'[10:58:31.602]',0.155
'[10:58:31.609]',0.155
'[10:58:31.617]',0.165
'[10:58:31.625]',0.165
'[10:58:31.633]',0.175
'[10:58:31.641]',0.175
'[10:58:31.648]',0.175
'[10:58:31.656]',0.185
'[10:58:31.664]',0.195
'[10:58:31.672]',0.195
'[10:58:31.680]',0.195
'[10:58:31.688]',0.205
'[10:58:31.695]',0.215
'[10:58:31.703]',0.215
'[10:58:31.711]',0.215
'[10:58:31.719]',0.225
'[10:58:31.727]',0.235
'[10:58:31.734]',0.245
'[10:58:31.742]',0.255
'[10:58:31.750]',0.265
'[10:58:31.758]',0.275
'[10:58:31.766]',0.285
'[10:58:31.773]',0.895
'[10:58:31.781]',0.975
'[10:58:31.789]',0.905
'[10:58:31.797]',0.875
'[10:58:31.805]',0.865
'[10:58:31.813]',0.855
'[10:58:31.820]',0.845
'[10:58:31.828]',0.845
'[10:58:31.836]',0.835
'[10:58:31.844]',0.825
'[10:58:31.852]',0.815
'[10:58:31.859]',0.815
'[10:58:31.867]',0.805
'[10:58:31.875]',0.805
'[10:58:31.883]',0.795
'[10:58:31.891]',0.785
'[10:58:31.898]',0.775
'[10:58:31.906]',0.775
'[10:58:31.914]',0.765
'[10:58:31.922]',0.755
'[10:58:31.930]',0.745
'[10:58:31.938]',0.745
'[10:58:31.945]',0.735
'[10:58:31.953]',0.725
'[10:58:31.961]',0.715
'[10:58:31.969]',0.705
'[10:58:31.977]',0.705
'[10:58:31.984]',0.695
'[10:58:31.992]',0.685
'[10:58:32.000]',0.675
'[10:58:32.008]',0.665
'[10:58:32.016]',0.655
'[10:58:32.023]',0.655
'[10:58:32.031]',0.645
'[10:58:32.039]',0.635
'[10:58:32.047]',0.625
'[10:58:32.055]',0.615
'[10:58:32.063]',0.615
'[10:58:32.070]',0.605
'[10:58:32.078]',0.595
'[10:58:32.086]',0.585
'[10:58:32.094]',0.585
'[10:58:32.102]',0.575
'[10:58:32.109]',0.565
'[10:58:32.117]',0.555
'[10:58:32.125]',0.545
'[10:58:32.133]',0.535
'[10:58:32.141]',0.525
'[10:58:32.148]',0.515
'[10:58:32.156]',0.505
'[10:58:32.164]',0.495
'[10:58:32.172]',0.485
'[10:58:32.180]',0.475
'[10:58:32.188]',0.465
'[10:58:32.195]',0.455
'[10:58:32.203]',0.445
'[10:58:32.211]',0.425
'[10:58:32.219]',0.415
'[10:58:32.227]',0.415
'[10:58:32.234]',0.395
'[10:58:32.242]',0.385
'[10:58:32.250]',0.365
'[10:58:32.258]',0.355
'[10:58:32.266]',0.335
'[10:58:32.273]',-0.315
'[10:58:32.281]',-0.365
'[10:58:32.289]',-0.295
'[10:58:32.297]',-0.275
'[10:58:32.305]',-0.265
'[10:58:32.313]',-0.265
'[10:58:32.320]',-0.265
'[10:58:32.328]',-0.265
'[10:58:32.336]',-0.255
'[10:58:32.344]',-0.265
'[10:58:32.352]',-0.265
'[10:58:32.359]',-0.255
'[10:58:32.367]',-0.255
'[10:58:32.375]',-0.255
'[10:58:32.383]',-0.255
'[10:58:32.391]',-0.245
'[10:58:32.398]',-0.245
'[10:58:32.406]',-0.245
'[10:58:32.414]',-0.245
'[10:58:32.422]',-0.245
'[10:58:32.430]',-0.235
'[10:58:32.438]',-0.235
'[10:58:32.445]',-0.235
'[10:58:32.453]',-0.235
'[10:58:32.461]',-0.235
'[10:58:32.469]',-0.235
'[10:58:32.477]',-0.235
'[10:58:32.484]',-0.235
'[10:58:32.492]',-0.225
'[10:58:32.500]',-0.225
'[10:58:32.508]',-0.225
'[10:58:32.516]',-0.225
'[10:58:32.523]',-0.215
'[10:58:32.531]',-0.215
'[10:58:32.539]',-0.215
'[10:58:32.547]',-0.215
'[10:58:32.555]',-0.215
'[10:58:32.563]',-0.205
'[10:58:32.570]',-0.205
'[10:58:32.578]',-0.205
'[10:58:32.586]',-0.205
'[10:58:32.594]',-0.195
'[10:58:32.602]',-0.195
'[10:58:32.609]',-0.195
'[10:58:32.617]',-0.185
'[10:58:32.625]',-0.185
'[10:58:32.633]',-0.185
'[10:58:32.641]',-0.175
'[10:58:32.648]',-0.175
'[10:58:32.656]',-0.175
'[10:58:32.664]',-0.165
'[10:58:32.672]',-0.165
'[10:58:32.680]',-0.155
'[10:58:32.688]',-0.155
'[10:58:32.695]',-0.145
'[10:58:32.703]',-0.145
'[10:58:32.711]',-0.135
'[10:58:32.719]',-0.125
'[10:58:32.727]',-0.125
'[10:58:32.734]',-0.115
'[10:58:32.742]',-0.105
'[10:58:32.750]',-0.105
'[10:58:32.758]',-0.085
'[10:58:32.766]',-0.065
'[10:58:32.773]',0.515
'[10:58:32.781]',0.615
'[10:58:32.789]',0.555
'[10:58:32.797]',0.525
'[10:58:32.805]',0.505
'[10:58:32.813]',0.505
'[10:58:32.820]',0.495
'[10:58:32.828]',0.485
'[10:58:32.836]',0.485
'[10:58:32.844]',0.485
'[10:58:32.852]',0.475
'[10:58:32.859]',0.465
'[10:58:32.867]',0.465
'[10:58:32.875]',0.455
'[10:58:32.883]',0.445
'[10:58:32.891]',0.445
'[10:58:32.898]',0.435
'[10:58:32.906]',0.435
'[10:58:32.914]',0.425
'[10:58:32.922]',0.415
'[10:58:32.930]',0.415
'[10:58:32.938]',0.405
'[10:58:32.945]',0.405
'[10:58:32.953]',0.395
'[10:58:32.961]',0.395
'[10:58:32.969]',0.385
'[10:58:32.977]',0.385
'[10:58:32.984]',0.375
'[10:58:32.992]',0.375
'[10:58:33.000]',0.365
'[10:58:33.008]',0.355
'[10:58:33.016]',0.355
'[10:58:33.023]',0.345
'[10:58:33.031]',0.335
'[10:58:33.039]',0.335
'[10:58:33.047]',0.325
'[10:58:33.055]',0.325
'[10:58:33.063]',0.315
'[10:58:33.070]',0.305
'[10:58:33.078]',0.295
'[10:58:33.086]',0.295
'[10:58:33.094]',0.285
'[10:58:33.102]',0.275
'[10:58:33.109]',0.265
'[10:58:33.117]',0.265
'[10:58:33.125]',0.255
'[10:58:33.133]',0.245
'[10:58:33.141]',0.235
'[10:58:33.148]',0.235
'[10:58:33.156]',0.215
'[10:58:33.164]',0.215
'[10:58:33.172]',0.195
'[10:58:33.180]',0.195
'[10:58:33.188]',0.175
'[10:58:33.195]',0.175
'[10:58:33.203]',0.155
'[10:58:33.211]',0.145
'[10:58:33.219]',0.135
'[10:58:33.227]',0.125
'[10:58:33.234]',0.115
'[10:58:33.242]',0.105
'[10:58:33.250]',0.085
'[10:58:33.258]',0.065
'[10:58:33.266]',0.045
'[10:58:33.273]',-0.595
'[10:58:33.281]',-0.645
'[10:58:33.289]',-0.585
'[10:58:33.297]',-0.565
'[10:58:33.305]',-0.565
'[10:58:33.313]',-0.555
'[10:58:33.320]',-0.565
'[10:58:33.328]',-0.565
'[10:58:33.336]',-0.565
'[10:58:33.344]',-0.575
'[10:58:33.352]',-0.595
'[10:58:33.359]',-0.615
'[10:58:33.367]',-1795
'[10:58:33.375]',-1715
'[10:58:33.383]',-1615
'[10:58:33.391]',-1595
'[10:58:33.398]',-1605
'[10:58:33.406]',-1605
'[10:58:33.414]',-1615
'[10:58:33.422]',-1625
'[10:58:33.430]',-1625
'[10:58:33.438]',-1635
'[10:58:33.445]',-1635
'[10:58:33.453]',-1635
'[10:58:33.461]',-1645
'[10:58:33.469]',-1645
'[10:58:33.477]',-1645
'[10:58:33.484]',-1655
'[10:58:33.492]',-1655
'[10:58:33.500]',-1655
'[10:58:33.508]',-1655
'[10:58:33.516]',-1665
'[10:58:33.523]',-1665
'[10:58:33.531]',-1665
'[10:58:33.539]',-1665
'[10:58:33.547]',-1675
'[10:58:33.555]',-1675
'[10:58:33.563]',-1675
'[10:58:33.570]',-1665
'[10:58:33.578]',-1675
'[10:58:33.586]',-1675
'[10:58:33.594]',-1675
'[10:58:33.602]',-1675
'[10:58:33.609]',-1675
'[10:58:33.617]',-1675
'[10:58:33.625]',-1675
'[10:58:33.633]',-1665
'[10:58:33.641]',-1665
'[10:58:33.648]',-1665
'[10:58:33.656]',-1665
'[10:58:33.664]',-1665
'[10:58:33.672]',-1665
'[10:58:33.680]',-1655
'[10:58:33.688]',-1655
'[10:58:33.695]',-1645
'[10:58:33.703]',-1645
'[10:58:33.711]',-1645
'[10:58:33.719]',-1635
'[10:58:33.727]',-1635
'[10:58:33.734]',-1635
'[10:58:33.742]',-1635
'[10:58:33.750]',-1635
'[10:58:33.758]',-1635
'[10:58:33.766]',-1625
'[10:58:33.773]',-1615
'[10:58:33.781]',-1615
'[10:58:33.789]',-1615
'[10:58:33.797]',-1615
'[10:58:33.805]',-1615
'[10:58:33.813]',-1615
'[10:58:33.820]',-1605
'[10:58:33.828]',-1605
'[10:58:33.836]',-1605
'[10:58:33.844]',-1605
'[10:58:33.852]',-1595
'[10:58:33.859]',-1595
'[10:58:33.867]',-1595
'[10:58:33.875]',-1595
'[10:58:33.883]',-1595
'[10:58:33.891]',-1585
'[10:58:33.898]',-1585
'[10:58:33.906]',-1575
'[10:58:33.914]',-1575
'[10:58:33.922]',-1575
'[10:58:33.930]',-1565
'[10:58:33.938]',-1565
'[10:58:33.945]',-1565
'[10:58:33.953]',-1565
'[10:58:33.961]',-1565
'[10:58:33.969]',-1565
'[10:58:33.977]',-1555
'[10:58:33.984]',-1555
'[10:58:33.992]',-1545
'[10:58:34.000]',-1545
'[10:58:34.008]',-1545
'[10:58:34.016]',-1545
'[10:58:34.023]',-1545
'[10:58:34.031]',-1545
'[10:58:34.039]',-1545
'[10:58:34.047]',-1535
'[10:58:34.055]',-1535
'[10:58:34.063]',-1535
'[10:58:34.070]',-1525
'[10:58:34.078]',-1525
'[10:58:34.086]',-1525
'[10:58:34.094]',-1525
'[10:58:34.102]',-1515
'[10:58:34.109]',-1515
'[10:58:34.117]',-1515
'[10:58:34.125]',-1515
'[10:58:34.133]',-1505
'[10:58:34.141]',-1515
'[10:58:34.148]',-1515
'[10:58:34.156]',-1505
'[10:58:34.164]',-1505
'[10:58:34.172]',-1505
'[10:58:34.180]',-1505
'[10:58:34.188]',-1505
'[10:58:34.195]',-1505
'[10:58:34.203]',-1505
'[10:58:34.211]',-1505
'[10:58:34.219]',-1505
'[10:58:34.227]',-1495
'[10:58:34.234]',-1495
'[10:58:34.242]',-1495
'[10:58:34.250]',-1485
'[10:58:34.258]',-1485
'[10:58:34.266]',-1485
'[10:58:34.273]',-1485
'[10:58:34.281]',-1475
'[10:58:34.289]',-1465
'[10:58:34.297]',-1455
'[10:58:34.305]',-1455
'[10:58:34.313]',-1435
'[10:58:34.320]',-1435
'[10:58:34.328]',-1435
'[10:58:34.336]',-1445
'[10:58:34.344]',-1445
'[10:58:34.352]',-1435
'[10:58:34.359]',-1435
'[10:58:34.367]',-1425
'[10:58:34.375]',-1425
'[10:58:34.383]',-1425
'[10:58:34.391]',-1415
'[10:58:34.398]',-1405
'[10:58:34.406]',-1395
'[10:58:34.414]',-1385
'[10:58:34.422]',-1275
'[10:58:34.430]',-1025
'[10:58:34.438]',-0.725
'[10:58:34.445]',-1085
'[10:58:34.453]',-1435
'[10:58:34.461]',-1425
'[10:58:34.469]',-1355
'[10:58:34.477]',-1315
'[10:58:34.484]',-1305
'[10:58:34.492]',-1295
'[10:58:34.500]',-1285
'[10:58:34.508]',-1265
'[10:58:34.516]',-1255
'[10:58:34.523]',-1255
'[10:58:34.531]',-1225
'[10:58:34.539]',-1205
'[10:58:34.547]',-1195
'[10:58:34.555]',-1175
'[10:58:34.563]',-1145
'[10:58:34.570]',-1125
'[10:58:34.578]',-1105
'[10:58:34.586]',-1075
'[10:58:34.594]',-1045
'[10:58:34.602]',-1005
'[10:58:34.609]',-0.975
'[10:58:34.617]',-0.935
'[10:58:34.625]',-0.905
'[10:58:34.633]',-0.875
'[10:58:34.641]',-0.855
'[10:58:34.648]',-0.845
'[10:58:34.656]',-0.825
'[10:58:34.664]',-0.815
'[10:58:34.672]',-0.815
'[10:58:34.680]',-0.825
'[10:58:34.688]',-0.835
'[10:58:34.695]',-0.855
'[10:58:34.703]',-0.885
'[10:58:34.711]',-0.905
'[10:58:34.719]',-0.915
'[10:58:34.727]',-0.915
'[10:58:34.734]',-0.905
'[10:58:34.742]',-0.895
'[10:58:34.750]',-0.895
'[10:58:34.758]',-0.885
'[10:58:34.766]',-0.865
'[10:58:34.773]',-0.855
'[10:58:34.781]',-0.835
'[10:58:34.789]',-0.825
'[10:58:34.797]',-0.805
'[10:58:34.805]',-0.785
'[10:58:34.813]',-0.775
'[10:58:34.820]',-0.765
'[10:58:34.828]',-0.745
'[10:58:34.836]',-0.735
'[10:58:34.844]',-0.735
'[10:58:34.852]',-0.715
'[10:58:34.859]',-0.705
'[10:58:34.867]',-0.695
'[10:58:34.875]',-0.695
'[10:58:34.883]',-0.685
'[10:58:34.891]',-0.675
'[10:58:34.898]',-0.675
'[10:58:34.906]',-0.655
'[10:58:34.914]',-0.655
'[10:58:34.922]',-0.635
'[10:58:34.930]',-0.625
'[10:58:34.938]',-0.595
'[10:58:34.945]',-0.565
'[10:58:34.953]',-0.535
'[10:58:34.961]',-0.525
'[10:58:34.969]',-0.485
'[10:58:34.977]',-0.475
'[10:58:34.984]',-0.445
'[10:58:34.992]',-0.425
'[10:58:35.000]',-0.425
'[10:58:35.008]',-0.425
'[10:58:35.016]',-0.465
'[10:58:35.023]',-0.515
'[10:58:35.031]',-0.525
'[10:58:35.039]',-0.515
'[10:58:35.047]',-0.515
'[10:58:35.055]',-0.495
'[10:58:35.063]',-0.495
'[10:58:35.070]',-0.495
'[10:58:35.078]',-0.475
'[10:58:35.086]',-0.465
'[10:58:35.094]',-0.455
'[10:58:35.102]',-0.375
'[10:58:35.109]',-0.115
'[10:58:35.117]',0.265
'[10:58:35.125]',0.595
'[10:58:35.133]',-0.025
'[10:58:35.141]',-0.535
'[10:58:35.148]',-0.555
'[10:58:35.156]',-0.405
'[10:58:35.164]',-0.365
'[10:58:35.172]',-0.365
'[10:58:35.180]',-0.365
'[10:58:35.188]',-0.345
'[10:58:35.195]',-0.335
'[10:58:35.203]',-0.325
'[10:58:35.211]',-0.315
'[10:58:35.219]',-0.295
'[10:58:35.227]',-0.285
'[10:58:35.234]',-0.265
'[10:58:35.242]',-0.245
'[10:58:35.250]',-0.225
'[10:58:35.258]',-0.205
'[10:58:35.266]',-0.185
'[10:58:35.273]',-0.165
'[10:58:35.281]',-0.125
'[10:58:35.289]',-0.085
'[10:58:35.297]',-0.055
'[10:58:35.305]',-0.015
'[10:58:35.313]',0.005
'[10:58:35.320]',0.035
'[10:58:35.328]',0.035
'[10:58:35.336]',0.045
'[10:58:35.344]',0.045
'[10:58:35.352]',0.045
'[10:58:35.359]',0.025
'[10:58:35.367]',-0.005
'[10:58:35.375]',-0.045
'[10:58:35.383]',-0.095
'[10:58:35.391]',-0.135
'[10:58:35.398]',-0.165
'[10:58:35.406]',-0.195
'[10:58:35.414]',-0.215
'[10:58:35.422]',-0.215
'[10:58:35.430]',-0.215
'[10:58:35.438]',-0.225
'[10:58:35.445]',-0.215
'[10:58:35.453]',-0.215
'[10:58:35.461]',-0.205
'[10:58:35.469]',-0.195
'[10:58:35.477]',-0.195
'[10:58:35.484]',-0.185
'[10:58:35.492]',-0.175
'[10:58:35.500]',-0.175
'[10:58:35.508]',-0.175
'[10:58:35.516]',-0.165
'[10:58:35.523]',-0.155
'[10:58:35.531]',-0.155
'[10:58:35.539]',-0.155
'[10:58:35.547]',-0.155
'[10:58:35.555]',-0.145
'[10:58:35.563]',-0.155
'[10:58:35.570]',-0.155
'[10:58:35.578]',-0.155
'[10:58:35.586]',-0.155
'[10:58:35.594]',-0.145
'[10:58:35.602]',-0.145
'[10:58:35.609]',-0.145
'[10:58:35.617]',-0.135
'[10:58:35.625]',-0.115
'[10:58:35.633]',-0.085
'[10:58:35.641]',-0.075
'[10:58:35.648]',-0.065
'[10:58:35.656]',-0.025
'[10:58:35.664]',-0.015
'[10:58:35.672]',0.025
'[10:58:35.680]',0.025
'[10:58:35.688]',0.025
'[10:58:35.695]',0.015
'[10:58:35.703]',-0.025
'[10:58:35.711]',-0.085
'[10:58:35.719]',-0.105
'[10:58:35.727]',-0.085
'[10:58:35.734]',-0.085
'[10:58:35.742]',-0.075
'[10:58:35.750]',-0.065
'[10:58:35.758]',-0.055
'[10:58:35.766]',-0.055
'[10:58:35.773]',-0.035
'[10:58:35.781]',-0.025
'[10:58:35.789]',0.015
'[10:58:35.797]',0.215
'[10:58:35.805]',0.555
'[10:58:35.813]',0.895
'[10:58:35.820]',0.485
'[10:58:35.828]',-0.055
'[10:58:35.836]',-0.095
'[10:58:35.844]',0.035
'[10:58:35.852]',0.085
'[10:58:35.859]',0.085
'[10:58:35.867]',0.105
'[10:58:35.875]',0.115
'[10:58:35.883]',0.135
'[10:58:35.891]',0.145
'[10:58:35.898]',0.165
'[10:58:35.906]',0.185
'[10:58:35.914]',0.205
'[10:58:35.922]',0.225
'[10:58:35.930]',0.245
'[10:58:35.938]',0.265
'[10:58:35.945]',0.285
'[10:58:35.953]',0.315
'[10:58:35.961]',0.325
'[10:58:35.969]',0.365
'[10:58:35.977]',0.395
'[10:58:35.984]',0.425
'[10:58:35.992]',0.465
'[10:58:36.000]',0.495
'[10:58:36.008]',0.525
'[10:58:36.016]',0.535
'[10:58:36.023]',0.535
'[10:58:36.031]',0.545
'[10:58:36.039]',0.545
'[10:58:36.047]',0.545
'[10:58:36.055]',0.535
'[10:58:36.063]',0.505
'[10:58:36.070]',0.465
'[10:58:36.078]',0.415
'[10:58:36.086]',0.375
'[10:58:36.094]',0.345
'[10:58:36.102]',0.335
'[10:58:36.109]',0.315
'[10:58:36.117]',0.315
'[10:58:36.125]',0.315
'[10:58:36.133]',0.305
'[10:58:36.141]',0.315
'[10:58:36.148]',0.325
'[10:58:36.156]',0.335
'[10:58:36.164]',0.335
'[10:58:36.172]',0.345
'[10:58:36.180]',0.355
'[10:58:36.188]',0.365
'[10:58:36.195]',0.365
'[10:58:36.203]',0.375
'[10:58:36.211]',0.355
'[10:58:36.219]',0.375
'[10:58:36.227]',0.375
'[10:58:36.234]',0.375
'[10:58:36.242]',0.375
'[10:58:36.250]',0.385
'[10:58:36.258]',0.375
'[10:58:36.266]',0.375
'[10:58:36.273]',0.375
'[10:58:36.281]',0.385
'[10:58:36.289]',0.395
'[10:58:36.297]',0.405
'[10:58:36.305]',0.425
'[10:58:36.313]',0.445
'[10:58:36.320]',0.455
'[10:58:36.328]',0.465
'[10:58:36.336]',0.485
'[10:58:36.344]',0.515
'[10:58:36.352]',0.525
'[10:58:36.359]',0.515
'[10:58:36.367]',0.515
'[10:58:36.375]',0.475
'[10:58:36.383]',0.415
'[10:58:36.391]',0.385
'[10:58:36.398]',0.395
'[10:58:36.406]',0.405
'[10:58:36.414]',0.395
'[10:58:36.422]',0.405
'[10:58:36.430]',0.405
'[10:58:36.438]',0.415
'[10:58:36.445]',0.425
'[10:58:36.453]',0.415
'[10:58:36.461]',0.465
'[10:58:36.469]',0.735
'[10:58:36.477]',1065
'[10:58:36.484]',1345
'[10:58:36.492]',0.845
'[10:58:36.500]',0.265
'[10:58:36.508]',0.275
'[10:58:36.516]',0.375
'[10:58:36.523]',0.445
'[10:58:36.531]',0.455
'[10:58:36.539]',0.455
'[10:58:36.547]',0.465
'[10:58:36.555]',0.475
'[10:58:36.563]',0.485
'[10:58:36.570]',0.485
'[10:58:36.578]',0.505
'[10:58:36.586]',0.525
'[10:58:36.594]',0.535
'[10:58:36.602]',0.545
'[10:58:36.609]',0.565
'[10:58:36.617]',0.585
'[10:58:36.625]',0.605
'[10:58:36.633]',0.625
'[10:58:36.641]',0.645
'[10:58:36.648]',0.685
'[10:58:36.656]',0.715
'[10:58:36.664]',0.755
'[10:58:36.672]',0.785
'[10:58:36.680]',0.795
'[10:58:36.688]',0.805
'[10:58:36.695]',0.805
'[10:58:36.703]',0.795
'[10:58:36.711]',0.795
'[10:58:36.719]',0.775
'[10:58:36.727]',0.735
'[10:58:36.734]',0.695
'[10:58:36.742]',0.655
'[10:58:36.750]',0.615
'[10:58:36.758]',0.575
'[10:58:36.766]',0.535
'[10:58:36.773]',0.525
'[10:58:36.781]',0.505
'[10:58:36.789]',0.495
'[10:58:36.797]',0.495
'[10:58:36.805]',0.495
'[10:58:36.813]',0.495
'[10:58:36.820]',0.495
'[10:58:36.828]',0.505
'[10:58:36.836]',0.495
'[10:58:36.844]',0.505
'[10:58:36.852]',0.505
'[10:58:36.859]',0.505
'[10:58:36.867]',0.515
'[10:58:36.875]',0.495
'[10:58:36.883]',0.375
'[10:58:36.891]',0.415
'[10:58:36.898]',0.505
'[10:58:36.906]',0.515
'[10:58:36.914]',0.515
'[10:58:36.922]',0.505
'[10:58:36.930]',0.505
'[10:58:36.938]',0.505
'[10:58:36.945]',0.495
'[10:58:36.953]',0.485
'[10:58:36.961]',0.485
'[10:58:36.969]',0.505
'[10:58:36.977]',0.515
'[10:58:36.984]',0.495
'[10:58:36.992]',0.655
'[10:58:37.000]',0.845
'[10:58:37.008]',0.475
'[10:58:37.016]',0.325
'[10:58:37.023]',0.585
'[10:58:37.031]',0.575
'[10:58:37.039]',0.545
'[10:58:37.047]',0.525
'[10:58:37.055]',0.465
'[10:58:37.063]',0.425
'[10:58:37.070]',0.395
'[10:58:37.078]',0.405
'[10:58:37.086]',0.395
'[10:58:37.094]',0.395
'[10:58:37.102]',0.405
'[10:58:37.109]',0.395
'[10:58:37.117]',0.405
'[10:58:37.125]',0.395
'[10:58:37.133]',0.485
'[10:58:37.141]',0.815
'[10:58:37.148]',1225
'[10:58:37.156]',1215
'[10:58:37.164]',0.415
'[10:58:37.172]',0.165
'[10:58:37.180]',0.275
'[10:58:37.188]',0.365
'[10:58:37.195]',0.385
'[10:58:37.203]',0.375
'[10:58:37.211]',0.375
'[10:58:37.219]',0.385
'[10:58:37.227]',0.395
'[10:58:37.234]',0.405
'[10:58:37.242]',0.425
'[10:58:37.250]',0.425
'[10:58:37.258]',0.425
'[10:58:37.266]',0.445
'[10:58:37.273]',0.455
'[10:58:37.281]',0.465
'[10:58:37.289]',0.495
'[10:58:37.297]',0.505
'[10:58:37.305]',0.535
'[10:58:37.313]',0.565
'[10:58:37.320]',0.585
'[10:58:37.328]',0.615
'[10:58:37.336]',0.625
'[10:58:37.344]',0.655
'[10:58:37.352]',0.665
'[10:58:37.359]',0.665
'[10:58:37.367]',0.665
'[10:58:37.375]',0.645
'[10:58:37.383]',0.615
'[10:58:37.391]',0.585
'[10:58:37.398]',0.535
'[10:58:37.406]',0.495
'[10:58:37.414]',0.445
'[10:58:37.422]',0.395
'[10:58:37.430]',0.365
'[10:58:37.438]',0.345
'[10:58:37.445]',0.315
'[10:58:37.453]',0.315
'[10:58:37.461]',0.295
'[10:58:37.469]',0.305
'[10:58:37.477]',0.305
'[10:58:37.484]',0.295
'[10:58:37.492]',0.305
'[10:58:37.500]',0.305
'[10:58:37.508]',0.305
'[10:58:37.516]',0.295
'[10:58:37.523]',0.285
'[10:58:37.531]',0.295
'[10:58:37.539]',0.305
'[10:58:37.547]',0.295
'[10:58:37.555]',0.285
'[10:58:37.563]',0.285
'[10:58:37.570]',0.285
'[10:58:37.578]',0.275
'[10:58:37.586]',0.255
'[10:58:37.594]',0.265
'[10:58:37.602]',0.255
'[10:58:37.609]',0.255
'[10:58:37.617]',0.255
'[10:58:37.625]',0.245
'[10:58:37.633]',0.255
'[10:58:37.641]',0.275
'[10:58:37.648]',0.285
'[10:58:37.656]',0.305
'[10:58:37.664]',0.295
'[10:58:37.672]',0.305
'[10:58:37.680]',0.325
'[10:58:37.688]',0.325
'[10:58:37.695]',0.295
'[10:58:37.703]',0.275
'[10:58:37.711]',0.235
'[10:58:37.719]',0.185
'[10:58:37.727]',0.155
'[10:58:37.734]',0.155
'[10:58:37.742]',0.155
'[10:58:37.750]',0.145
'[10:58:37.758]',0.145
'[10:58:37.766]',0.145
'[10:58:37.773]',0.135
'[10:58:37.781]',0.155
'[10:58:37.789]',0.155
'[10:58:37.797]',0.365
'[10:58:37.805]',0.755
'[10:58:37.813]',1155
'[10:58:37.820]',0.835
'[10:58:37.828]',0.055
'[10:58:37.836]',-0.105
'[10:58:37.844]',0.055
'[10:58:37.852]',0.125
'[10:58:37.859]',0.125
'[10:58:37.867]',0.125
'[10:58:37.875]',0.135
'[10:58:37.883]',0.135
'[10:58:37.891]',0.135
'[10:58:37.898]',0.145
'[10:58:37.906]',0.165
'[10:58:37.914]',0.165
'[10:58:37.922]',0.175
'[10:58:37.930]',0.195
'[10:58:37.938]',0.205
'[10:58:37.945]',0.215
'[10:58:37.953]',0.235
'[10:58:37.961]',0.245
'[10:58:37.969]',0.275
'[10:58:37.977]',0.305
'[10:58:37.984]',0.335
'[10:58:37.992]',0.375
'[10:58:38.000]',0.395
'[10:58:38.008]',0.425
'[10:58:38.016]',0.425
'[10:58:38.023]',0.425
'[10:58:38.031]',0.415
'[10:58:38.039]',0.405
'[10:58:38.047]',0.395
'[10:58:38.055]',0.375
'[10:58:38.063]',0.315
'[10:58:38.070]',0.275
'[10:58:38.078]',0.225
'[10:58:38.086]',0.165
'[10:58:38.094]',0.135
'[10:58:38.102]',0.115
'[10:58:38.109]',0.095
'[10:58:38.117]',0.085
'[10:58:38.125]',0.075
'[10:58:38.133]',0.065
'[10:58:38.141]',0.065
'[10:58:38.148]',0.065
'[10:58:38.156]',0.075
'[10:58:38.164]',0.075
'[10:58:38.172]',0.085
'[10:58:38.180]',0.085
'[10:58:38.188]',0.085
'[10:58:38.195]',0.075
'[10:58:38.203]',0.085
'[10:58:38.211]',0.065
'[10:58:38.219]',0.065
'[10:58:38.227]',0.075
'[10:58:38.234]',0.065
'[10:58:38.242]',0.065
'[10:58:38.250]',0.055
'[10:58:38.258]',0.055
'[10:58:38.266]',0.045
'[10:58:38.273]',0.035
'[10:58:38.281]',0.035
'[10:58:38.289]',0.035
'[10:58:38.297]',0.035
'[10:58:38.305]',0.045
'[10:58:38.313]',0.045
'[10:58:38.320]',0.085
'[10:58:38.328]',0.085
'[10:58:38.336]',0.085
'[10:58:38.344]',0.115
'[10:58:38.352]',0.105
'[10:58:38.359]',0.135
'[10:58:38.367]',0.125
'[10:58:38.375]',0.105
'[10:58:38.383]',0.085
'[10:58:38.391]',0.025
'[10:58:38.398]',-0.045
'[10:58:38.406]',-0.035
'[10:58:38.414]',-0.045
'[10:58:38.422]',-0.035
'[10:58:38.430]',-0.035
'[10:58:38.438]',-0.035
'[10:58:38.445]',-0.035
'[10:58:38.453]',-0.025
'[10:58:38.461]',-0.045
'[10:58:38.469]',0.015
'[10:58:38.477]',0.245
'[10:58:38.484]',0.635
'[10:58:38.492]',0.995
'[10:58:38.500]',0.445
'[10:58:38.508]',-0.185
'[10:58:38.516]',-0.245
'[10:58:38.523]',-0.085
'[10:58:38.531]',-0.025
'[10:58:38.539]',-0.025
'[10:58:38.547]',-0.035
'[10:58:38.555]',-0.015
'[10:58:38.563]',-0.025
'[10:58:38.570]',-0.005
'[10:58:38.578]',-0.005
'[10:58:38.586]',0.015
'[10:58:38.594]',0.015
'[10:58:38.602]',0.035
'[10:58:38.609]',0.045
'[10:58:38.617]',0.065
'[10:58:38.625]',0.085
'[10:58:38.633]',0.105
'[10:58:38.641]',0.115
'[10:58:38.648]',0.135
'[10:58:38.656]',0.165
'[10:58:38.664]',0.205
'[10:58:38.672]',0.235
'[10:58:38.680]',0.265
'[10:58:38.688]',0.295
'[10:58:38.695]',0.295
'[10:58:38.703]',0.305
'[10:58:38.711]',0.295
'[10:58:38.719]',0.295
'[10:58:38.727]',0.285
'[10:58:38.734]',0.255
'[10:58:38.742]',0.225
'[10:58:38.750]',0.165
'[10:58:38.758]',0.115
'[10:58:38.766]',0.065
'[10:58:38.773]',0.025
'[10:58:38.781]',-0.005
'[10:58:38.789]',-0.015
'[10:58:38.797]',-0.025
'[10:58:38.805]',-0.025
'[10:58:38.813]',-0.035
'[10:58:38.820]',-0.035
'[10:58:38.828]',-0.025
'[10:58:38.836]',-0.025
'[10:58:38.844]',-0.025
'[10:58:38.852]',-0.025
'[10:58:38.859]',-0.015
'[10:58:38.867]',-0.015
'[10:58:38.875]',-0.005
'[10:58:38.883]',-0.025
'[10:58:38.891]',-0.015
'[10:58:38.898]',-0.035
'[10:58:38.906]',-0.025
'[10:58:38.914]',-0.025
'[10:58:38.922]',-0.035
'[10:58:38.930]',-0.035
'[10:58:38.938]',-0.035
'[10:58:38.945]',-0.035
'[10:58:38.953]',-0.035
'[10:58:38.961]',-0.055
'[10:58:38.969]',-0.045
'[10:58:38.977]',-0.055
'[10:58:38.984]',-0.055
'[10:58:38.992]',-0.045
'[10:58:39.000]',-0.045
'[10:58:39.008]',-0.015
'[10:58:39.016]',-0.005
'[10:58:39.023]',-0.015
'[10:58:39.031]',0.015
'[10:58:39.039]',0.035
'[10:58:39.047]',0.055
'[10:58:39.055]',0.065
'[10:58:39.063]',0.055
'[10:58:39.070]',0.035
'[10:58:39.078]',-0.035
'[10:58:39.086]',-0.105
'[10:58:39.094]',-0.115
'[10:58:39.102]',-0.115
'[10:58:39.109]',-0.115
'[10:58:39.117]',-0.115
'[10:58:39.125]',-0.125
'[10:58:39.133]',-0.125
'[10:58:39.141]',-0.115
'[10:58:39.148]',-0.115
'[10:58:39.156]',-0.105
'[10:58:39.164]',0.015
'[10:58:39.172]',0.375
'[10:58:39.180]',0.805
'[10:58:39.188]',0.685
'[10:58:39.195]',-0.105
'[10:58:39.203]',-0.355
'[10:58:39.211]',-0.215
'[10:58:39.219]',-0.105
'[10:58:39.227]',-0.115
'[10:58:39.234]',-0.105
'[10:58:39.242]',-0.105
'[10:58:39.250]',-0.095
'[10:58:39.258]',-0.095
'[10:58:39.266]',-0.085
'[10:58:39.273]',-0.075
'[10:58:39.281]',-0.065
'[10:58:39.289]',-0.055
'[10:58:39.297]',-0.045
'[10:58:39.305]',-0.015
'[10:58:39.313]',-0.015
'[10:58:39.320]',0.005
'[10:58:39.328]',0.025
'[10:58:39.336]',0.055
'[10:58:39.344]',0.085
'[10:58:39.352]',0.105
'[10:58:39.359]',0.145
'[10:58:39.367]',0.185
'[10:58:39.375]',0.215
'[10:58:39.383]',0.225
'[10:58:39.391]',0.235
'[10:58:39.398]',0.225
'[10:58:39.406]',0.225
'[10:58:39.414]',0.225
'[10:58:39.422]',0.205
'[10:58:39.430]',0.175
'[10:58:39.438]',0.135
'[10:58:39.445]',0.085
'[10:58:39.453]',0.025
'[10:58:39.461]',-0.025
'[10:58:39.469]',-0.055
'[10:58:39.477]',-0.075
'[10:58:39.484]',-0.105
'[10:58:39.492]',-0.105
'[10:58:39.500]',-0.115
'[10:58:39.508]',-0.105
'[10:58:39.516]',-0.105
'[10:58:39.523]',-0.115
'[10:58:39.531]',-0.105
'[10:58:39.539]',-0.095
'[10:58:39.547]',-0.105
'[10:58:39.555]',-0.085
'[10:58:39.563]',-0.085
'[10:58:39.570]',-0.085
'[10:58:39.578]',-0.095
'[10:58:39.586]',-0.115
'[10:58:39.594]',-0.105
'[10:58:39.602]',-0.105
'[10:58:39.609]',-0.105
'[10:58:39.617]',-0.105
'[10:58:39.625]',-0.105
'[10:58:39.633]',-0.105
'[10:58:39.641]',-0.105
'[10:58:39.648]',-0.115
'[10:58:39.656]',-0.115
'[10:58:39.664]',-0.115
'[10:58:39.672]',-0.115
'[10:58:39.680]',-0.115
'[10:58:39.688]',-0.105
'[10:58:39.695]',-0.075
'[10:58:39.703]',-0.075
'[10:58:39.711]',-0.065
'[10:58:39.719]',-0.035
'[10:58:39.727]',-0.025
'[10:58:39.734]',0.005
'[10:58:39.742]',-0.005
'[10:58:39.750]',-0.025
'[10:58:39.758]',-0.045
'[10:58:39.766]',-0.125
'[10:58:39.773]',-0.165
'[10:58:39.781]',-0.175
'[10:58:39.789]',-0.175
'[10:58:39.797]',-0.175
'[10:58:39.805]',-0.165
'[10:58:39.813]',-0.175
'[10:58:39.820]',-0.175
'[10:58:39.828]',-0.165
'[10:58:39.836]',-0.175
'[10:58:39.844]',-0.115
'[10:58:39.852]',0.115
'[10:58:39.859]',0.485
'[10:58:39.867]',0.825
'[10:58:39.875]',0.385
'[10:58:39.883]',-0.295
'[10:58:39.891]',-0.405
'[10:58:39.898]',-0.295
'[10:58:39.906]',-0.185
'[10:58:39.914]',-0.155
'[10:58:39.922]',-0.155
'[10:58:39.930]',-0.155
'[10:58:39.938]',-0.145
'[10:58:39.945]',-0.135
'[10:58:39.953]',-0.125
