0.772600026918461,0.8285289059045406,0.8204483807961968,0.7591270658893596,0.6648127611518057,0.5612640365350168,0.4691702641428929,0.4021608022646123,0.3641038601554489,0.3501481493887001,0.3499280461515726,0.351474375962678,0.346048255067978,0.32969358062727183,0.30368303542673425,0.27298687936417,0.24339336975199277,0.22015814136131284,0.20554038708921332,0.19861932379916147,0.19604571257676742,0.19308535294229737,0.18642761232338542,0.17435239590577345,0.15728570314536186,0.13735670886174176,0.11712591964359588,0.09967847094760307,0.08706713448207122,0.08015895828405172,0.07866770514671606,0.08116377817116358,0.08641896694678425,0.09310465741313587,0.10019292696681419,0.10702478686246904,0.11307470566798433,0.1185124816064625,0.1236742761263938,0.12909457019813522,0.135381868578222,0.14295102330122697,0.15218672346134188,0.1630725248426211,0.17521172823690334,0.18790356544049266,0.20028920950687862,0.21174320996194573,0.22200538771969616,0.23132737857846714,0.24042526230276334,0.24988857786019722,0.2613369209155539,0.2751559396145952,0.2910710530493768,0.3082313908875531,0.3252044880980639,0.3412501115354953,0.3553180317002458,0.3668593636564821,0.37603751947234276,0.3836249691845842,0.39120179668880795,0.40002940399362413,0.4109063023981144,0.42386293954501797,0.43795056323438913,0.4517819844503482,0.4632721874359169,0.47038737136949343,0.4716883596176931,0.4666222912866409,0.4560339521033622,0.44147822185019825,0.4249870321122223,0.40853928618692215,0.3934846826766718,0.38047595426415165,0.3690344679505961,0.35788635044246503,0.34539021275615117,0.33000654784308403,0.3108992069553685,0.28799587082224964,0.2620887503657137,0.234632491870655,0.20732020427955394,0.18186675558061569,0.1593618199999071,0.14015975681970788,0.12387477098515884,0.10949272405449618,0.09594793826636477,0.08212465357320613,0.06729526722134095,0.051312416741683506,0.03452771833946321,0.018002296267737732,0.002735400117458539,-0.01047004425538511,-0.02124993750179183,-0.02991782757356435,-0.03693962095829577,-0.04334526954750112,-0.05016979336462334,-0.05808985020368459,-0.06731587714141136,-0.07689747874872757,-0.08564300807551128,-0.09210519533252208,-0.09492976290557734,-0.09339774030332962,-0.0869353607011524,-0.07616951128260924,-0.06243698180881808,-0.04746488145278867,-0.03320842035189353,-0.02067610371882422,-0.010806494484965004,-0.003972323688475955,4.582607349947297e-19,0.0014470654771397435,0.0015923129438398867,0.0011198989548261923,0.0005028416075393343,-6.033712902274569e-19,-0.0005041105061544685,-0.0006256520312288997,-0.00047934171365459667,-0.00022611585752171015,2.240475287063308e-19,-4.8331919081867885e-05,-4.7681588361397735e-05,-1.676082323540714e-05,8.141072408551515e-06,-3.0241171188986164e-19,-0.00016178268812451165,-0.0002276370362714259,-0.00019865133741365625,-0.0001075786323965224,2.2772771814810495e-20,2.0216654873850336e-05,4.792612481018194e-05,6.122417456188548e-05,4.4889321487001296e-05,-4.266571066651496e-20,-8.19959437812377e-05,-0.00012638873469838542,-0.00012032203282008461,-7.072057015711643e-05,-5.3800942946308574e-20,7.460058168229784e-05,0.00011003105064990394,0.0001001914683273479,5.6315807247876026e-05,6.278211538848924e-20,-1.653885732439184e-05,-3.371933768931906e-05,-3.921171660242634e-05,-2.6802709432650705e-05,-4.0087615514272814e-20,7.854486017425065e-05,0.00010499584050131374,8.535608583312568e-05,4.202391972617048e-05,6.792479241873651e-20,0.0,0.0,0.0,0.0,0.0,0.0,0.0,0.0,0.0,0.0,0.0,0.0,0.0,0.0,0.0,0.0,0.0,0.0,0.0,0.0,0.0,0.0,0.0,0.0,0.0,0.0,0.0,0.0,0.0,0.0,0.0,0.0,0.0,0.0,0.0,0.0,0.0,0.0,0.0,0.0,0.0,0.0,0.0,0.0,0.0,0.0,0.0,0.0,0.0,0.0,0.0,0.0,0.0,0.0,0.0,0.0,0.0,0.0,0.0,0.0,0.0,0.0,0.0,0.0,0.0,0.0,0.0,0.0,0.0,0.0,0.0,0.0,0.0,0.0,0.0,0.0,0.0,0.0,0.0,0.0,0.0,0.0,0.0,0.0,0.0,0.0,0.0,0.0,0.0,0.0,0.0,0.0,0.0,0.0,0.0,0.0,0.0,0.0,0.0,0.0,0.0,0.0,0.0,0.0,0.0,0.0,0.0,0.0,0.0,0.0,0.0,0.0,0.0,0.0,0.0,0.0,0.0,0.0,0.0,0.0,0.0,0.0,0.0,0.0,0.0,0.0,0.0,0.0,0.0,0.0,0.0,0.0,0.0,0.0
0.4716883596176931,0.5117299381741904,0.5165097608598473,0.4927511333662782,0.4523181569420118,0.40853928618692215,0.3724876594770074,0.3502258051786963,0.34192589981275506,0.34279524384393795,0.34539021275615117,0.342461846904164,0.32923336600530173,0.3047098597484427,0.27152074982111707,0.234632491870655,0.1995147473980001,0.1703028736919375,0.1487747742914237,0.1341719866568929,0.12387477098515884,0.11458857486468262,0.10345935921571209,0.08895868847653164,0.07113211513794511,0.05131241674168351,0.0314870073293699,0.013537029593731398,-0.0013046264459242551,-0.012720801054549594,-0.021249937501791834,-0.027994631654204377,-0.03421849402781018,-0.04098914684680512,-0.04892561872167758,-0.05808985020368459,-0.06799217158626708,-0.07775194124382512,-0.08623992128082103,-0.09229341120852508,-0.09492976290557734,-0.09350772916144807,-0.08796894210182503,-0.07881798510965699,-0.0670811750479872,-0.054134252275170915,-0.041432814065559535,-0.03030685814882535,-0.02169835365920841,-0.016055947120113455,-0.013338741644764488,-0.013359528428124351,-0.01504079870703832,-0.017780882216469392,-0.02109661187277876,-0.02461192046821518,-0.028223825653386044,-0.03127738677331482,-0.03360610315365012,-0.035140554894942576,-0.035885099291665876,-0.0360850180123434,-0.035546444070205296,-0.0345143899495841,-0.033293958850956075,-0.032157401096787615,-0.03138513863459159,-0.030763524621281756,-0.030193153218222784,-0.02949258102061136,-0.028429702901909354,-0.026834092413415767,-0.024408905484103963,-0.021102868190912106,-0.017019823076588683,-0.012412778884921672,-0.007684212572140786,-0.0032433248420894608,0.0004144060519028494,0.0028204503685220544,0.0036041451320660144,0.0025664979787089048,-0.00031823073178252,-0.004832434275922923,-0.01055448760435553,-0.01691098268125797,-0.02322223071399371,-0.02890333961710869,-0.033397732073284545,-0.03630404913597966,-0.03742611049458196,-0.03673947885106384,-0.0345588630732497,-0.03124378130835714,-0.027228262374303154,-0.022962187971377834,-0.018826374503973557,-0.015191186166076478,-0.012244512267096738,-0.01003624483209788,-0.008498265448173711,-0.007474214877484254,-0.006790205549346788,-0.0062633200686640555,-0.005748988542917676,-0.0051623911070304805,-0.004470433700695945,-0.0037296223622302538,-0.0030010733760985446,-0.0023500493956507148,-0.00182651676588725,-0.0014338642992959931,-0.0011959438654948057,-0.0010697977815662934,-0.000994774958309571,-0.000913258382943625,-0.0007711701523045636,-0.0005900198738892751,-0.00038240162344143675,-0.00017513103916082766,-1.4585261949553403e-20,0.00013128515955581173,0.0001792770809586496,0.00015374641441714338,8.243575654685951e-05,3.1469179264673737e-20,-5.719428316449623e-05,-8.383568910900533e-05,-7.641674559439576e-05,-4.326363346575999e-05,-1.7434199012198352e-20,3.4866732923768295e-05,5.28413469194666e-05,4.957751911061896e-05,2.8777978803124617e-05,1.9319246111440677e-20,-1.6720285300042792e-05,-2.8647333638321864e-05,-2.9771160894454813e-05,-1.882497675437295e-05,-2.0192841533935236e-20,3.8186192849393007e-05,5.2326406792566646e-05,4.3882340062947566e-05,2.248408105938323e-05,3.1718155407507484e-20,-2.9870128500504884e-06,-5.3051897008260765e-06,-5.656492853344485e-06,-3.6446965810577374e-06,-4.451218716409166e-21,8.128537262213448e-06,1.1064254516326862e-05,9.201340130112364e-06,4.6646078916682515e-06,6.996156705097316e-21,-3.182194842482219e-07,-6.487842562654992e-07,-7.544615682311287e-07,-5.157033647986135e-07,-7.7131449189534675e-22,1.5112594784971253e-06,2.0201953228812475e-06,1.642312348338916e-06,8.085703745462599e-07,1.3069217532507317e-21,0.0,0.0,0.0,0.0,0.0,0.0,0.0,0.0,0.0,0.0,0.0,0.0,0.0,0.0,0.0,0.0,0.0,0.0,0.0,0.0,0.0,0.0,0.0,0.0,0.0,0.0,0.0,0.0,0.0,0.0,0.0,0.0,0.0,0.0,0.0,0.0,0.0,0.0,0.0,0.0,0.0,0.0,0.0,0.0,0.0,0.0,0.0,0.0,0.0,0.0,0.0,0.0,0.0,0.0,0.0,0.0,0.0,0.0,0.0,0.0,0.0,0.0,0.0,0.0,0.0,0.0,0.0,0.0,0.0,0.0,0.0,0.0,0.0,0.0,0.0,0.0,0.0,0.0,0.0,0.0,0.0,0.0,0.0,0.0,0.0,0.0,0.0,0.0,0.0,0.0,0.0,0.0,0.0,0.0,0.0,0.0,0.0,0.0,0.0,0.0,0.0,0.0,0.0,0.0,0.0,0.0,0.0,0.0,0.0,0.0,0.0,0.0,0.0,0.0,0.0,0.0,0.0,0.0,0.0,0.0,0.0,0.0,0.0,0.0,0.0,0.0,0.0,0.0,0.0,0.0,0.0,0.0,0.0,0.0
1.0006505165814363,1.059762141982391,1.0289026515058228,0.9223945855798199,0.7678450704363055,0.5982867989915218,0.44370541914098743,0.3243902784370551,0.24777047640174096,0.20920215488588517,0.1959230814016074,0.1925198206047082,0.18610415924279722,0.1695650029578903,0.1423430831199395,0.10891892962092493,0.07588591565407395,0.049214863290442244,0.032013626548214755,0.02393694850065748,0.02191477784024243,0.021574235485770355,0.019339928711371,0.013274986278678515,0.003477225217268519,-0.008395176347961834,-0.020254235075275455,-0.029913846575020372,-0.036174565365332916,-0.038881676172441114,-0.03870513053616614,-0.03697514442892015,-0.03445479365822607,-0.031689219765102715,-0.028845268236175062,-0.0258830427244307,-0.02298081457048031,-0.020061902426111073,-0.01728786555566813,-0.014884945302322988,-0.013060954912695292,-0.01209068667203449,-0.01186417323032602,-0.012245663482686577,-0.01304559953787607,-0.01406570866300124,-0.015200693956849988,-0.016156324154866123,-0.016642878054796043,-0.016358403697963767,-0.015070462413307187,-0.01326321595754083,-0.010127500420387197,-0.006202896713345187,-0.002229542207597059,0.0011697258539844642,0.0034084444303820027,0.0053777567260339275,0.0077597856508570505,0.011461479840981325,0.017409914121276116,0.026157531563934407,0.03821609573688889,0.053307911868716855,0.07059966455219475,0.08887186122463267,0.10670848449633985,0.12310488205580983,0.1374048822618314,0.14959607539343142,0.1603338083279892,0.1707717201811456,0.18228949927452237,0.19603410847466765,0.21255467718038057,0.23153942000693806,0.2517590920713184,0.2712240211980793,0.2875849567031287,0.2986231710375279,0.3027450316858869,0.2993677200285803,0.28898453897188364,0.27314497739946675,0.2540648531314489,0.23413109032309498,0.21540795676297442,0.19919228625561544,0.18588941828069097,0.175030496686792,0.16551714896030312,0.15600018080745653,0.14525084834641389,0.1325183738203616,0.11769733579016987,0.10133644143425367,0.08450209978011913,0.06850530396130372,0.05465757805644187,0.044005638528631354,0.037155733908204217,0.034207649458580826,0.03475236097386785,0.038018352962302174,0.04301039277102678,0.04867213516194915,0.05402838591660648,0.05828999199122555,0.060904584997987114,0.06156589257012148,0.06018853641569408,0.05685696907919534,0.05181669931944162,0.04539546106777857,0.037998504246237276,0.03009426820784704,0.022148911467527573,0.014767309067684645,0.008411479274468352,0.0034278998224375494,1.9395590248042248e-19,-0.0019652905372514163,-0.0025212385899707835,-0.0020569216154005233,-0.0010598551207820605,-2.981709578308342e-19,0.0006531800507798531,0.0009486661722212172,0.0008622931168722953,0.0004890142533049986,1.9838161783895293e-19,-0.000575057537446073,-0.0008105868285514682,-0.0007054853267081098,-0.0003789839096291329,-3.1270468838300268e-19,0.00016462800874311582,0.0002606670470881147,0.0002545894884546827,0.00015326242570852348,9.980707232688388e-20,-0.0002289759865910252,-0.00032191016226354983,-0.00027849117315763,-0.00014820439052863252,-1.5944775143922856e-19,5.611410598119768e-05,8.854666706869705e-05,8.60703924207118e-05,5.15257276722654e-05,4.4112387195129094e-20,-6.689414490246003e-05,-9.5957060802623e-05,-8.481882316167767e-05,-4.618995158174495e-05,-5.675141580998654e-20,1.0486169836253128e-05,2.1379149408024364e-05,2.4861495071830134e-05,1.6993783649612207e-05,2.54168432781095e-20,-4.9799978764992084e-05,-6.657075479895085e-05,-5.411851587134173e-05,-2.664452270132249e-05,-4.306651272362324e-20,0.0,0.0,0.0,0.0,0.0,0.0,0.0,0.0,0.0,0.0,0.0,0.0,0.0,0.0,0.0,0.0,0.0,0.0,0.0,0.0,0.0,0.0,0.0,0.0,0.0,0.0,0.0,0.0,0.0,0.0,0.0,0.0,0.0,0.0,0.0,0.0,0.0,0.0,0.0,0.0,0.0,0.0,0.0,0.0,0.0,0.0,0.0,0.0,0.0,0.0,0.0,0.0,0.0,0.0,0.0,0.0,0.0,0.0,0.0,0.0,0.0,0.0,0.0,0.0,0.0,0.0,0.0,0.0,0.0,0.0,0.0,0.0,0.0,0.0,0.0,0.0,0.0,0.0,0.0,0.0,0.0,0.0,0.0,0.0,0.0,0.0,0.0,0.0,0.0,0.0,0.0,0.0,0.0,0.0,0.0,0.0,0.0,0.0,0.0,0.0,0.0,0.0,0.0,0.0,0.0,0.0,0.0,0.0,0.0,0.0,0.0,0.0,0.0,0.0,0.0,0.0,0.0,0.0,0.0,0.0,0.0,0.0,0.0,0.0,0.0,0.0,0.0,0.0,0.0,0.0,0.0,0.0,0.0,0.0
0.6760893098595132,0.7212844427221353,0.7083559713799423,0.6468041198004669,0.5547571250196541,0.45371080217559245,0.36262016838240924,0.294369923540871,0.2531311977504663,0.2351277064752277,0.23133229449167167,0.23080125730477197,0.22523161234921235,0.21033557424786511,0.1865028909392528,0.1576738256622712,0.12885580247753894,0.10530464075479681,0.09003500666580279,0.08351055280206379,0.08401535683287069,0.08813600630865802,0.09341597557186336,0.0980716332633874,0.10156498488512067,0.1043372460739697,0.10677863690624421,0.10995974963390892,0.11423287542848035,0.11936353231916728,0.12465913531506866,0.12886524797583004,0.13162184485690182,0.13279224714435547,0.13269268469274595,0.13194594583728644,0.13096557121061095,0.1306808507320538,0.131724689607873,0.13452199084709918,0.13923275635950425,0.1454988796640115,0.15312120565901563,0.16160334955849212,0.1703630952121981,0.17885688787461262,0.18659193948090835,0.19370659313388489,0.20072685750108407,0.20859695782506824,0.21848101938972095,0.23104573307537696,0.24765716776853905,0.26823581593721646,0.29188241289637334,0.3170742334639709,0.34174822251315046,0.3647139070659691,0.3848021869974786,0.40161611771779726,0.41566744753822077,0.4281370562262115,0.44096966045485797,0.455751121174254,0.4734055075752378,0.4938303710174085,0.5157058795220263,0.5370037074281221,0.5550469858995144,0.5672972306213727,0.5719932944965962,0.5685566398909063,0.557886482505815,0.541916921889712,0.5231894521555879,0.5042145381908096,0.48682341199101503,0.4719867985527827,0.4594624353556396,0.44812660251501185,0.43643578188502313,0.4228942543460338,0.4067424043535072,0.3878677548642164,0.36690795324755804,0.3450182044362204,0.32343124669799805,0.30332685735720716,0.2851980256581075,0.268869657959775,0.25360062698741764,0.23826970390203175,0.22198205147685574,0.2040214350897149,0.18420299218593178,0.1629526386420351,0.14112613889249861,0.12013336670435681,0.10117185396563676,0.08511114977629361,0.07230465029665256,0.0624176853529439,0.05494177559947214,0.04883467941114271,0.04301650041614217,0.03667054174296989,0.029291825310216207,0.021378188095900526,0.01351695913637112,0.006488631926804621,0.0010364331892871975,-0.00256810352269957,-0.003848929879788878,-0.0032226140518663627,-0.0014702533079835537,0.0005182165946435979,0.0017493714640059185,0.002284165800279509,0.0020220487947303868,0.0011384557381907627,4.807001089866249e-19,-0.001271092513680581,-0.0018130541628968329,-0.001599129028942144,-0.000871716016019056,-7.210231509444582e-19,0.0004183791771777996,0.0006684001950922881,0.0006573514589321481,0.00039780901782405007,3.186478334143386e-19,-0.0006003077670253838,-0.0008444543088134829,-0.0007306636765412759,-0.00038868697822279965,-4.662718496075715e-19,0.0001056270019764406,0.0001832717385878829,0.00019216676984202342,0.00012229601062979122,1.414486368925257e-19,-0.000254458375879717,-0.00034820454331825233,-0.0002914705743890542,-0.00014896796174479953,-2.1808155750488794e-19,1.345186675716083e-05,2.6980319763002195e-05,3.1084012181526e-05,2.1121292897904664e-05,3.102274253116252e-20,-6.0447368904801833e-05,-8.091632814629281e-05,-6.589799136693895e-05,-3.252028189001544e-05,-5.2255360332781846e-20,1.805695086475166e-07,3.681441903184157e-07,4.281094069106828e-07,2.92629168856674e-07,4.376723793116692e-22,-8.575445407304681e-07,-1.14633356812348e-06,-9.319087876906582e-07,-4.588127454975985e-07,-7.415957554665481e-22,0.0,0.0,0.0,0.0,0.0,0.0,0.0,0.0,0.0,0.0,0.0,0.0,0.0,0.0,0.0,0.0,0.0,0.0,0.0,0.0,0.0,0.0,0.0,0.0,0.0,0.0,0.0,0.0,0.0,0.0,0.0,0.0,0.0,0.0,0.0,0.0,0.0,0.0,0.0,0.0,0.0,0.0,0.0,0.0,0.0,0.0,0.0,0.0,0.0,0.0,0.0,0.0,0.0,0.0,0.0,0.0,0.0,0.0,0.0,0.0,0.0,0.0,0.0,0.0,0.0,0.0,0.0,0.0,0.0,0.0,0.0,0.0,0.0,0.0,0.0,0.0,0.0,0.0,0.0,0.0,0.0,0.0,0.0,0.0,0.0,0.0,0.0,0.0,0.0,0.0,0.0,0.0,0.0,0.0,0.0,0.0,0.0,0.0,0.0,0.0,0.0,0.0,0.0,0.0,0.0,0.0,0.0,0.0,0.0,0.0,0.0,0.0,0.0,0.0,0.0,0.0,0.0,0.0,0.0,0.0,0.0,0.0,0.0,0.0,0.0,0.0,0.0,0.0,0.0,0.0,0.0,0.0,0.0,0.0
0.5719932944965962,0.6219865513221537,0.6296236608086994,0.6028160792697528,0.5556898548161318,0.5042145381908096,0.46178836012866376,0.43590323658247665,0.42711643346086037,0.43011670582914124,0.43643578188502313,0.4377800063252047,0.42864796039890307,0.4078299359738598,0.3781676211764963,0.3450182044362204,0.3141213177435945,0.2895407891467228,0.27258320559904575,0.26173911699517394,0.25360062698741764,0.24430186847028185,0.230861358889444,0.21208581333409782,0.1887204542095971,0.1629526386420351,0.1373443957883868,0.11449763069650166,0.09597431768018078,0.08214362579609913,0.07230465029665256,0.06468400024123068,0.05810507532300613,0.05150890675395353,0.0443710976100077,0.03667054174296989,0.02844983052397121,0.020372953512729372,0.01293651675289721,0.006467039123887811,0.0010364331892871964,-0.0036757100696431363,-0.00793586294806811,-0.012137785094017025,-0.016608798625199706,-0.021506963604142705,-0.02698133573399218,-0.03252492763681778,-0.037565235716699556,-0.04152651432972114,-0.044050360397572604,-0.04576584551478973,-0.0462689161643808,-0.046186113768239244,-0.046218302336686744,-0.04684941154623907,-0.04864143643762445,-0.05051550357055918,-0.051738124810598356,-0.05158947028765821,-0.049648462694905526,-0.04639129014855009,-0.041923904152997404,-0.03731172160672344,-0.033726105201392506,-0.03196542825806201,-0.032271770428597815,-0.033152386524887015,-0.03244524455150544,-0.02722076295679499,-0.014282393821218493,0.00903874861969108,0.044692720906543575,0.09269145364334253,0.1510688078069258,0.21597104930408093,0.2820166013070855,0.34334521531293927,0.39408291691354047,0.4293934840934913,0.4462244924293803,0.4437129975278465,0.4233919307538934,0.3886935517840157,0.3444233732349264,0.29601782519929193,0.24878068177167778,0.2073398106202712,0.1751486249791145,0.15435144544460064,0.14581115796920363,0.14925645778304028,0.1634743160107105,0.18648779157111756,0.21571430858468835,0.24812224836244254,0.2804373544369697,0.3093650661048371,0.33198006930673896,0.34606679717658434,0.35043333875568144,0.3451188066416276,0.3312952816731224,0.311150983373529,0.28742748888745256,0.26289225644030284,0.2398489747226976,0.21966047845289177,0.20269730654354262,0.18835931311984105,0.17535117412492424,0.16212121039126434,0.1472109575438095,0.12976008515769866,0.10967972210764422,0.08767558706246212,0.06510244715858265,0.04360254654858711,0.024827818886657603,0.010067856093096435,2.548921815448782e-20,-0.0054087371817826135,-0.006875377279650881,-0.0055714190278528235,-0.0028591652691006483,-1.7786029347244102e-19,0.001972668592354925,0.0028130212298761092,0.002510530029712507,0.0013990098356037256,2.8483606324035293e-19,-0.0013932288120242112,-0.001995312148803166,-0.0017702120740232335,-0.000972609019476582,-5.2071878452847605e-19,0.0006207562950318519,0.0009431144702126797,0.0008873310881044125,0.0005166450987596641,2.6308047555702165e-19,-0.0005342182688814635,-0.0007865202164119818,-0.000715735044409165,-0.0004025280217712987,-3.452049110251288e-19,0.00020567485864706912,0.00034399364457578414,0.0003507915279709968,0.00021849241138756836,2.307871411604747e-19,-0.0003952709658821664,-0.0005474236756687253,-0.000464868917189437,-0.00024177975018980848,-3.3862754220155022e-19,3.055003996377118e-05,6.228526516407768e-05,7.24306090654449e-05,4.950909414383836e-05,7.404854108071594e-20,-0.00014508551408405195,-0.00019394490565041684,-0.00015766698884978506,-7.762521931762475e-05,-1.2546846993249387e-19,0.0,0.0,0.0,0.0,0.0,0.0,0.0,0.0,0.0,0.0,0.0,0.0,0.0,0.0,0.0,0.0,0.0,0.0,0.0,0.0,0.0,0.0,0.0,0.0,0.0,0.0,0.0,0.0,0.0,0.0,0.0,0.0,0.0,0.0,0.0,0.0,0.0,0.0,0.0,0.0,0.0,0.0,0.0,0.0,0.0,0.0,0.0,0.0,0.0,0.0,0.0,0.0,0.0,0.0,0.0,0.0,0.0,0.0,0.0,0.0,0.0,0.0,0.0,0.0,0.0,0.0,0.0,0.0,0.0,0.0,0.0,0.0,0.0,0.0,0.0,0.0,0.0,0.0,0.0,0.0,0.0,0.0,0.0,0.0,0.0,0.0,0.0,0.0,0.0,0.0,0.0,0.0,0.0,0.0,0.0,0.0,0.0,0.0,0.0,0.0,0.0,0.0,0.0,0.0,0.0,0.0,0.0,0.0,0.0,0.0,0.0,0.0,0.0,0.0,0.0,0.0,0.0,0.0,0.0,0.0,0.0,0.0,0.0,0.0,0.0,0.0,0.0,0.0,0.0,0.0,0.0,0.0,0.0,0.0
0.4462244924293803,0.4770545807650237,0.4691652733051607,0.4282588915383345,0.3658518558262967,0.29601782519929193,0.2317008875344266,0.1824164384966651,0.15253688944256774,0.14160787505181088,0.14581115796920363,0.15977410041582682,0.17906831917515664,0.2008033362147955,0.22384885492118073,0.24812224836244254,0.2732153306469789,0.2984196642744095,0.32167823465940515,0.3400404339651309,0.35043333875568144,0.3502127132100622,0.33911049690581285,0.31861858239762064,0.2918835327655756,0.26289225644030284,0.23513219574238872,0.21172458897390714,0.19416555430503804,0.18244400411172937,0.17535117412492424,0.1707562823621055,0.16702384175089516,0.16286762512757316,0.15772089055651967,0.15169025544389017,0.14514348391034906,0.13895992748522373,0.1338368141508155,0.13018594732777436,0.1280293367628561,0.12691303020420994,0.12629838891683515,0.12552312005138547,0.12405013213130976,0.1216426731351242,0.11843775052999851,0.11510886355683715,0.11268115236496529,0.11236012523058464,0.11525600950739225,0.12186939013735192,0.13273448573783014,0.14719390722155543,0.163946357361077,0.18137605380856706,0.19779957885157448,0.21249716791925619,0.22518802307776814,0.2364249760047705,0.2474960981097418,0.25999485763923746,0.27575271281203395,0.2958646398042246,0.32043665777533686,0.3483933130492399,0.3774147140883041,0.4048443216172473,0.42757026686519767,0.4429278466174114,0.44929052798873803,0.446243105838067,0.43529791182607525,0.41868163457144403,0.3991364573348361,0.37931189525504666,0.3610677290517164,0.34561457939143964,0.3327298036721196,0.3212115539828178,0.3093332625213553,0.29530450016776566,0.2781145766184326,0.2573993077860974,0.23369392975078238,0.20828709293381972,0.1828046291970533,0.15907860129591692,0.13835079160297173,0.12115202600297002,0.10724092334628418,0.09567058370730643,0.08532283583670515,0.07493169332759471,0.06355251141188328,0.05082323575235936,0.03700593995760135,0.023153878925953823,0.010571403477349531,0.0006199909845663236,-0.005594451841565486,-0.007533177130966527,-0.0051323598639069195,0.0009082373406489874,0.00938763024205528,0.01885885106404605,0.027815577512844816,0.03528688433160359,0.04051344627723521,0.043166803398360015,0.04331215396965758,0.041173117273266,0.03748474895511245,0.0327344188519343,0.027339060491144422,0.02165607698482879,0.01583708167639901,0.01054015675161285,0.006025991784058892,0.002478152425769127,3.2953349227989265e-19,-0.0016338888480625343,-0.0021066032545086957,-0.0017149166607087069,-0.0008756528607432507,-4.952948416479911e-19,0.00041970095836792957,0.0006168483727772363,0.0005677731213259017,0.00032601781790300515,1.6913972348079793e-19,-0.00044492858475441354,-0.0006172735339953768,-0.0005271814443467211,-0.00027696141377239443,-2.7250110679905455e-19,8.973425130866979e-05,0.00014288725507298884,0.0001403122213908325,8.48952571266394e-05,5.1543180532913163e-20,-0.0001355347552699413,-0.0001890538847633893,-0.0001621181756392081,-8.541932465847875e-05,-9.004478239075151e-20,3.474721116895153e-05,5.2234462891940885e-05,4.858187290655619e-05,2.794962399393092e-05,1.8090234147741326e-20,-2.138606217449334e-05,-3.329106149859912e-05,-3.196497720920843e-05,-1.8925782585246605e-05,-1.7704349277231603e-20,7.545931992148397e-06,1.538460753565056e-05,1.7890531429938785e-05,1.2228863132268043e-05,1.8290164457248513e-20,-3.5836464489815955e-05,-4.790484955166077e-05,-3.894411845870567e-05,-1.9173612425418674e-05,-3.0991008273386287e-20,0.0,0.0,0.0,0.0,0.0,0.0,0.0,0.0,0.0,0.0,0.0,0.0,0.0,0.0,0.0,0.0,0.0,0.0,0.0,0.0,0.0,0.0,0.0,0.0,0.0,0.0,0.0,0.0,0.0,0.0,0.0,0.0,0.0,0.0,0.0,0.0,0.0,0.0,0.0,0.0,0.0,0.0,0.0,0.0,0.0,0.0,0.0,0.0,0.0,0.0,0.0,0.0,0.0,0.0,0.0,0.0,0.0,0.0,0.0,0.0,0.0,0.0,0.0,0.0,0.0,0.0,0.0,0.0,0.0,0.0,0.0,0.0,0.0,0.0,0.0,0.0,0.0,0.0,0.0,0.0,0.0,0.0,0.0,0.0,0.0,0.0,0.0,0.0,0.0,0.0,0.0,0.0,0.0,0.0,0.0,0.0,0.0,0.0,0.0,0.0,0.0,0.0,0.0,0.0,0.0,0.0,0.0,0.0,0.0,0.0,0.0,0.0,0.0,0.0,0.0,0.0,0.0,0.0,0.0,0.0,0.0,0.0,0.0,0.0,0.0,0.0,0.0,0.0,0.0,0.0,0.0,0.0,0.0,0.0
0.44929052798873803,0.48675240738647063,0.4899527692037003,0.4652432493857527,0.42404151203035545,0.37931189525504666,0.3415773174858674,0.317314116237773,0.3071529692944653,0.3068399207738009,0.3093332625213553,0.3072634684825356,0.29581946912454926,0.27363805332488345,0.24291764476459712,0.20828709293381972,0.1749906618986121,0.14734487355243345,0.1274402260399788,0.11486930514769542,0.10724092334628417,0.10129304383714371,0.09387395249936466,0.08300658308662634,0.06829159218698094,0.050823235752359364,0.03271268418677641,0.016369407106369385,0.003869441292134846,-0.0035270005076122146,-0.005594451841565488,-0.003147335996264082,0.002319516205107153,0.008919771612367075,0.014850513805828015,0.01885885106404605,0.020588809366296697,0.021075122756938854,0.022649251396891723,0.028739674889967617,0.04331215396965758,0.0699548879802487,0.11125086397092368,0.16772371368622407,0.23736362962703958,0.3155680865346128,0.3954749034455664,0.4693963134735,0.5297462982118152,0.5704192442609851,0.5878240190995682,0.5810090436384917,0.553157095638524,0.5093701706154266,0.4561999227476997,0.4004316310765563,0.3474047280860129,0.30166831070109956,0.2648505914195803,0.23618829546982215,0.21303924305354446,0.1912260669353209,0.16773797025421958,0.1400496596139514,0.10724956388378731,0.0702538169072788,0.03127646107749861,-0.00583263040087579,-0.03734777492064034,-0.0601859162081665,-0.07253160923898684,-0.07420768660076008,-0.06642040129136252,-0.051670538694935764,-0.033062864921007955,-0.013643855347044528,0.004141042314057376,0.018901358219430675,0.030251617563256457,0.03868824074948408,0.04524389854489777,0.051078561530362346,0.05710728179211282,0.06379534931390764,0.0711182997740404,0.07869854958353505,0.08604211084914244,0.09284158258901268,0.09912109678138192,0.10531179212377559,0.11215320062217228,0.12044462920649847,0.13084905538946612,0.14353771431968565,0.15811475817728687,0.1736795382327039,0.18889946205683197,0.20298571533367357,0.2152508606924942,0.22570903060474826,0.23520587584323546,0.244982414918128,0.2574462604048895,0.2740952293066224,0.2955327587753081,0.32110120782098883,0.34854371775294024,0.37495740717667164,0.39621791073958695,0.4080752017504047,0.4069965397987422,0.39080903584521937,0.3596093508325042,0.3153284149146245,0.2616649994691477,0.2034982698993711,0.14605325126456767,0.09419701300854726,0.051541991519419114,0.020065369946725115,-3.2511027112633745e-19,-0.009914919814771432,-0.012118812211959193,-0.00945869643711253,-0.004684719764741989,1.8926273120102585e-19,0.0032094244427359787,0.004401666449084237,0.0037825971738947375,0.0020332553964246183,1.721972521585252e-20,-0.0016086924326461464,-0.0023210813683621472,-0.0020841783902731965,-0.0011637600041492875,-1.713861100837301e-19,0.000924532992973571,0.0013848375584093854,0.0012867070985293182,0.0007410865051455258,2.4204658007382497e-19,-0.0007054500358546077,-0.0010482770143911664,-0.0009639481030688946,-0.0005484172289299464,-3.4955843454842244e-19,0.00037665022079504595,0.0005930567550968299,0.0005753839584135066,0.0003438889878179794,2.915147537617087e-19,-0.0004390667208864328,-0.0006311209961078995,-0.0005591228568013827,-0.0003052360844833607,-3.7227599720214466e-19,7.090776904128437e-05,0.00014456639671067673,0.00016811411393316338,0.00011491243275483875,1.718693937887506e-19,-0.0003367488270427133,-0.000450153276162714,-0.0003659508938139943,-0.00018017099583766703,-2.912169443472758e-19,0.0,0.0,0.0,0.0,0.0,0.0,0.0,0.0,0.0,0.0,0.0,0.0,0.0,0.0,0.0,0.0,0.0,0.0,0.0,0.0,0.0,0.0,0.0,0.0,0.0,0.0,0.0,0.0,0.0,0.0,0.0,0.0,0.0,0.0,0.0,0.0,0.0,0.0,0.0,0.0,0.0,0.0,0.0,0.0,0.0,0.0,0.0,0.0,0.0,0.0,0.0,0.0,0.0,0.0,0.0,0.0,0.0,0.0,0.0,0.0,0.0,0.0,0.0,0.0,0.0,0.0,0.0,0.0,0.0,0.0,0.0,0.0,0.0,0.0,0.0,0.0,0.0,0.0,0.0,0.0,0.0,0.0,0.0,0.0,0.0,0.0,0.0,0.0,0.0,0.0,0.0,0.0,0.0,0.0,0.0,0.0,0.0,0.0,0.0,0.0,0.0,0.0,0.0,0.0,0.0,0.0,0.0,0.0,0.0,0.0,0.0,0.0,0.0,0.0,0.0,0.0,0.0,0.0,0.0,0.0,0.0,0.0,0.0,0.0,0.0,0.0,0.0,0.0,0.0,0.0,0.0,0.0,0.0,0.0
0.5878240190995682,0.627013314678444,0.6160845358205232,0.5635878869859687,0.4854784024996782,0.4004316310765563,0.3245766066824652,0.26850729671945134,0.2349242105711555,0.2194284978913328,0.21303924305354446,0.20526948851727364,0.18843185555736477,0.15892098606331906,0.11789536445935406,0.07025381690727882,0.022261428781779585,-0.01932610949875513,-0.0498581578460287,-0.06737237075596411,-0.07253160923898685,-0.06836808773333632,-0.057817239671231625,-0.043857961886781545,-0.02869265440389072,-0.013643855347044523,0.00023333599123701178,0.013023633984268682,0.02476795981345058,0.03551233499654113,0.04524389854489777,0.053589347674113115,0.06083176218140606,0.06720848774081321,0.07305067702051798,0.07869854958353503,0.08416525539948709,0.08991141166542757,0.09626441566530769,0.10357097234362557,0.11215320062217228,0.12201326005501525,0.13335680717926057,0.1460444713093584,0.1596827852838033,0.1736795382327039,0.18722904526153267,0.19999267357816836,0.21191761148599617,0.2234001048911872,0.23520587584323546,0.24783703337284474,0.2627339349380001,0.2802207679699051,0.29997877294183917,0.32110120782098883,0.3419599808452653,0.3617199335060787,0.3793437200375509,0.3943507748644159,0.4069965397987422,0.4179649547794209,0.4290032446520564,0.4415750111109139,0.4566598326488102,0.4743509264491292,0.49354225523227296,0.5123942525976942,0.5283440631601609,0.5387879956891265,0.5417053130995163,0.5361987752879322,0.5225937353201064,0.5025398375573641,0.47855004534960693,0.4534131813904596,0.42958819924251634,0.40870183620011435,0.3913584523994752,0.37718453600431673,0.3651210496814029,0.3538212254325267,0.3421596760874889,0.32942063928658794,0.3154680403370668,0.3006877412872899,0.285745005401395,0.271471597323509,0.2584132911151812,0.2467477023687986,0.23625443289317694,0.22634239938221995,0.21643789936615968,0.20589591914177935,0.19430127697237465,0.18161690694959334,0.1681561798654282,0.15488970776820649,0.1428721220426591,0.13323155932696215,0.1269793810060098,0.12470103296163107,0.12686735212508263,0.1331389431909587,0.14260205147554128,0.15388480788276437,0.16516732874622495,0.17501825526566242,0.181766649096326,0.18400782403816232,0.18079023475951897,0.17152935834480174,0.1568595223229053,0.13755709737141686,0.11486369899137214,0.09039511737975948,0.06573710898086461,0.04316100161140537,0.02414931077208847,0.009651866499036642,2.9347042411865503e-19,-0.00537037094257777,-0.006754895313349565,-0.005402211352631961,-0.0027287143240023017,-5.686121224244229e-19,0.0016788248949791132,0.0023692704470092496,0.002095125040395475,0.0011580590545827657,2.4600838178595025e-19,-0.001138101794155577,-0.0016218226280544116,-0.0014318842733213712,-0.0007829587543425986,-4.2481378533755896e-19,0.00046172069759032935,0.0007095420580633892,0.0006750092949233087,0.0003971732206541664,1.9687239363276775e-19,-0.0004811356395097886,-0.0006923633450605662,-0.0006150427472356107,-0.00033726010954629525,-2.999517774404037e-19,0.00017123014239566392,0.0002714311782426766,0.00026488258257345576,0.00015911007518540365,1.3899382678742658e-19,-0.00021365212619136535,-0.00030523297295319165,-0.0002685961084407805,-0.00014554785056241124,-1.8146620647591272e-19,3.149764422465779e-05,6.421723588260781e-05,7.467726909765501e-05,5.104477228432431e-05,7.63453862934794e-20,-0.0001495857913832636,-0.00019996070854918642,-0.0001625575196187265,-8.003300630136906e-05,-1.2936026375194375e-19,0.0,0.0,0.0,0.0,0.0,0.0,0.0,0.0,0.0,0.0,0.0,0.0,0.0,0.0,0.0,0.0,0.0,0.0,0.0,0.0,0.0,0.0,0.0,0.0,0.0,0.0,0.0,0.0,0.0,0.0,0.0,0.0,0.0,0.0,0.0,0.0,0.0,0.0,0.0,0.0,0.0,0.0,0.0,0.0,0.0,0.0,0.0,0.0,0.0,0.0,0.0,0.0,0.0,0.0,0.0,0.0,0.0,0.0,0.0,0.0,0.0,0.0,0.0,0.0,0.0,0.0,0.0,0.0,0.0,0.0,0.0,0.0,0.0,0.0,0.0,0.0,0.0,0.0,0.0,0.0,0.0,0.0,0.0,0.0,0.0,0.0,0.0,0.0,0.0,0.0,0.0,0.0,0.0,0.0,0.0,0.0,0.0,0.0,0.0,0.0,0.0,0.0,0.0,0.0,0.0,0.0,0.0,0.0,0.0,0.0,0.0,0.0,0.0,0.0,0.0,0.0,0.0,0.0,0.0,0.0,0.0,0.0,0.0,0.0,0.0,0.0,0.0,0.0,0.0,0.0,0.0,0.0,0.0,0.0
0.5417053130995163,0.5870620142762001,0.5908480304514961,0.5604564766775431,0.509445662469626,0.4534131813904596,0.40558862547658386,0.374056610950746,0.36023891255234175,0.3598130969643513,0.3651210496814029,0.36812741940725485,0.3632621025397088,0.3487009466034806,0.3263740671498725,0.3006877412872899,0.2765575190043871,0.2577779443778022,0.24578535640845556,0.2395432002287868,0.23625443289317694,0.23251558891959756,0.22564637780401572,0.21439321962202684,0.19915325276234705,0.18161690694959334,0.16401178121327312,0.14858158595379106,0.13690577546342553,0.12971938796283786,0.1269793810060098,0.1280094098912821,0.13205153022958127,0.13825114236824917,0.14578998650142727,0.15388480788276437,0.16169825330016135,0.16861355048912896,0.1741554238634668,0.178149259924579,0.18079023475951897,0.1825526209654225,0.18424088965556018,0.18662026087638992,0.19020032105642698,0.1950352672092451,0.20044099998236914,0.20566226140431815,0.2095937189450888,0.21111207684376146,0.20928029965897121,0.20288924966892954,0.19264813069206063,0.1790432714749837,0.162996565473376,0.14575790461014068,0.12842219000199434,0.11275436880056586,0.09966216702834037,0.08953043161501781,0.08223550956131011,0.0772934710874146,0.0740741937697941,0.07157586775737479,0.06889217213356251,0.065460276253901,0.06116908523546289,0.0566250023786577,0.052510175905199054,0.04962140952892628,0.04868504294649188,0.05006493459418273,0.054111073665265505,0.06051098747824851,0.06857954612561429,0.07741414539419172,0.08598257177711453,0.0936414672212722,0.09977040490963342,0.10398807587299122,0.10614324784189155,0.10618959956817407,0.10435888751986984,0.10077909866818045,0.09560855441600304,0.08913102948755763,0.08182154959612836,0.07479805226962548,0.06951334024350783,0.0678829613138858,0.07211881113322371,0.08429677556009713,0.10623838433744726,0.1385187305355405,0.18019461732639433,0.22856704993146323,0.27912502205149275,0.3262994831191736,0.36363476884906076,0.3848842180532589,0.3850152887297027,0.36100431867832067,0.31287572450971346,0.24338279732530518,0.15798091578725953,0.06418159096327408,-0.029510725791729395,-0.11448047002820039,-0.1835295552536647,-0.23166625803693522,-0.25665210680315453,-0.2591463357761784,-0.24220776246552972,-0.2108171837124612,-0.17089112279371793,-0.12832605340157727,-0.0882043798973484,-0.05409490319116427,-0.027975027961905374,-0.01023620050488458,1.6400539750724657e-19,0.004389827282488681,0.004962489205480005,0.003563743209284466,0.0016156278057532399,-2.35931031483773e-19,-0.0009508739347313527,-0.001172371126276748,-0.0008985787043791719,-0.00042725732267815276,2.2303923667819157e-19,0.0001995090309431114,0.0002543279504195004,0.00020341713045060692,0.00010237204341830789,-2.583120426787084e-19,-0.00011825303982280697,-0.00015486773075269918,-0.00012571360718613075,-6.33831013226267e-05,1.5953593793830302e-19,6.327203748809039e-06,1.6922173173518004e-05,2.3877983579936087e-05,1.90539681951703e-05,-1.4907531605714297e-19,-0.00014459679458073854,-0.0001845391069547741,-0.0001425372518119557,-6.627298847748891e-05,4.1391722192251544e-20,-0.00016440662909372533,-0.0001919045524853922,-0.00012696615868474184,-4.3617628500178685e-05,-1.4685901118678137e-19,-4.471445462940851e-05,-9.116360130993545e-05,-0.00010601279692851396,-7.246380516893116e-05,-1.0838087722484413e-19,0.00021235388381125146,0.00028386675417101386,0.00023076871348907081,0.00011361586928828857,1.836414686485163e-19,0.0,0.0,0.0,0.0,0.0,0.0,0.0,0.0,0.0,0.0,0.0,0.0,0.0,0.0,0.0,0.0,0.0,0.0,0.0,0.0,0.0,0.0,0.0,0.0,0.0,0.0,0.0,0.0,0.0,0.0,0.0,0.0,0.0,0.0,0.0,0.0,0.0,0.0,0.0,0.0,0.0,0.0,0.0,0.0,0.0,0.0,0.0,0.0,0.0,0.0,0.0,0.0,0.0,0.0,0.0,0.0,0.0,0.0,0.0,0.0,0.0,0.0,0.0,0.0,0.0,0.0,0.0,0.0,0.0,0.0,0.0,0.0,0.0,0.0,0.0,0.0,0.0,0.0,0.0,0.0,0.0,0.0,0.0,0.0,0.0,0.0,0.0,0.0,0.0,0.0,0.0,0.0,0.0,0.0,0.0,0.0,0.0,0.0,0.0,0.0,0.0,0.0,0.0,0.0,0.0,0.0,0.0,0.0,0.0,0.0,0.0,0.0,0.0,0.0,0.0,0.0,0.0,0.0,0.0,0.0,0.0,0.0,0.0,0.0,0.0,0.0,0.0,0.0,0.0,0.0,0.0,0.0,0.0,0.0
0.8278858417158144,0.8878632267770791,0.8795276839303708,0.814608163244035,0.7149524300879765,0.6060499462417541,0.509823602608479,0.4405041225227314,0.4015503848799532,0.3868410601051506,0.38421405076769366,0.37973683823877513,0.3634016831169118,0.3308017873177765,0.2838334904186554,0.22911340568912716,0.17474211479462862,0.12883844890889973,0.09640647776380519,0.07877514742358871,0.07401276061056056,0.07770654557282997,0.08595196572999521,0.09548535784442808,0.10452295026269802,0.11263965508632681,0.1197863896633306,0.12691250984843241,0.13452782264463367,0.14273385858525547,0.151266549562093,0.15932642146247164,0.16687896135537883,0.17394418329839295,0.1807529748080574,0.1875896668855083,0.19436177352616535,0.20133990674491,0.2085669246625937,0.21607245024936964,0.22391278420892355,0.2319773722676065,0.24046239551466506,0.24937783545611267,0.25858345827529383,0.2677970374428644,0.27658049761639597,0.2848909298934536,0.29298350894154784,0.30155943170615496,0.31168129067680533,0.324033681154804,0.3404067605291114,0.3610641708873758,0.3853874694184442,0.4119511098134184,0.4384280453309755,0.4632918999397413,0.48460222434282885,0.5010359831212422,0.5122209289500315,0.5186092759921901,0.5220730531183175,0.5244428290513105,0.527351149492262,0.5317765607259082,0.5376379904045792,0.5442460412672036,0.5499515537714864,0.5528458993664108,0.551332192501785,0.5445619187847269,0.5328173803119056,0.5172522808645306,0.4996227891832719,0.4817888059066526,0.4651453034497778,0.4504733985880936,0.4375209030345993,0.4252575744740766,0.41224541931152014,0.397024365344101,0.3788299231786715,0.3574636166700216,0.33349106696692177,0.3080954098233827,0.28267580623510835,0.25884747574687944,0.23762494579284005,0.21940382841936187,0.20394540033524522,0.19040013752217697,0.17799443070009435,0.16573482516693677,0.15288592878385987,0.1391601711741739,0.12463165737246028,0.11017197440599001,0.09655486224680258,0.08447790896254827,0.0743749420131026,0.0661423533821353,0.059746657009567675,0.05452114900101338,0.04966749795300238,0.04451206758521625,0.0384963065975045,0.03207745379159484,0.025615674231962263,0.01963206537851037,0.014649193157329899,0.010761254617616879,0.008528076569609805,0.00762609627742716,0.007447224062114239,0.0073245965786649485,0.006478292374553477,0.005206436921424438,0.0035379388232522633,0.0016916901026793618,4.404850587545631e-19,-0.0014927950006914487,-0.0020566003765534213,-0.0017679574653110361,-0.0009450823523614215,-6.689594195718789e-19,0.0004670726373102287,0.0007246713664462993,0.000696766860869796,0.00041432665000262347,2.819591855853408e-19,-0.0005940548240292445,-0.0008348686087056496,-0.0007222128685322731,-0.00038439382127301245,-4.246894381282842e-19,0.00012246438565622654,0.00020336344546150245,0.00020633188947235767,0.00012805214883394804,1.242542504898369e-19,-0.00023038336864454815,-0.0003189130980023383,-0.0002707400682654498,-0.00014080427558791324,-1.8865431697219404e-19,2.5039740402169684e-05,4.475723862077934e-05,4.7934455263566055e-05,3.09866737547979e-05,3.8325165293513074e-20,-7.033666378688959e-05,-9.56140854461415e-05,-7.938688052506721e-05,-4.0163405448890514e-05,-6.055919801242875e-20,2.5522123739793054e-06,5.20343752927511e-06,6.05100016009494e-06,4.136090258744552e-06,6.186165486049632e-21,-1.2120738459576041e-05,-1.6202551245701882e-05,-1.317182040965178e-05,-6.484968448821741e-06,-1.0481890756467355e-20,0.0,0.0,0.0,0.0,0.0,0.0,0.0,0.0,0.0,0.0,0.0,0.0,0.0,0.0,0.0,0.0,0.0,0.0,0.0,0.0,0.0,0.0,0.0,0.0,0.0,0.0,0.0,0.0,0.0,0.0,0.0,0.0,0.0,0.0,0.0,0.0,0.0,0.0,0.0,0.0,0.0,0.0,0.0,0.0,0.0,0.0,0.0,0.0,0.0,0.0,0.0,0.0,0.0,0.0,0.0,0.0,0.0,0.0,0.0,0.0,0.0,0.0,0.0,0.0,0.0,0.0,0.0,0.0,0.0,0.0,0.0,0.0,0.0,0.0,0.0,0.0,0.0,0.0,0.0,0.0,0.0,0.0,0.0,0.0,0.0,0.0,0.0,0.0,0.0,0.0,0.0,0.0,0.0,0.0,0.0,0.0,0.0,0.0,0.0,0.0,0.0,0.0,0.0,0.0,0.0,0.0,0.0,0.0,0.0,0.0,0.0,0.0,0.0,0.0,0.0,0.0,0.0,0.0,0.0,0.0,0.0,0.0,0.0,0.0,0.0,0.0,0.0,0.0,0.0,0.0,0.0,0.0,0.0,0.0
0.551332192501785,0.5990181697733155,0.6056324398756002,0.5788558801542241,0.5324048952027098,0.4817888059066526,0.4398990892692699,0.41408805323209574,0.4048860236427444,0.4070647558248771,0.41224541931152014,0.4120316411419567,0.40092505711182114,0.37761214966983914,0.34486542469098064,0.3080954098233827,0.273130365818974,0.24460425354499138,0.22447107853231807,0.21188561235911643,0.20394540033524522,0.1968000739861175,0.18748340041774925,0.1744263494040326,0.15780381934486523,0.1391601711741739,0.12067599915647426,0.10428608254359825,0.09114501087876,0.08140537464732117,0.0743749420131026,0.06912360838002804,0.06426628217434092,0.0588065906636426,0.05221972526095108,0.04451206758521625,0.036318946228551995,0.02832037852331666,0.021439038510835534,0.016610951799980317,0.0146491931573299,0.01619504818379359,0.021326307023002672,0.029675249121036088,0.04038906444849451,0.05225347653066179,0.06397814015672389,0.07426633870680827,0.08220249440642705,0.08736715873179009,0.08985775990399368,0.0899345350188699,0.0887822720243113,0.08696669375610193,0.08482119988823478,0.08248330229445741,0.07976153801811342,0.07725666573537601,0.07524669060120161,0.07425716825787339,0.07510884468492114,0.07856441914298992,0.08607086016397579,0.0982588239885947,0.11504978143823859,0.13543958619158472,0.15722694576453894,0.177789298198064,0.19351931720674273,0.20062569012647644,0.1957703276982483,0.17660605205832539,0.1426995266543327,0.09529036559259042,0.037477419313460325,-0.02609924460679706,-0.08993997454191464,-0.14821468127295598,-0.19597361719203998,-0.22974064645097994,-0.24796881691184242,-0.2511918976285832,-0.2416356869183313,-0.22287272942402722,-0.19903272566323102,-0.17405376446864812,-0.1510858565249275,-0.13202769035057052,-0.11756041461415667,-0.10729341386302106,-0.10013871202545384,-0.09476690989359923,-0.08998109275434994,-0.08501889108029535,-0.07961818382950937,-0.07392210680507129,-0.06829465457886866,-0.0629725115371391,-0.058003801767086464,-0.05310688123576953,-0.04770550158468874,-0.04112585340695827,-0.03263721436064266,-0.02190379882960707,-0.009051435610917091,0.005292126002398421,0.020029212080561902,0.033926486381954564,0.04563180952708135,0.053997316814986596,0.05828975358948558,0.05827802624698894,0.05440060160079145,0.04748525596724942,0.038658121963449685,0.02914487679474279,0.020001125228039287,0.012218030875326035,0.006277801976166449,0.002276404747012936,-8.290043772344527e-20,-0.001056895571635675,-0.0011773871128601216,-0.0008206596034573549,-0.00035382093711947915,4.941244530272018e-20,0.0001772957943633061,0.00018446254893634195,0.00010731593552217771,3.033441343050871e-05,-1.7657820779368334e-19,0.00014419693812694166,0.00019687759709983597,0.00016197463380842377,7.988886040634076e-05,2.4603993793368826e-19,4.5038131165780235e-05,5.51679914495627e-05,4.064636535414416e-05,1.78385722804143e-05,-5.283892729509174e-20,4.3997612680628825e-05,5.257718336683587e-05,3.594720057310287e-05,1.3115510470985373e-05,7.38736494616014e-20,3.9763378659808375e-05,5.602665196955477e-05,4.878647385862724e-05,2.6271247682674276e-05,7.379945117589279e-21,4.460498854632754e-06,-3.6665765919935943e-07,-6.8940006404315745e-06,-7.68494276077059e-06,4.920713401371266e-21,1.0155360011268057e-05,2.070469602948502e-05,2.4077183262846704e-05,1.6457676502508155e-05,2.4615011760233887e-20,-4.822892636771434e-05,-6.447063053164892e-05,-5.241122550284555e-05,-2.5803961273339306e-05,-4.1707882665242503e-20,0.0,0.0,0.0,0.0,0.0,0.0,0.0,0.0,0.0,0.0,0.0,0.0,0.0,0.0,0.0,0.0,0.0,0.0,0.0,0.0,0.0,0.0,0.0,0.0,0.0,0.0,0.0,0.0,0.0,0.0,0.0,0.0,0.0,0.0,0.0,0.0,0.0,0.0,0.0,0.0,0.0,0.0,0.0,0.0,0.0,0.0,0.0,0.0,0.0,0.0,0.0,0.0,0.0,0.0,0.0,0.0,0.0,0.0,0.0,0.0,0.0,0.0,0.0,0.0,0.0,0.0,0.0,0.0,0.0,0.0,0.0,0.0,0.0,0.0,0.0,0.0,0.0,0.0,0.0,0.0,0.0,0.0,0.0,0.0,0.0,0.0,0.0,0.0,0.0,0.0,0.0,0.0,0.0,0.0,0.0,0.0,0.0,0.0,0.0,0.0,0.0,0.0,0.0,0.0,0.0,0.0,0.0,0.0,0.0,0.0,0.0,0.0,0.0,0.0,0.0,0.0,0.0,0.0,0.0,0.0,0.0,0.0,0.0,0.0,0.0,0.0,0.0,0.0,0.0,0.0,0.0,0.0,0.0,0.0
0.6584672851313276,0.7225183978251105,0.7411344250575074,0.7231895408252258,0.6842616360247639,0.6416767972826979,0.6092719221896633,0.5946352069090288,0.5974233836638554,0.6108617112681515,0.6248863094340681,0.629477221647038,0.6190097209811108,0.592845279639373,0.5551841640314219,0.5131281720922919,0.47378853003897453,0.4426456932003149,0.42162644663730203,0.4091834621216682,0.40137003475051564,0.39345174602778893,0.38178822185402556,0.3647245286056458,0.3428508125905499,0.3184377792893276,0.29437394367900416,0.2732436035743562,0.2564986657599771,0.2442498557931077,0.23550552382813955,0.22869614366647575,0.22229353376831176,0.21523553477292903,0.20712506266682157,0.1981747586223007,0.18894257862715955,0.18017300396816338,0.17245093458298041,0.16604895241106696,0.1608439934164618,0.15625280957172172,0.1515475020003481,0.14586749995156012,0.1385030347413166,0.12917570235804351,0.11822053594041008,0.10702746264510832,0.09785212550813115,0.09363127568796728,0.09750741129962517,0.11174690142058176,0.13866675056289607,0.17815558116353433,0.228105896408627,0.28455609202971915,0.34167515472064725,0.3942080397121969,0.4363187926369615,0.4631546913952293,0.47160477275981316,0.4602389704286512,0.43125929912616046,0.38813925175558905,0.33575943478996767,0.27966055113499355,0.22483850270055217,0.17628710734413583,0.13685995625284803,0.1075690294247878,0.0877163295101739,0.07510644513188924,0.06744005233944059,0.061930019874075516,0.05628514248643799,0.049156959764766375,0.04015280156839088,0.030355524081218794,0.02116072526722762,0.01413550359912123,0.010597590019358857,0.011167795234310567,0.016069988732540303,0.024545735187076756,0.03528634967996903,0.04676851791693174,0.05750246118989633,0.06669873148205717,0.07389732068076257,0.0791570630428753,0.08293944581450462,0.08582052489317407,0.08857915732074927,0.09159777773286433,0.09494174691775882,0.09841846267298225,0.10166589163199663,0.10460642781056162,0.10729170739583119,0.11013281282272772,0.11389747953145982,0.11952159430246374,0.12805127555820747,0.1400869115046503,0.1556033598944598,0.17378754868098195,0.19288447769259398,0.2109260996893033,0.22531840559076938,0.23355183581321587,0.2336776178305041,0.22445166468789138,0.20648136222141572,0.1810117426556686,0.15020409851519617,0.11683880891525204,0.08375873905756304,0.05396888926353809,0.029512427952566714,0.01148709974569853,-1.301267941345515e-19,-0.005747956709271054,-0.007028067959011546,-0.0054827646596989875,-0.00271177778409842,1.6667309912925218e-20,0.0018183706305801416,0.002490394663215479,0.002137136377996311,0.0011471710692925931,7.805719193230551e-21,-0.0008975563912314846,-0.0012956657778214337,-0.0011642411175065565,-0.0006506550622998293,-8.882474771583834e-20,0.0005166125936924286,0.0007752215272918209,0.0007215781161339051,0.00041631527108867755,1.3681771352417349e-19,-0.0004076792349741588,-0.0006031081264237632,-0.0005520660481593935,-0.00031263548445248975,-2.0337182296976694e-19,0.00021257008677388152,0.0003329931164316373,0.00032162278882225397,0.00019147383258125952,1.5844378537125658e-19,-0.00023459431761099824,-0.00033897039330478215,-0.00030200746160260366,-0.00016589058026526864,-1.9861202987776798e-19,4.071179220205767e-05,8.300299363330095e-05,9.652294755875215e-05,6.597712982655117e-05,9.867904660415055e-20,-0.00019334479784390756,-0.0002584561168119915,-0.00021011120426646496,-0.00010344542273090305,-1.6720260536023407e-19,0.0,0.0,0.0,0.0,0.0,0.0,0.0,0.0,0.0,0.0,0.0,0.0,0.0,0.0,0.0,0.0,0.0,0.0,0.0,0.0,0.0,0.0,0.0,0.0,0.0,0.0,0.0,0.0,0.0,0.0,0.0,0.0,0.0,0.0,0.0,0.0,0.0,0.0,0.0,0.0,0.0,0.0,0.0,0.0,0.0,0.0,0.0,0.0,0.0,0.0,0.0,0.0,0.0,0.0,0.0,0.0,0.0,0.0,0.0,0.0,0.0,0.0,0.0,0.0,0.0,0.0,0.0,0.0,0.0,0.0,0.0,0.0,0.0,0.0,0.0,0.0,0.0,0.0,0.0,0.0,0.0,0.0,0.0,0.0,0.0,0.0,0.0,0.0,0.0,0.0,0.0,0.0,0.0,0.0,0.0,0.0,0.0,0.0,0.0,0.0,0.0,0.0,0.0,0.0,0.0,0.0,0.0,0.0,0.0,0.0,0.0,0.0,0.0,0.0,0.0,0.0,0.0,0.0,0.0,0.0,0.0,0.0,0.0,0.0,0.0,0.0,0.0,0.0,0.0,0.0,0.0,0.0,0.0,0.0
0.47160477275981316,0.4995360304861038,0.4848403136101167,0.4341801002785481,0.3605651237172396,0.27966055113499355,0.20545913899173757,0.1480270457824276,0.11122157380470428,0.09311172455757746,0.0877163295101739,0.08710502678244696,0.08510346704126184,0.07801433293830301,0.06533950871426146,0.04915695976476638,0.0323308337072462,0.01853422147176906,0.010079537549671105,0.007690334807394426,0.01059759001935885,0.016524576722895007,0.024032028355802773,0.03185130444166513,0.03942289839005483,0.04676851791693174,0.053700961850741025,0.060817641217560815,0.06823913875128802,0.07576893139296342,0.08293944581450462,0.08880705796406638,0.09319479487840987,0.0960347852283833,0.09759769016759337,0.09841846267298225,0.09890359660025354,0.10000114471970303,0.10248532369795642,0.10699095611155796,0.11389747953145982,0.12305660175282056,0.1342897988943618,0.14701458641625148,0.16044976569432323,0.17378754868098195,0.18627743546516937,0.1978391642653788,0.20889013897336847,0.2203974544896002,0.23367761783050406,0.24972539865607774,0.27001635004260943,0.2947489956113386,0.3231877500900787,0.35376486505848553,0.3841915201388655,0.412652996672128,0.43745713770375366,0.45776814825465006,0.47385211228646695,0.4869478559923475,0.4991696338722137,0.5126156448484469,0.5288012386024977,0.5481101937726834,0.5694855373238545,0.5906816041955582,0.6085793242174129,0.6199738255209872,0.6223682752588999,0.6146026080656168,0.5971739690013769,0.5720944681031589,0.5424108438538507,0.5114809894135036,0.48219409712369693,0.4564756398099257,0.4348897531982476,0.4167671363712693,0.4005937035681075,0.38452320786587685,0.3670970904990808,0.347440118192209,0.32551874341033776,0.302075348497911,0.2783095801388988,0.2556995070350079,0.2353816510765697,0.2179883758460784,0.20355699342771452,0.19153953926596898,0.1812169967863231,0.17165314070490753,0.16204901861469215,0.15192965875449008,0.14113147215808386,0.13010316053598453,0.11931879082534767,0.10926810268917289,0.10030232408126558,0.09240941436244725,0.08564941254399432,0.07961056715869598,0.07377442275375143,0.06770215124353361,0.06100134260112141,0.05408758003456722,0.047230754712241904,0.04079058097351639,0.03510197840580166,0.03011503010100435,0.026256626417381374,0.023207335553440664,0.02046571825236357,0.01755098920290083,0.013902428807927142,0.010059765610909393,0.006234881135624188,0.0027598850140302883,4.44294481216744e-19,-0.0020801850573342706,-0.0027859640140278177,-0.0023429854488622786,-0.0012310807266751685,-7.035008529045808e-19,0.0006456063454894751,0.000969794878145296,0.0009074378801574635,0.0005274967371623163,2.769976058025552e-19,-0.0006760953833193745,-0.0009552216990835036,-0.0008322359953253184,-0.0004469947381316293,-4.2556770348819165e-19,0.0001795106200287103,0.0002884767587264714,0.0002850810088871616,0.000173211203416491,1.405355985760198e-19,-0.00026932325844794184,-0.0003777878500355982,-0.00032581449676322225,-0.0001726680992539712,-2.089805074490629e-19,4.64253857911245e-05,7.957116020687445e-05,8.26764931395457e-05,5.225128913507596e-05,5.893210034272377e-20,-0.00010407368544809526,-0.00014293330635836832,-0.00012016930138100351,-6.174763384955102e-05,-8.936153061420529e-20,6.115538424286193e-06,1.2468328448325574e-05,1.4499233826190423e-05,9.91078139168728e-06,1.4823113121242295e-20,-2.9043367446999832e-05,-3.8824090708432335e-05,-3.156194000714289e-05,-1.5539096249744365e-05,-2.511640737028499e-20,0.0,0.0,0.0,0.0,0.0,0.0,0.0,0.0,0.0,0.0,0.0,0.0,0.0,0.0,0.0,0.0,0.0,0.0,0.0,0.0,0.0,0.0,0.0,0.0,0.0,0.0,0.0,0.0,0.0,0.0,0.0,0.0,0.0,0.0,0.0,0.0,0.0,0.0,0.0,0.0,0.0,0.0,0.0,0.0,0.0,0.0,0.0,0.0,0.0,0.0,0.0,0.0,0.0,0.0,0.0,0.0,0.0,0.0,0.0,0.0,0.0,0.0,0.0,0.0,0.0,0.0,0.0,0.0,0.0,0.0,0.0,0.0,0.0,0.0,0.0,0.0,0.0,0.0,0.0,0.0,0.0,0.0,0.0,0.0,0.0,0.0,0.0,0.0,0.0,0.0,0.0,0.0,0.0,0.0,0.0,0.0,0.0,0.0,0.0,0.0,0.0,0.0,0.0,0.0,0.0,0.0,0.0,0.0,0.0,0.0,0.0,0.0,0.0,0.0,0.0,0.0,0.0,0.0,0.0,0.0,0.0,0.0,0.0,0.0,0.0,0.0,0.0,0.0,0.0,0.0,0.0,0.0,0.0,0.0
0.6223682752588999,0.6731026215744343,0.6756416384126999,0.63865322931894,0.5779067581798203,0.5114809894135036,0.4547184454434376,0.41683235218800807,0.39929911375400906,0.396910491912818,0.4005937035681075,0.40085052762112444,0.39114740483485694,0.3693789668896908,0.33790601048310365,0.302075348497911,0.2678874774267643,0.2401869151185943,0.2210976463079338,0.20985242648170185,0.20355699342771452,0.1984225342772416,0.19143202573128676,0.1810198347006515,0.16735549727988622,0.15192965875449008,0.1366771797296203,0.1234211001379225,0.1131101152759099,0.10569197367833605,0.10030232408126558,0.0956064137217028,0.09047243756039074,0.08414834810481127,0.07644686144024654,0.06770215124353361,0.05852761149821761,0.049860916225432116,0.04260153779951687,0.03751116823856239,0.03510197840580166,0.035467199566915734,0.03850656364981828,0.04373081066291982,0.05037595248614707,0.057529793961011294,0.06421146776427666,0.06984668223593031,0.07418669539399274,0.07739484778151372,0.07995760951622093,0.08208021300005096,0.08501571803781223,0.08904662245393022,0.09407642146645856,0.09971270194872556,0.10505613318195792,0.11011281016265796,0.114396053214364,0.117557721815963,0.11946779438123017,0.11995224406875038,0.11973585977530123,0.11916281075535601,0.11853249893994285,0.1180559117565851,0.1176346247442508,0.11754194530914812,0.11757121461145673,0.11739165988823104,0.11664402913194004,0.11493110824440435,0.11229261968940692,0.10871732123861896,0.10435037156697503,0.09948914895374227,0.09446688266033741,0.0898884701801398,0.08616316698697181,0.08359081846392884,0.08233426877554449,0.08235794251023382,0.08363103264205063,0.08588739581493272,0.08876099845323929,0.09184749153658774,0.09473651624320585,0.09720840818253312,0.09910804666432609,0.10043817321466518,0.101360714297631,0.10214053060754646,0.10314040830398456,0.10463519219261934,0.10675553288607352,0.1094302641524297,0.11234715406789776,0.11511201089053574,0.1171931314181351,0.11809883117966725,0.11749981400722839,0.11527164579735413,0.11167409924528908,0.10709784040543867,0.10204324621657523,0.0969999927644917,0.09227571253204264,0.08810372558267522,0.08435089893106944,0.08064950652703579,0.07650017152175502,0.07134534495719128,0.06493982458134775,0.057146133613807756,0.04810714561161547,0.03825008576087751,0.02816226832466481,0.01870657400556563,0.010572421408950886,0.004259892245394378,2.6684848239113952e-20,-0.0023305103446132187,-0.0029459665043348546,-0.002370521961296227,-0.0012063313368440168,-1.236664699291357e-19,0.000810360731154672,0.0011432527654917832,0.001009408223289206,0.000556627120397773,8.738118089350856e-20,-0.0004965643495228771,-0.0007189352472624119,-0.0006459499528896557,-0.0003599832123766069,-1.525451500604846e-19,0.00024821043570906476,0.0003805637007495413,0.0003611306673199947,0.00021193037354054153,1.1400564621581959e-19,-0.00024304268895942706,-0.00035263297627116045,-0.0003159709421450334,-0.00017483634405500458,-1.5987817847447653e-19,8.356490807349254e-05,0.00013750533971518004,0.0001384238669604207,8.533115556058678e-05,8.574327453261468e-20,-0.00014316819714389273,-0.00019968853897319916,-0.00017099283414882916,-8.981728356239188e-05,-1.2241488047714213e-19,1.3328016244476201e-05,2.717309132435779e-05,3.159918400651377e-05,2.1599251974167464e-05,3.230503657520312e-20,-6.329622124368979e-05,-8.461202853114282e-05,-6.878512077560577e-05,-3.3865428172049365e-05,-5.473792529937581e-20,0.0,0.0,0.0,0.0,0.0,0.0,0.0,0.0,0.0,0.0,0.0,0.0,0.0,0.0,0.0,0.0,0.0,0.0,0.0,0.0,0.0,0.0,0.0,0.0,0.0,0.0,0.0,0.0,0.0,0.0,0.0,0.0,0.0,0.0,0.0,0.0,0.0,0.0,0.0,0.0,0.0,0.0,0.0,0.0,0.0,0.0,0.0,0.0,0.0,0.0,0.0,0.0,0.0,0.0,0.0,0.0,0.0,0.0,0.0,0.0,0.0,0.0,0.0,0.0,0.0,0.0,0.0,0.0,0.0,0.0,0.0,0.0,0.0,0.0,0.0,0.0,0.0,0.0,0.0,0.0,0.0,0.0,0.0,0.0,0.0,0.0,0.0,0.0,0.0,0.0,0.0,0.0,0.0,0.0,0.0,0.0,0.0,0.0,0.0,0.0,0.0,0.0,0.0,0.0,0.0,0.0,0.0,0.0,0.0,0.0,0.0,0.0,0.0,0.0,0.0,0.0,0.0,0.0,0.0,0.0,0.0,0.0,0.0,0.0,0.0,0.0,0.0,0.0,0.0,0.0,0.0,0.0,0.0,0.0
0.5336049599119848,0.5853037397266456,0.600257516343152,0.5857713769879154,0.5545562996418467,0.5206713739807753,0.49538275947415594,0.4844992030982717,0.48734059028419363,0.49794769991375887,0.5077377880495659,0.5085865826851496,0.49563206008538024,0.46840207084234625,0.4305638684918423,0.38835165357206664,0.3482997149356027,0.31549559291535817,0.2921770707555044,0.27762827322782496,0.26896551909456734,0.2623518010460327,0.2546362805886341,0.24402863560441232,0.23041333088688815,0.2149982209321848,0.1994788316981457,0.1856495186197073,0.17459123948954108,0.16654401865589122,0.16103092276980221,0.15703876534192193,0.15380177877108944,0.1507353996784544,0.14759146193228165,0.14437455177009423,0.14106502257815942,0.13781727723539414,0.1346144071481787,0.13132044242005647,0.12771818077038624,0.12348055817167047,0.11850127868821558,0.11273471541676114,0.10626493698895914,0.09930489026401765,0.09209318351067985,0.0851415747138841,0.07897763596569413,0.07410594909334375,0.07089159975764907,0.06908611682502035,0.06910190314308373,0.07044981087960452,0.07243289792157546,0.07436834304200192,0.07542661408806546,0.07605035066471275,0.07640529895549744,0.07685316788749431,0.07784508632635476,0.0794253477272806,0.08237313488679981,0.08660349104743932,0.09172671399291339,0.09718561058299005,0.10217593443255411,0.10669694848706117,0.11053911433405204,0.11372704123172171,0.11652613483962534,0.11923690238277623,0.12260087396146643,0.12695698666682034,0.1323844192584063,0.13866298580532985,0.14518275870089167,0.15144480511151254,0.15662552031891402,0.15993797701801094,0.16079983677103435,0.15887307745531798,0.15443179349979905,0.14791646378397302,0.14000200593344736,0.13148594728007088,0.12308812671894877,0.11562208905077946,0.1095428808200336,0.1050607212934482,0.1021720577891074,0.10064850598146347,0.10034701013979537,0.10092831462077258,0.10202250865244782,0.10327364440145899,0.1043245002069398,0.10504223661020905,0.10528684286245607,0.10503036695138024,0.10437523101381055,0.1035081752294611,0.10279505942633564,0.10252063624270152,0.102867091030915,0.10383701789356531,0.10516561171101514,0.10646321456256821,0.10707328680823142,0.10624905638793429,0.10329880477332007,0.09769398364675534,0.08934179831899097,0.07844780784354363,0.06558920801481219,0.051649402386660034,0.03764103257356745,0.02473239604324408,0.013825077103840771,0.005510648921164117,4.879323397653086e-20,-0.0029383651667559,-0.0036827925956592128,-0.0029412791046164784,-0.0014870143000682763,-1.5025519764980864e-19,0.0009794314109079104,0.0013778105939378166,0.001214160029097717,0.0006687391253453931,1.114096425152564e-19,-0.0006278598946086425,-0.0008993641702981828,-0.000798888772386075,-0.00043988669013193186,-2.039028293169416e-19,0.0002843433521607737,0.00043359486602383385,0.0004095191811109551,0.00023936442355704962,1.136564231642095e-19,-0.000266868895561891,-0.0003883068936177609,-0.00034909276417643086,-0.00019389863918748383,-1.638516867920177e-19,0.00010338060612368936,0.0001663921273191882,0.00016449159715509957,9.989618552057821e-05,9.285567998057252e-20,-0.00014840518866023235,-0.00020959903451568397,-0.00018208201322324625,-9.724956913955695e-05,-1.264549175255981e-19,1.7996928904430773e-05,3.6692046566251134e-05,4.266863556974938e-05,2.916564588740527e-05,4.362175404309886e-20,-8.546940315397069e-05,-0.0001142523113719758,-9.288110890428413e-05,-4.572876352721107e-05,-7.39130664248095e-20,0.0,0.0,0.0,0.0,0.0,0.0,0.0,0.0,0.0,0.0,0.0,0.0,0.0,0.0,0.0,0.0,0.0,0.0,0.0,0.0,0.0,0.0,0.0,0.0,0.0,0.0,0.0,0.0,0.0,0.0,0.0,0.0,0.0,0.0,0.0,0.0,0.0,0.0,0.0,0.0,0.0,0.0,0.0,0.0,0.0,0.0,0.0,0.0,0.0,0.0,0.0,0.0,0.0,0.0,0.0,0.0,0.0,0.0,0.0,0.0,0.0,0.0,0.0,0.0,0.0,0.0,0.0,0.0,0.0,0.0,0.0,0.0,0.0,0.0,0.0,0.0,0.0,0.0,0.0,0.0,0.0,0.0,0.0,0.0,0.0,0.0,0.0,0.0,0.0,0.0,0.0,0.0,0.0,0.0,0.0,0.0,0.0,0.0,0.0,0.0,0.0,0.0,0.0,0.0,0.0,0.0,0.0,0.0,0.0,0.0,0.0,0.0,0.0,0.0,0.0,0.0,0.0,0.0,0.0,0.0,0.0,0.0,0.0,0.0,0.0,0.0,0.0,0.0,0.0,0.0,0.0,0.0,0.0,0.0
0.6654233335770554,0.7223088722059605,0.7290207165144583,0.6947295974474422,0.636012740693513,0.5717635348331934,0.5178549888890468,0.4836063660452166,0.4701393955430219,0.47157732915162315,0.4781037360893315,0.47967249168871484,0.46952076828457745,0.4457327689040892,0.41119292955240233,0.3719372784601123,0.3346424306631292,0.30458702841680724,0.28405510980684434,0.2721728621757396,0.2657708208308932,0.2607700418515972,0.2538898122011006,0.24344012004634244,0.22959149935695822,0.21391482335676634,0.1984330899740975,0.18503974342527885,0.17469874187895534,0.1673357366403636,0.1620588258826395,0.15749087030415798,0.15257413328913866,0.14663975513372307,0.1395715802971059,0.13171030652296956,0.12352740508833748,0.11580803658191374,0.10921739009541524,0.10428610517755643,0.10136178716329963,0.1004343288411416,0.10154064010515484,0.10442467059157444,0.10861733805407084,0.11347240128132509,0.11811823233902678,0.12198308157009109,0.12461054250555322,0.12579805168500036,0.12558301539935052,0.12370025657809233,0.12117412604003934,0.11823358489544818,0.11500672859185586,0.11159462162360931,0.10764477295755728,0.1040818609231213,0.10114637873249323,0.09898387076952889,0.0976062278478681,0.09635253524150743,0.09563499834477958,0.09515495479560906,0.09459886305875881,0.09375804554729034,0.09228122540271,0.09081719285875786,0.08970005612922301,0.08929272378334943,0.08990986324671255,0.09160573467542592,0.09464560375895556,0.09880527823893268,0.10367473677864263,0.10876892243112606,0.11353564402636415,0.11787269883271392,0.1216276174351173,0.12481929006121883,0.12762798161553957,0.13025878888349623,0.13317791348199617,0.13660206690580542,0.1405885428970309,0.14502025568483964,0.14956064584868975,0.15396678984059173,0.15781966416928325,0.16072986718744064,0.1624125297541397,0.16267638500121576,0.1616269121558418,0.15938055712587246,0.15613888621929567,0.15219101092630644,0.1478816838033656,0.14387893394484064,0.1409199516415835,0.1399292940160995,0.14196949209847312,0.14803495978215206,0.15907193162019773,0.175379619252549,0.1964848018629591,0.221004769677338,0.24660965645253585,0.27044887561450454,0.28924340010023963,0.2998978298366882,0.3000400472562029,0.28842227698972,0.26537724502992766,0.23258127754100105,0.1929134494512419,0.15002002362810146,0.10770493516725176,0.06953639589968161,0.03811845485293951,0.014879015623698307,-1.1026040393768443e-19,-0.007481849098876128,-0.009181843135672309,-0.007191336436424153,-0.0035716376463092135,-4.0344751306304165e-20,0.0023932902731401817,0.0032971178046874248,0.002846745068916778,0.0015375091534217521,8.369975696371616e-20,-0.0012754324823689642,-0.0018332505813908346,-0.0016382068953589846,-0.0009095255220477692,-2.220706393733951e-19,0.0006695435301009504,0.0010098899570479781,0.0009445760861628736,0.0005474196962936173,1.9726843650068464e-19,-0.0005671569271011832,-0.0008323384995360238,-0.0007554770488153216,-0.0004240638225884634,-2.989972075710703e-19,0.0002721935534596837,0.0004260421928894073,0.0004111955145439238,0.00024464404984331873,2.0163564616054194e-19,-0.0002976808664823024,-0.0004305079825743885,-0.0003839321100550298,-0.00021111009110493504,-2.5195805161759067e-19,5.227359029759643e-05,0.0001065751284327368,0.00012393463274622393,8.471406604866079e-05,1.2670304533736748e-19,-0.0002482530540169444,-0.0003318554263856488,-0.0002697809753559479,-0.0001328230312033179,-2.1468670418419528e-19,0.0,0.0,0.0,0.0,0.0,0.0,0.0,0.0,0.0,0.0,0.0,0.0,0.0,0.0,0.0,0.0,0.0,0.0,0.0,0.0,0.0,0.0,0.0,0.0,0.0,0.0,0.0,0.0,0.0,0.0,0.0,0.0,0.0,0.0,0.0,0.0,0.0,0.0,0.0,0.0,0.0,0.0,0.0,0.0,0.0,0.0,0.0,0.0,0.0,0.0,0.0,0.0,0.0,0.0,0.0,0.0,0.0,0.0,0.0,0.0,0.0,0.0,0.0,0.0,0.0,0.0,0.0,0.0,0.0,0.0,0.0,0.0,0.0,0.0,0.0,0.0,0.0,0.0,0.0,0.0,0.0,0.0,0.0,0.0,0.0,0.0,0.0,0.0,0.0,0.0,0.0,0.0,0.0,0.0,0.0,0.0,0.0,0.0,0.0,0.0,0.0,0.0,0.0,0.0,0.0,0.0,0.0,0.0,0.0,0.0,0.0,0.0,0.0,0.0,0.0,0.0,0.0,0.0,0.0,0.0,0.0,0.0,0.0,0.0,0.0,0.0,0.0,0.0,0.0,0.0,0.0,0.0,0.0,0.0
0.7076555895149738,0.7770981437471295,0.7982932090701234,0.7809191584563616,0.7417570042931547,0.6993107446484379,0.6683293060920446,0.6562837630734738,0.6620309375541871,0.6774447079925088,0.6909658997819023,0.6917298054610954,0.6732526414911026,0.6349733854788623,0.581916160898089,0.5226028862124423,0.4660527585050074,0.4194029581310034,0.38605330582617264,0.365481924759053,0.3542398726429826,0.34752074234977176,0.3412396643492419,0.33291308909836637,0.3220461454279567,0.3096778073459287,0.29735902756127114,0.28660684430373723,0.2780224254067926,0.2712225722657449,0.2651157420488748,0.25828033882551593,0.2498404190918292,0.2394863447747664,0.22757116481567857,0.2149001439440362,0.20229207035853317,0.19063593379857338,0.18044148071602906,0.17185052738534093,0.16468454583919762,0.15844047913925946,0.1527385584069034,0.14717715124076108,0.14146251762903944,0.13544716066594636,0.12903016681737076,0.12250495045074553,0.11625084736781627,0.11070192696940959,0.10620977549269509,0.10242131122911365,0.09997945390327168,0.0984316802490927,0.09712858902112445,0.09548517112761301,0.09269810774794522,0.08968706599569878,0.08692404553995815,0.08505817552142297,0.08476056676253095,0.08600797607588848,0.08979650101224547,0.09588512211504464,0.10360088812390507,0.11202891155332788,0.11987360901663591,0.1269297014555192,0.13265266003850246,0.13676723972016616,0.13929725634412482,0.14034071864727105,0.14067143114329878,0.14070246821871774,0.1407362489862811,0.14094011527073452,0.14119089080728334,0.14170856382394675,0.1422899909095281,0.14266499218504305,0.14258297419734425,0.14174241704088403,0.14034677955921096,0.13841911076052843,0.1360486260283557,0.13339488294701127,0.13056805831558613,0.12803101572070202,0.12601318729166133,0.12469534190189398,0.1242067916966783,0.12452981146652095,0.1258046092003824,0.1278834372569165,0.1304932251059887,0.1332837298109292,0.13583312169247871,0.1380070037811122,0.1396976960285227,0.14102420431361826,0.14236066792518012,0.14423232627739904,0.14739379573636333,0.15236336603245884,0.15932462132610611,0.16797545892917096,0.17741446783392434,0.18638203315553958,0.19318853809888079,0.19608402973742728,0.1935902499331618,0.1847632277581862,0.1695730132667087,0.14875574898651311,0.12381296337835958,0.0967951249665809,0.06992707584978916,0.04547403630452275,0.025128440629858667,0.009893250819773368,-1.7249547486026745e-20,-0.005106910118992508,-0.006322261243905834,-0.00499127044129182,-0.0024966316622278767,-1.2101920487069878e-19,0.0016593691401820048,0.002304073807009685,0.002004686157493501,0.0010907459719018122,9.903812083752159e-20,-0.0009432183075261578,-0.001355690662965323,-0.0012103288747751378,-0.0006708088895229303,-2.1500016167951312e-19,0.0004772464166473843,0.0007220376835132079,0.0006771182310872149,0.00039329199780081575,1.5944918270593807e-19,-0.00041249093388615846,-0.0006047789466746521,-0.0005482593653604597,-0.0003072898875140359,-2.322499465387201e-19,0.00018446677001574788,0.0002929187435502501,0.00028627627662923235,0.00017217960642391874,1.5153352005842145e-19,-0.00023406676978854845,-0.00033391237356704667,-0.00029335936865360437,-0.00015868193186627878,-1.9888708422560124e-19,3.372768903070548e-05,6.876383982280478e-05,7.996444724003453e-05,5.46587609527034e-05,8.175066774739216e-20,-0.00016017652047885892,-0.0002141180003241903,-0.0001740666518485572,-8.56993726093305e-05,-1.3851901804580162e-19,0.0,0.0,0.0,0.0,0.0,0.0,0.0,0.0,0.0,0.0,0.0,0.0,0.0,0.0,0.0,0.0,0.0,0.0,0.0,0.0,0.0,0.0,0.0,0.0,0.0,0.0,0.0,0.0,0.0,0.0,0.0,0.0,0.0,0.0,0.0,0.0,0.0,0.0,0.0,0.0,0.0,0.0,0.0,0.0,0.0,0.0,0.0,0.0,0.0,0.0,0.0,0.0,0.0,0.0,0.0,0.0,0.0,0.0,0.0,0.0,0.0,0.0,0.0,0.0,0.0,0.0,0.0,0.0,0.0,0.0,0.0,0.0,0.0,0.0,0.0,0.0,0.0,0.0,0.0,0.0,0.0,0.0,0.0,0.0,0.0,0.0,0.0,0.0,0.0,0.0,0.0,0.0,0.0,0.0,0.0,0.0,0.0,0.0,0.0,0.0,0.0,0.0,0.0,0.0,0.0,0.0,0.0,0.0,0.0,0.0,0.0,0.0,0.0,0.0,0.0,0.0,0.0,0.0,0.0,0.0,0.0,0.0,0.0,0.0,0.0,0.0,0.0,0.0,0.0,0.0,0.0,0.0,0.0,0.0
0.7050600663970463,0.7622790750257552,0.7646914372132767,0.7220674604531201,0.6522531293411704,0.5757649099007233,0.5101265223032616,0.4659306688005149,0.4450816932285082,0.4419392772722314,0.44646975340440026,0.44806621933007845,0.43941705231831724,0.4180747674123969,0.38650329982427495,0.3504201751419836,0.31643129035977113,0.2893760587199807,0.271170288149131,0.2606131326870644,0.25437059687956703,0.24890455814775006,0.24087839133637529,0.22888996029817898,0.21340886796572534,0.19624106953180012,0.17978856394747225,0.1656578066730632,0.15447794595317452,0.14573282656150632,0.1381115421840332,0.13004895256854387,0.12036308540998308,0.1085338147463857,0.0947857853948778,0.07991708433400922,0.06494263497364465,0.05097182709464642,0.03884993435545573,0.02906758812673253,0.021722626483985208,0.016452080149402967,0.012764742500843619,0.009936785598346523,0.00719568475742179,0.003891230386393517,-0.00038660474294118375,-0.005395424731289587,-0.010316732449704059,-0.013754062623224136,-0.013940165711198174,-0.009512241402128845,0.001658915718904267,0.020093177544314732,0.04513982199918488,0.07491062811125428,0.1060111322811237,0.1350586813042923,0.1574365032000971,0.1684011084703008,0.16376142193370677,0.14031034047632499,0.09744832046598688,0.036370176590392,-0.03932005043698135,-0.12377220217946457,-0.20965596385989546,-0.28833021280334126,-0.3519360048847876,-0.3941917036406357,-0.41130582629263585,-0.40264649187084567,-0.3702949988834713,-0.3192581304225451,-0.25634530828914764,-0.1890167971356932,-0.1243102777705032,-0.06747758166374176,-0.02187882695850086,0.011389735655757748,0.033272232021249466,0.046123287323447906,0.053234517182728806,0.05771592423271206,0.06201506584368807,0.0675628467760735,0.07465946024975448,0.08281101775025529,0.09087584836976756,0.09756799727806537,0.10185346153089753,0.10320850012825912,0.10175652711384381,0.09813055458282886,0.09328226596077767,0.08821274308624416,0.08372037699682557,0.0802427684245928,0.07780096113493416,0.07607685780330577,0.07457202464159078,0.07280284334393788,0.07043125204740291,0.06738484133148713,0.06383465475930827,0.060105097540283196,0.05650176121946666,0.05332937683477484,0.05061394145426315,0.04816432860818983,0.045638170438975605,0.04256826316710643,0.038806061848936715,0.03419392902610108,0.028778027546399305,0.022819085219487802,0.016806042643086674,0.011116059790967468,0.006221824081543286,0.0024684829316572016,-1.8727009663584238e-19,-0.0010443875696198191,-0.001302675460086482,-0.0010528060123872322,-0.000547386194622442,2.629115037159405e-19,0.0005226293977178707,0.0007397660196669727,0.0006548685931973273,0.0003618472641700746,6.589929374393326e-20,-0.00031316619669334664,-0.0004568980246388117,-0.00041373848032789343,-0.0002323976396022353,-1.0207203772023122e-19,0.0001589767439640231,0.0002473364175677692,0.00023779360654326833,0.0001411676445860995,8.760191223782087e-20,-0.00018192215301118152,-0.00026022315488513094,-0.00022953306117714828,-0.00012483427715057294,-1.2723343653149127e-19,5.063237079147673e-05,8.362173080040796e-05,8.442858167368572e-05,5.216985137867017e-05,5.3041886627598226e-20,-8.911287620447144e-05,-0.00012407830751129056,-0.00010603343079747028,-5.556360922893081e-05,-7.623137483318849e-20,7.951175335677013e-06,1.6210815590945768e-05,1.8851316496875e-05,1.2885596507075915e-05,1.927241123684527e-20,-3.776100988794688e-05,-5.0477510082361364e-05,-4.103555591022288e-05,-2.0203303498023557e-05,-3.265533546651474e-20,0.0,0.0,0.0,0.0,0.0,0.0,0.0,0.0,0.0,0.0,0.0,0.0,0.0,0.0,0.0,0.0,0.0,0.0,0.0,0.0,0.0,0.0,0.0,0.0,0.0,0.0,0.0,0.0,0.0,0.0,0.0,0.0,0.0,0.0,0.0,0.0,0.0,0.0,0.0,0.0,0.0,0.0,0.0,0.0,0.0,0.0,0.0,0.0,0.0,0.0,0.0,0.0,0.0,0.0,0.0,0.0,0.0,0.0,0.0,0.0,0.0,0.0,0.0,0.0,0.0,0.0,0.0,0.0,0.0,0.0,0.0,0.0,0.0,0.0,0.0,0.0,0.0,0.0,0.0,0.0,0.0,0.0,0.0,0.0,0.0,0.0,0.0,0.0,0.0,0.0,0.0,0.0,0.0,0.0,0.0,0.0,0.0,0.0,0.0,0.0,0.0,0.0,0.0,0.0,0.0,0.0,0.0,0.0,0.0,0.0,0.0,0.0,0.0,0.0,0.0,0.0,0.0,0.0,0.0,0.0,0.0,0.0,0.0,0.0,0.0,0.0,0.0,0.0,0.0,0.0,0.0,0.0,0.0,0.0
0.8620636665640086,0.9153608166604631,0.8925971380005827,0.806155236989297,0.6796394344462919,0.5410884344489133,0.4157002771316438,0.3201656950740833,0.26004303465995937,0.23055469653140007,0.22011320233381806,0.21514310095158434,0.20456105552678258,0.1826186014518537,0.1495237133442853,0.11005660116690905,0.07100380391391656,0.038474672635919485,0.016008585329698094,0.003944152392379541,-9.65877388104636e-18,0.000607654260903031,0.0023667444163066563,0.0030805788774676754,0.0020976610233832994,7.088982278131795e-18,-0.002085011669467623,-0.0031905136877994934,-0.002949443703994324,-0.0016536384431909855,-4.709303292120759e-18,0.0012935324037979985,0.001803991319539522,0.0015248624536065994,0.0007783508930359088,2.6924215101687244e-18,-0.00048121342259039657,-0.0005657936284325996,-0.0003720311613575073,-0.00012196114718041008,-1.1453949432646536e-18,-5.945046460427298e-05,-0.00021619028759063252,-0.00031934539262344587,-0.00025124836805212125,1.0288165977203032e-19,0.0003317298182105182,0.0005817629758421785,0.0006147220585607826,0.00039346507733278933,4.679793883206713e-19,-0.0008454795200112627,-0.0011541060875180263,-0.0009631349130598925,-0.0004903892884597911,-7.271467517759496e-19,3.834857200933899e-05,7.818487239617193e-05,9.092002598754103e-05,6.214731843701848e-05,9.295096874465084e-20,-0.00018212160412759787,-0.00024345336991373796,-0.00019791476157058534,-9.744066836812074e-05,-1.5749690212561912e-19,0.0,0.0,0.0,0.0,0.0,0.0,0.0,0.0,0.0,0.0,0.0,0.0,0.0,0.0,0.0,0.0,0.0,0.0,0.0,0.0,0.0,0.0,0.0,0.0,0.0,0.0,0.0,0.0,0.0,0.0,0.0,0.0,0.0,0.0,0.0,0.0,0.0,0.0,0.0,0.0,0.0,0.0,0.0,0.0,0.0,0.0,0.0,0.0,0.0,0.0,0.0,0.0,0.0,0.0,0.0,0.0,0.0,0.0,0.0,0.0,0.0,0.0,0.0,0.0,0.0,0.0,0.0,0.0,0.0,0.0,0.0,0.0,0.0,0.0,0.0,0.0,0.0,0.0,0.0,0.0,0.0,0.0,0.0,0.0,0.0,0.0,0.0,0.0,0.0,0.0,0.0,0.0,0.0,0.0,0.0,0.0,0.0,0.0,0.0,0.0,0.0,0.0,0.0,0.0,0.0,0.0,0.0,0.0,0.0,0.0,0.0,0.0,0.0,0.0,0.0,0.0,0.0,0.0,0.0,0.0,0.0,0.0,0.0,0.0,0.0,0.0,0.0,0.0,0.0,0.0,0.0,0.0,0.0,0.0,0.0,0.0,0.0,0.0,0.0,0.0,0.0,0.0,0.0,0.0,0.0,0.0,0.0,0.0,0.0,0.0,0.0,0.0,0.0,0.0,0.0,0.0,0.0,0.0,0.0,0.0,0.0,0.0,0.0,0.0,0.0,0.0,0.0,0.0,0.0,0.0,0.0,0.0,0.0,0.0,0.0,0.0,0.0,0.0,0.0,0.0,0.0,0.0,0.0,0.0,0.0,0.0,0.0,0.0,0.0,0.0,0.0,0.0,0.0,0.0,0.0,0.0,0.0,0.0,0.0,0.0,0.0,0.0,0.0,0.0,0.0,0.0,0.0,0.0,0.0,0.0,0.0,0.0,0.0,0.0,0.0,0.0,0.0,0.0,0.0,0.0,0.0,0.0,0.0,0.0,0.0,0.0,0.0,0.0,0.0,0.0,0.0,0.0,0.0,0.0
0.7057174901590186,0.762954238071843,0.7653078795040932,0.7225811614529707,0.6526747357912313,0.5761594592783197,0.5105278133772416,0.4663958020198883,0.4456059199630279,0.4424025839088492,0.4466014283976209,0.4474612081612384,0.4375464913127526,0.41437657662205657,0.380491318417463,0.3417956165368199,0.30471298875309377,0.27481436280907867,0.2545289582061241,0.24302277908971007,0.23698980467601888,0.23155779390953432,0.22348990414792894,0.211010083239771,0.19440020850883688,0.1755243146743221,0.1563624071903607,0.13965247502907052,0.1269616130338874,0.11867203599171566,0.11405882467262529,0.11114083955998236,0.10876001234253327,0.10583989842844117,0.10190583068517396,0.09706783883301884,0.09141697680026743,0.08606128862782161,0.08193027912226439,0.07979291123697271,0.08007685299341237,0.08244278240166919,0.08676358865925261,0.09248477069631046,0.09894533334446269,0.10552093609696445,0.11148934459427662,0.11685639083051645,0.12174781155447881,0.12640456117692558,0.13096501920051654,0.13472553582178126,0.13801723238374647,0.1400761718532706,0.14013322722803817,0.13787122030312113,0.13339680858127945,0.12899712115177708,0.12727780246639508,0.13144830864151583,0.1447774214057257,0.1695848665055351,0.20769481041881313,0.25857564812446115,0.3196488855823425,0.3865590338596864,0.45354385522996604,0.5153068153310417,0.5668986062414404,0.6049693839335546,0.628340646313647,0.637881846366276,0.6369177255172225,0.6295760943851046,0.6200751248308958,0.6117708270437145,0.6062037896946276,0.6037027010271849,0.6027442566226149,0.6008111157998833,0.5952010077737822,0.5835215353658336,0.5651981144765624,0.5408450961039525,0.5123039297667287,0.48211781166267204,0.45257171413891756,0.42594599449644077,0.40332254310125193,0.38467523386198066,0.369034615551562,0.3546101488584238,0.34010725391230856,0.3244537762516601,0.3072630417996502,0.2888612859362972,0.2699321085639969,0.2517336218303189,0.23521350111100048,0.2208846116857425,0.2086879563210323,0.19796333845896555,0.18790339309925433,0.17751002835619917,0.16603911145090933,0.15326018884226456,0.1394998294337662,0.1258482293915829,0.1135734267396461,0.10392962292402579,0.09783242136349679,0.0955351717041251,0.09681314788446854,0.10067100256188748,0.10574152925841343,0.11066537433250066,0.1142767274147263,0.11665091055060256,0.11821046237715191,0.12001107116220416,0.12349832730150458,0.12980343457635946,0.14056427200924423,0.1559618105940033,0.17519843950373207,0.19665359665619156,0.21790554845617607,0.23737343425357146,0.25317217619129817,0.2640803814261939,0.26980886601087856,0.2707280549185286,0.26883309354882695,0.265809446448667,0.26315911700461014,0.2618411126011817,0.26177388004629565,0.2627048505080185,0.26307902068099864,0.260829339402995,0.2538733591914849,0.24043138944128647,0.22015860493717132,0.19340487808808518,0.16157361726862907,0.12693667959574245,0.09211526563392147,0.060173387509474596,0.03339401110052892,0.013199604377460612,-8.289515963580551e-20,-0.006871034598455337,-0.008528947318306869,-0.006748298623238964,-0.0033816240108615198,-1.170217420850373e-19,0.002273276715764475,0.0031551247402125844,0.0027427045614676834,0.0014905069048953348,9.070908472753086e-20,-0.0012357790899900477,-0.00178830873736017,-0.0016086553897099176,-0.0008988919592154703,-2.293463625199569e-19,0.0006875485780487261,0.0010369403564907502,0.0009693661226951745,0.0005613086591140341,2.3171831150350276e-19,-0.0005582744795726222,-0.0008253033217394913,-0.0007545662957758699,-0.0004266150004596607,-3.180470768416049e-19,0.0002563898130232389,0.00041365595970510225,0.00040975402677411767,0.00024926321434296005,2.338199101005316e-19,-0.0003757256791602089,-0.000529822452894039,-0.0004594454307338303,-0.00024488967605659274,-3.202925791235068e-19,4.4230335540902926e-05,9.017658178936134e-05,0.00010486500659886961,7.167924653797436e-05,1.0720744791818276e-19,-0.00021005474878828487,-0.0002807933561965717,-0.0002282702028809048,-0.000112385761227361,-1.816532001758092e-19,0.0,0.0,0.0,0.0,0.0,0.0,0.0,0.0,0.0,0.0,0.0,0.0,0.0,0.0,0.0,0.0,0.0,0.0,0.0,0.0,0.0,0.0,0.0,0.0,0.0,0.0,0.0,0.0,0.0,0.0,0.0,0.0,0.0,0.0,0.0,0.0,0.0,0.0,0.0,0.0,0.0,0.0,0.0,0.0,0.0,0.0,0.0,0.0,0.0,0.0,0.0,0.0,0.0,0.0,0.0,0.0,0.0,0.0,0.0,0.0,0.0,0.0,0.0,0.0,0.0,0.0,0.0,0.0,0.0,0.0,0.0,0.0,0.0,0.0,0.0,0.0,0.0,0.0,0.0,0.0,0.0,0.0,0.0,0.0,0.0,0.0,0.0,0.0,0.0,0.0,0.0,0.0,0.0,0.0,0.0,0.0,0.0,0.0,0.0,0.0,0.0,0.0,0.0,0.0
0.628340646313647,0.6893033951524831,0.7068960470344576,0.6896296007585071,0.6524054047251282,0.6117708270437145,0.5809763410875609,0.5671424292255595,0.5698168055582123,0.5824024799157796,0.5952010077737822,0.5987895406105689,0.5877116633378124,0.5613943861279759,0.5239091090760559,0.48211781166267204,0.4429126748752951,0.41162974065542024,0.39021040838965787,0.3772560779149994,0.369034615551562,0.3608564838444139,0.3493225846138712,0.3328453014267278,0.31197852948714727,0.2888612859362972,0.2660615317029113,0.2460281844709231,0.23002075665817984,0.21796621587229764,0.2086879563210323,0.2003448701893989,0.19132839910943197,0.18054014186874728,0.16768703681090522,0.15326018884226456,0.1382687084232183,0.12408460971670686,0.11201716087720252,0.10308368720627323,0.09783242136349679,0.09625019282165351,0.09779746684925139,0.10150309795587714,0.10617348583948959,0.11066537433250066,0.11417739456022101,0.11648060227772254,0.11802968395763047,0.11989220398024857,0.12349832730150458,0.12995010752245045,0.14082261741027022,0.15624426906082445,0.1753902255089107,0.19665359665619156,0.21768610589296364,0.23697993047189359,0.25273238763870215,0.26377374099323625,0.26980886601087856,0.2711520807392679,0.2696373332998032,0.26676390430308516,0.26386892923312416,0.2618411126011817,0.260719814579696,0.2605359889907297,0.2602465217827646,0.25846726056416847,0.2538733591914849,0.24540691476222645,0.23315469925522703,0.21752645091865888,0.19949889308069443,0.1804165219005491,0.16156622942726095,0.14441329298017064,0.12963855791002366,0.11731054839687434,0.10695968460961333,0.0976534005490324,0.08868974701659907,0.07928627421938622,0.0689849335469481,0.05776704524989586,0.04595298774102658,0.03441131372159653,0.02393751919521987,0.015197912646320448,0.008574405890178391,0.004024267538651188,0.00132470819795252,-0.00010867524051831631,-0.0009634710418570032,-0.0018543317288054497,-0.0032484662975454555,-0.005164619418862596,-0.007492812473201215,-0.009968467945410514,-0.012283069347789291,-0.014257929471695251,-0.015675444855087147,-0.016616262115672183,-0.017293254454044116,-0.01795487486819644,-0.01888991429791643,-0.019978271861793424,-0.021192537087798665,-0.02244319092425595,-0.023626680388603594,-0.024821249068907102,-0.025793089820469794,-0.026692677885470372,-0.027734250178017488,-0.02908128224027603,-0.030879582160466375,-0.032688943542413446,-0.03417640480817278,-0.03492920560028171,-0.03453588409194847,-0.03281619498672542,-0.02940870266652294,-0.024476836932003435,-0.018444535443517263,-0.011898564894236718,-0.0055581110128502635,0.0001980367229303868,0.004951421437636766,0.008471072371244346,0.010738754303475042,0.011872882797215174,0.01228049293151427,0.012300381846913655,0.01223038557080166,0.012277708996352464,0.012502550288680149,0.012930498452331938,0.013425257619866883,0.013788087406875848,0.013816663689229887,0.01335546328623336,0.012350932855497583,0.010843459894761591,0.00896491893055836,0.006908331844614943,0.004887005549106566,0.003088443592757553,0.0016461055419116689,0.0006205284454096619,-3.564194399692559e-20,-0.00027727515551524684,-0.00032263546164894947,-0.00023898302188965492,-0.00011208361288944256,4.03611556099944e-20,7.775662237842875e-05,9.959693723426955e-05,7.948642251624164e-05,3.949404668182225e-05,-2.758176048766076e-20,-1.3951423178475174e-05,-2.0818647781094908e-05,-1.985835043340396e-05,-1.2009612234343327e-05,3.0378659635358604e-20,2.6977070279232327e-05,3.684034174803678e-05,3.107891599007359e-05,1.6209997693481508e-05,-6.674402602725131e-21,6.122502247698922e-06,4.312018299402082e-06,-6.00008250679153e-07,-3.0045153088022213e-06,1.4188591168394305e-20,1.3266281398658137e-05,2.1111245912236898e-05,2.067063215042122e-05,1.2451873124798658e-05,1.1059289434689124e-20,-1.7184050734720627e-05,-2.4471255447868346e-05,-2.1457301413356183e-05,-1.1581273637802562e-05,-1.4608548390663793e-20,2.4071673884045144e-06,4.907720554830577e-06,5.70711528598252e-06,3.901031782407696e-06,5.834599020486127e-21,-1.1431903802652898e-05,-1.5281742759829887e-05,-1.2423251630348783e-05,-6.116420688179955e-06,-9.886193584449537e-21,0.0,0.0,0.0,0.0,0.0,0.0,0.0,0.0,0.0,0.0,0.0,0.0,0.0,0.0,0.0,0.0,0.0,0.0,0.0,0.0,0.0,0.0,0.0,0.0,0.0,0.0,0.0,0.0,0.0,0.0,0.0,0.0,0.0,0.0,0.0,0.0,0.0,0.0,0.0,0.0,0.0,0.0,0.0,0.0,0.0,0.0,0.0,0.0,0.0,0.0,0.0,0.0,0.0,0.0,0.0,0.0,0.0,0.0,0.0,0.0,0.0,0.0,0.0,0.0,0.0,0.0,0.0,0.0,0.0,0.0,0.0,0.0,0.0,0.0,0.0,0.0,0.0,0.0,0.0,0.0,0.0,0.0,0.0,0.0,0.0,0.0,0.0,0.0,0.0,0.0,0.0,0.0,0.0,0.0,0.0,0.0,0.0,0.0,0.0,0.0,0.0,0.0,0.0,0.0
0.7069708720223121,0.7635428757362529,0.766128912019632,0.725367249367055,0.6597342676660856,0.5898133122892655,0.5324416493450154,0.4964302127440433,0.48106656363257755,0.4775462160905806,0.4726557525562189,0.45336273916567627,0.41092202620625684,0.343208136743215,0.2549091466057814,0.15576002122239282,0.05755656319933267,-0.028746766663814472,-0.09549115081833368,-0.13935464764202812,-0.1611357101114333,-0.16469711022854067,-0.15513324060785016,-0.13760228785328296,-0.11638209886231185,-0.09456401706423001,-0.07433578203381956,-0.056878959429144,-0.04301169265576237,-0.0332818875126801,-0.027992324017026747,-0.02733144826409191,-0.03072979031211309,-0.03731446966581747,-0.04592551463757773,-0.05531296965730396,-0.06451090026106661,-0.07243630709387061,-0.07835667138403625,-0.08181325631334277,-0.08263361529758118,-0.08110334338492296,-0.07746907134573615,-0.07227212453784079,-0.06618659590165701,-0.059911887381274495,-0.0541702226766697,-0.049190072523809025,-0.04494027196378502,-0.04109805378427698,-0.037190159464967815,-0.03324469992788529,-0.028264485865868744,-0.022357788644945767,-0.015940853514082937,-0.009527363553428102,-0.0039125008842787285,0.0014319663661253974,0.006649936478680817,0.012072654207453683,0.018135432358111617,0.02490187340595498,0.03314262856785333,0.042796052447823425,0.053472480580523174,0.06457307276914999,0.07530377030702809,0.08537360450037867,0.09455969306486063,0.1029652125032909,0.11101071318018832,0.11936664768873559,0.12861133512233808,0.13932065017568662,0.15172979561625205,0.16557693665037726,0.18007313776085285,0.19398079430878254,0.20599079909547016,0.21495400764461053,0.2201431601205662,0.22138695440968623,0.21918167414466774,0.21452901736919405,0.2086819082956713,0.2028314486323484,0.19780698777964834,0.19392879756115058,0.19101868153670873,0.18848305114485306,0.18551973714413064,0.18136286164294374,0.17547185312509736,0.16777573168192997,0.15862755210180543,0.14869631567318875,0.13880242445769705,0.12968399492526167,0.12195710788501242,0.11598777696196858,0.11187289420224686,0.10949805580548816,0.108535790119339,0.10861859682126045,0.10936226438716082,0.11039685650516448,0.11138231773891077,0.11199112242553351,0.11193624358548082,0.11097340919729924,0.10892081880808208,0.10567436689067061,0.10126562102464454,0.09582728135501178,0.08960865265174266,0.0829576802679798,0.07625252325346413,0.06998069851080181,0.06451766654088378,0.060140261619440485,0.05699454172787751,0.05502199950171406,0.054181996735338474,0.054190874395880106,0.054682074987947756,0.05528284596554811,0.05560168306959212,0.05560796198119201,0.055227160128540516,0.05450038768775982,0.053571150203218704,0.05253226366921963,0.05180376729958984,0.05150584643116823,0.05163818037649197,0.05208932032961446,0.05255521464982799,0.052967910815341496,0.053001901962432436,0.05231373858907743,0.050607490456010214,0.04759634478932786,0.043408738642595784,0.03812733564372892,0.03197314230270553,0.025303745228005107,0.0185035328870966,0.012213621472515389,0.006865984493492499,0.0027548595106593517,6.208150039263088e-20,-0.0015183876928968041,-0.001914949018135369,-0.001536637733210979,-0.0007793693792852235,-1.304729673299004e-19,0.000495067461253319,0.0007006905006118128,0.0006212084716765932,0.0003441525969992013,7.108728860848725e-20,-0.00033952681804949895,-0.0004845238572817247,-0.0004283803797889873,-0.0002345690271517921,-1.2584694737348973e-19,0.00014252196788048686,0.0002179387621586194,0.0002063579808080899,0.00012088809370098809,5.97625663436935e-20,-0.0001379474164369314,-0.0002001323645953088,-0.00017934552914618436,-9.92692760071925e-05,-8.645929001940179e-20,5.1072023892727086e-05,8.23831504089403e-05,8.159301275597778e-05,4.962837317271188e-05,4.652008121110388e-20,-7.472151903669144e-05,-0.00010538006235708778,-9.139505895734882e-05,-4.8722401165921105e-05,-6.369522606579848e-20,8.816940426049444e-06,1.7975933027374508e-05,2.0903945327398256e-05,1.4288646893148331e-05,2.137089104036492e-20,-4.1872623927132014e-05,-5.5973762426607946e-05,-4.550371945476024e-05,-2.240314366508717e-05,-3.6211017270493174e-20,0.0,0.0,0.0,0.0,0.0,0.0,0.0,0.0,0.0,0.0,0.0,0.0,0.0,0.0,0.0,0.0,0.0,0.0,0.0,0.0,0.0,0.0,0.0,0.0,0.0,0.0,0.0,0.0,0.0,0.0,0.0,0.0,0.0,0.0,0.0,0.0,0.0,0.0,0.0,0.0,0.0,0.0,0.0,0.0,0.0,0.0,0.0,0.0,0.0,0.0,0.0,0.0,0.0,0.0,0.0,0.0,0.0,0.0,0.0,0.0,0.0,0.0,0.0,0.0,0.0,0.0,0.0,0.0,0.0,0.0,0.0,0.0,0.0,0.0,0.0,0.0,0.0,0.0,0.0,0.0,0.0,0.0,0.0,0.0,0.0,0.0,0.0,0.0,0.0,0.0,0.0,0.0,0.0,0.0,0.0,0.0,0.0,0.0,0.0,0.0,0.0,0.0,0.0,0.0
0.7220184978424529,0.7869403501085547,0.8005637184728861,0.7735815388510319,0.7241447875005121,0.6720685131412241,0.6329238507633951,0.6141252236531005,0.6134632870041521,0.6208279660132932,0.6221185284399955,0.6039014948913917,0.5578377061579101,0.48274338671150224,0.3846529593254036,0.2748019505868917,0.16625788378041317,0.07119352213675413,-0.001973979073697953,-0.04959054813172864,-0.07251462726621202,-0.07513747497683977,-0.062945565050609,-0.04161618648753058,-0.015915582814841026,0.010629697609724806,0.03532358059532572,0.056783787769102416,0.07402285764608821,0.08643547981599521,0.0937740224856616,0.09591549272296788,0.09374263421720702,0.08843112465264821,0.08140247690256833,0.07403723800925424,0.06715822342563775,0.06162609100947839,0.05773646468746422,0.055413131200255976,0.05430045353284686,0.05364913630085778,0.053081496007505675,0.05218852722924522,0.05072307613978865,0.04864678343495063,0.045988079453051056,0.04334938944619201,0.041458646376952304,0.04111777498215992,0.04299311333705438,0.04691481161307854,0.05353316950678317,0.062180942148386,0.07181283455864537,0.08134667188705207,0.08954002484642054,0.09690816437318671,0.10379805532583652,0.11102497462178576,0.11970023043704976,0.13051119688314647,0.14496423443621423,0.16324297430130855,0.18474637836284383,0.20818503161012009,0.2315803490277285,0.25343713442700805,0.272160186460296,0.2866817648018014,0.29666983278319037,0.3025152633248412,0.3052960854558728,0.3064684817729758,0.3074544022775075,0.3092629645509997,0.312158722756262,0.31584921188584714,0.3194404569987688,0.3217885378152849,0.321856096318809,0.3189106905101917,0.3130715844639066,0.30492010109660944,0.29544616609171037,0.28576052536435054,0.27667630433658874,0.2688035177495134,0.26209593591204927,0.2560046105041387,0.24966495440989203,0.24206472628308826,0.2326236699504966,0.22109364359902034,0.20772527433772564,0.19321617576693823,0.17849400655986308,0.16470213301517275,0.15278365099020214,0.14338394470839363,0.1367673971239844,0.13279407885032962,0.13107237331605914,0.1309600731288056,0.13173645988947852,0.13272693491190699,0.13335450808608446,0.13335112220803758,0.13255448633831737,0.13096146336469255,0.12868647269982958,0.12584568410786592,0.12273992502531966,0.11950545547933372,0.116217233975384,0.11290888380428726,0.10949382882845717,0.106199551853601,0.1030389851474762,0.10001526652526016,0.09713129490874495,0.09423179174482978,0.09157621279659042,0.08906470274402295,0.0865484220276928,0.08389745747780113,0.0809035898518771,0.07792697762122033,0.07509831204315705,0.07260183125336407,0.07066362004685729,0.06934769112235002,0.06913440150333493,0.07002982528234104,0.07185047302831211,0.07425416940033804,0.07663865305160114,0.07875569318613357,0.08002388840458528,0.0798735144225836,0.07784471875381878,0.07354275140481481,0.06718585694827034,0.05897903137537243,0.0493487931337867,0.03892235937690939,0.02836273754201199,0.018645355070314566,0.010434763083606777,0.004166919886974876,6.71519857147288e-20,-0.0022584700335607157,-0.0028368831435709747,-0.002268973409099431,-0.0011478739409668897,-1.5960682875837005e-19,0.0007420407121018729,0.0010455462720378693,0.0009228075329152118,0.0005090198881248693,9.499456091773408e-20,-0.0004821986949573849,-0.0006904700403940799,-0.0006129802787110032,-0.00033725545206457486,-1.6615009112629368e-19,0.00021119409144666778,0.00032389867604773644,0.0003075348047506233,0.0001806183243876473,9.03790473466904e-20,-0.00021296893402304165,-0.00030760923570814715,-0.00027435040642521263,-0.00015108407597311978,-1.3387865255148071e-19,7.651393182856272e-05,0.00012255219465200952,0.00012065756662018559,7.302398574113528e-05,6.659987033359959e-20,-0.00010522352859979392,-0.00014911151604760165,-0.00013002852524766006,-6.974803120492997e-05,-8.957619169969756e-20,1.3562266011423667e-05,2.7650678550634702e-05,3.215456309320445e-05,2.1978874841395356e-05,3.2872821544110774e-20,-6.440869926014883e-05,-8.60991476643136e-05,-6.999407027083288e-05,-3.4460638180152873e-05,-5.569998491945468e-20,0.0,0.0,0.0,0.0,0.0,0.0,0.0,0.0,0.0,0.0,0.0,0.0,0.0,0.0,0.0,0.0,0.0,0.0,0.0,0.0,0.0,0.0,0.0,0.0,0.0,0.0,0.0,0.0,0.0,0.0,0.0,0.0,0.0,0.0,0.0,0.0,0.0,0.0,0.0,0.0,0.0,0.0,0.0,0.0,0.0,0.0,0.0,0.0,0.0,0.0,0.0,0.0,0.0,0.0,0.0,0.0,0.0,0.0,0.0,0.0,0.0,0.0,0.0,0.0,0.0,0.0,0.0,0.0,0.0,0.0,0.0,0.0,0.0,0.0,0.0,0.0,0.0,0.0,0.0,0.0,0.0,0.0,0.0,0.0,0.0,0.0,0.0,0.0,0.0,0.0,0.0,0.0,0.0,0.0,0.0,0.0,0.0,0.0,0.0,0.0,0.0,0.0,0.0,0.0
0.7998329616727452,0.8427788417333236,0.8107962378149335,0.7150472660271006,0.5778162248571995,0.42633060555942864,0.2860323619769813,0.1750187524079803,0.10137742731187094,0.06348405143323663,0.052828249446111995,0.05813222268471008,0.06911533882260024,0.07913428190410413,0.08586031127902304,0.09031720000901781,0.09500336994486361,0.10183373867037793,0.1109710253259836,0.12062251672140421,0.12780615057192357,0.1296350140448604,0.12440151202827018,0.11226724229122143,0.09515060082440059,0.07602888161061701,0.057980702580785644,0.04329207544313154,0.03301845389835825,0.02699787094710215,0.024251612649310424,0.023536036863922773,0.023830396086029212,0.024561927866103644,0.02557461543523887,0.026910083945564475,0.028506536124209815,0.03013509958578726,0.03128716368995602,0.031305990046699726,0.029568555241818513,0.025588018888250515,0.019333934610516797,0.011084825793286313,0.0013997661186916266,-0.008995261755056955,-0.019384764684578084,-0.028983078958825972,-0.03714735939030009,-0.043413571654064995,-0.047559078751932424,-0.05010294312944241,-0.05057715310211524,-0.04963451202543835,-0.04808805060769307,-0.04665667311129818,-0.04603546444093201,-0.04585669080896761,-0.04594396657179071,-0.04600553754510761,-0.04575426747066394,-0.04507686382668337,-0.043878967539150125,-0.04229840508550604,-0.04057140378025458,-0.03893483470045956,-0.0376150320115028,-0.03648324608327159,-0.03536906599369636,-0.0340058300181242,-0.032115401930255194,-0.029605355697669263,-0.026280978112605033,-0.022281671280146728,-0.01790002125165453,-0.013485976123218172,-0.009459019492391859,-0.005797101274578896,-0.0023799257891237925,0.0011166850229432713,0.005143449683818853,0.0100048859920113,0.01619068299572873,0.023884178816459198,0.032981720155674715,0.04306402610397084,0.0533144491277765,0.06298761191198855,0.07124553610325084,0.0773900725290574,0.08098460252412282,0.0818394232222694,0.08029212241129309,0.0769124997711497,0.07245404411240496,0.06770416449286935,0.06330364563454252,0.059720470742966554,0.05713621909669048,0.0554658392177695,0.05442372646161588,0.05365343038614066,0.052749192960727845,0.0514747905183694,0.04976928901592529,0.04774320103639827,0.045654412189412144,0.043740458139970864,0.04225681426837058,0.04136042932885899,0.04106267561118065,0.04124518152272225,0.04160301769851107,0.04183114020207151,0.04166781368950099,0.04098287124810219,0.03987398004923518,0.038635689219447676,0.03785848263581528,0.038328702430516684,0.04090306688502373,0.04635595929902325,0.05513221915126303,0.06727017983536165,0.08227307159507721,0.09910467377401233,0.11630377933442974,0.13216707132279237,0.14505894727137586,0.15368206688712693,0.15730628066300095,0.15588874258378552,0.15007096191290548,0.14101809768026546,0.13017556776690467,0.11897661577246685,0.10854907892876732,0.099609936008269,0.09228226704616596,0.08619445715909953,0.08064695088193274,0.07479546679353385,0.06803763113116633,0.059980815357878754,0.0506162961676552,0.04032347544096637,0.029745628636729412,0.019767637052489788,0.011159878166898833,0.004484942108831652,-4.4436102099200574e-20,-0.002397444210518184,-0.003017609961929209,-0.0024195917787315944,-0.001228038847517824,-3.347895523227565e-20,0.0008503385873860855,0.0011927241603991619,0.0010469373842208946,0.0005740313175441715,4.853073504403038e-20,-0.00048475394499085324,-0.0007055248873153968,-0.0006379130634849343,-0.00035808914475643125,-1.0747641677960156e-19,0.00027775219236295936,0.00041962567325116496,0.00039275350519795034,0.000227593950549151,1.0812437630300829e-19,-0.00022173208570479914,-0.0003292802973773537,-0.00030235830459124184,-0.0001716403764978362,-1.3811231236042624e-19,9.392014643051343e-05,0.00015683598763504322,0.0001597388936776851,9.939738762044245e-05,1.0451120864429305e-19,-0.00017859476868261058,-0.00024749572935860186,-0.00021032680035627417,-0.00010948808137373671,-1.5297577211623477e-19,1.4050476620385157e-05,2.864603984217948e-05,3.331205394432047e-05,2.2770064150141254e-05,3.405616805942135e-20,-6.672726536567498e-05,-8.91985203854249e-05,-7.25136969793663e-05,-3.570114246881405e-05,-5.77050571937906e-20,0.0,0.0,0.0,0.0,0.0,0.0,0.0,0.0,0.0,0.0,0.0,0.0,0.0,0.0,0.0,0.0,0.0,0.0,0.0,0.0,0.0,0.0,0.0,0.0,0.0,0.0,0.0,0.0,0.0,0.0,0.0,0.0,0.0,0.0,0.0,0.0,0.0,0.0,0.0,0.0,0.0,0.0,0.0,0.0,0.0,0.0,0.0,0.0,0.0,0.0,0.0,0.0,0.0,0.0,0.0,0.0,0.0,0.0,0.0,0.0,0.0,0.0,0.0,0.0,0.0,0.0,0.0,0.0,0.0,0.0,0.0,0.0,0.0,0.0,0.0,0.0,0.0,0.0,0.0,0.0,0.0,0.0,0.0,0.0,0.0,0.0,0.0,0.0,0.0,0.0,0.0,0.0,0.0,0.0,0.0,0.0,0.0,0.0,0.0,0.0,0.0,0.0,0.0,0.0
0.717760295603971,0.7678920231073328,0.7581042852018082,0.6987685656897811,0.609088195471413,0.5114148347695027,0.42496293566502735,0.3620984485188486,0.32572267566494445,0.3103162686905816,0.30506937393503425,0.2976885653174785,0.27933091628992057,0.24616639622798936,0.19998619710593962,0.1468024080672594,0.09397627428711451,0.04885603328864148,0.01597187023382548,-0.003514131021547558,-0.011464557800515501,-0.01207304438869372,-0.009102362486679096,-0.005701497769611797,-0.0035482461458609697,-0.0028828555316557382,-0.003360340256030616,-0.003577540534052018,-0.0024588489328893587,0.0006137073889845248,0.005698846737204003,0.012091655252628328,0.01939951636752779,0.027068990045329554,0.03467226508892336,0.04195334612297488,0.048611883077449784,0.054999431466155255,0.061598132442080775,0.06908809275472218,0.07820784550874575,0.08939367236968927,0.10306404945628143,0.11910281999129085,0.13691027435748615,0.15550587733588414,0.17365105413611673,0.1905219220348303,0.20573088398544614,0.21954032562811265,0.23280390916302252,0.24626749618503757,0.2618289267163434,0.280130550466312,0.3010503566033563,0.3237160255596498,0.34639858249090777,0.3680088464070683,0.38707553375063813,0.4026555078053504,0.414628141956277,0.4235738596572485,0.4312238448573997,0.4391914259356927,0.4487593883499111,0.46044432248858846,0.47366236414231716,0.4870729049323807,0.49848364923321153,0.5055244805001552,0.5062605030209,0.4997118759512528,0.4860982730175398,0.4668179077369734,0.44408578552935535,0.42038969910564333,0.3978772906137224,0.3780015285131871,0.3612278042719994,0.3471001710606118,0.33451889519038663,0.32207469234045916,0.30868867444808945,0.29374267428492146,0.277245161526846,0.259755389975507,0.24207104167283608,0.22522188220093914,0.2099422715796467,0.19656942911947126,0.18499188476062745,0.17462177757531686,0.16490572547622834,0.15519031415059714,0.14501878809472066,0.1342491643259361,0.12295964317518035,0.11176680864903007,0.10120110679787625,0.09170528517618579,0.08350644389124472,0.07643232600345021,0.07039093283913643,0.06486974969688047,0.059325951742677435,0.05337753676615235,0.04676829384631185,0.04003521495223665,0.03358916889615431,0.027879502493081014,0.023248629641059972,0.019594579866891993,0.017133802803644824,0.01537181965573899,0.013662348070494063,0.011459688579887661,0.008306552325166389,0.004867249066865128,0.0017236038880102257,-0.0003039420625109353,-0.00032925248128465355,0.0021175232641581125,0.007880926126498999,0.016739584462239516,0.027907254718829624,0.04021452286685118,0.052141571870254644,0.06289952114631125,0.07154482048408552,0.07752449617808947,0.080758298214987,0.08143917441270547,0.0805695943405844,0.07891324116079092,0.07713955438067895,0.07570759580257981,0.07466264770042357,0.07413313752281919,0.07370004928598828,0.07275337024124028,0.07065689339017261,0.06681525907246522,0.061163858326223466,0.0537548592435458,0.04494022344418458,0.03532844669508631,0.025615198020441928,0.016712315739927378,0.009260516476037968,0.0036539540790165685,-2.2779117136861534e-20,-0.0019079168582177572,-0.0023621942056850555,-0.00186294673584234,-0.0009299053077450495,-3.579052306192972e-20,0.000613274034002363,0.0008478914083802475,0.0007343404188198551,0.0003976936270132206,8.343080331727614e-21,-0.00032636382996103445,-0.00047156552487952284,-0.0004237150356376006,-0.00023659260891903552,-4.569988982324505e-20,0.0001899831077083043,0.00028336430877138274,0.00026211415573656875,0.0001502865574233911,5.251284076868534e-20,-0.0001300684499914303,-0.00019647919424367686,-0.00018364622081306866,-0.00010617205198315148,-6.652797311876202e-20,7.234445695515276e-05,0.00011713955831011368,0.0001163814269790548,7.097365778222441e-05,6.746851553587505e-20,-0.00010925858409630389,-0.00015372495092397297,-0.00013296564780620248,-7.066498004082622e-05,-9.319678650834266e-20,1.230998838506709e-05,2.5097541333493297e-05,2.9185557772635302e-05,1.9949446042904944e-05,2.9837495522616425e-20,-5.846149449670629e-05,-7.814914608068643e-05,-6.3531137888887e-05,-3.127870043120847e-05,-5.055690301527444e-20,0.0,0.0,0.0,0.0,0.0,0.0,0.0,0.0,0.0,0.0,0.0,0.0,0.0,0.0,0.0,0.0,0.0,0.0,0.0,0.0,0.0,0.0,0.0,0.0,0.0,0.0,0.0,0.0,0.0,0.0,0.0,0.0,0.0,0.0,0.0,0.0,0.0,0.0,0.0,0.0,0.0,0.0,0.0,0.0,0.0,0.0,0.0,0.0,0.0,0.0,0.0,0.0,0.0,0.0,0.0,0.0,0.0,0.0,0.0,0.0,0.0,0.0,0.0,0.0,0.0,0.0,0.0,0.0,0.0,0.0,0.0,0.0,0.0,0.0,0.0,0.0,0.0,0.0,0.0,0.0,0.0,0.0,0.0,0.0,0.0,0.0,0.0,0.0,0.0,0.0,0.0,0.0,0.0,0.0,0.0,0.0,0.0,0.0,0.0,0.0,0.0,0.0,0.0,0.0
0.5062605030209,0.5479915077402778,0.5507658887591306,0.5216085201832193,0.4732794185706833,0.42038969910564333,0.375357215184606,0.345565886299915,0.3321645032378703,0.3309204511326121,0.33451889519038663,0.335362220153672,0.3282547443599332,0.3115865419593133,0.2873187566443187,0.259755389975507,0.23366073363806472,0.2127537698907347,0.19851668215777496,0.19009910233155528,0.18499188476062745,0.18008740978464055,0.17298147730526572,0.16255730819152475,0.14916713772457832,0.1342491643259361,0.11946933182135554,0.10654077654790989,0.09635517822067671,0.08892078032487015,0.08350644389124472,0.07870165415898187,0.07365974774425756,0.06776340827147095,0.06089814915678954,0.05337753676615235,0.04569898725225776,0.038491744127790176,0.03222433321833506,0.027141926736388274,0.023248629641059972,0.02051944270180176,0.018447641288367785,0.01653120255928067,0.014300117653440914,0.011459688579887661,0.00813500192044686,0.0045797523406603926,0.0014250077103463105,-0.0004963551931892142,-0.0003292524812846536,0.0023949730961241823,0.008378436369316318,0.017294345824588147,0.028291992936399807,0.04021452286685118,0.05168434477121168,0.06205904636957908,0.0705812099548477,0.07683503926873705,0.08075829821498699,0.08240199202588633,0.08243500981095656,0.08117531453782006,0.07885872027002479,0.07570759580257981,0.07188890311254471,0.06830677796064516,0.06594745075312829,0.06617835321958085,0.07065689339017261,0.08089298592648676,0.09851540082752826,0.12413890057273005,0.15719180265752852,0.1956709011838622,0.23595723665410592,0.2736586052273426,0.30357368726295103,0.32062382337613476,0.3206849089775518,0.30118973875656463,0.2621587448372716,0.20591933523727463,0.13702934534548086,0.06167617996695101,-0.013411159134970822,-0.08135877829047286,-0.13664340271533926,-0.1757009600046556,-0.19733254904364977,-0.20293383250086675,-0.19532897436440486,-0.1786359952283051,-0.15727827320337806,-0.13521263184184654,-0.11548602242721458,-0.09959147689589681,-0.08779939179543142,-0.07938570614347837,-0.07309271464004327,-0.06760946621854984,-0.06195012499206835,-0.055648043453915524,-0.04874755118182955,-0.04162974233834693,-0.034772692416896636,-0.028419687598879168,-0.022520006845049678,-0.0166601683694047,-0.010166770036650594,-0.0023489404592941347,0.007428270544746976,0.01934295078665952,0.03310382398195265,0.047990347914606095,0.06296231405222683,0.07702303804406317,0.08924487833559924,0.09901860771210404,0.10614746586586275,0.11079797543425454,0.11353349451851519,0.11497323692511807,0.11570756982987745,0.11620367618498768,0.11668987561585702,0.11760598653607449,0.11921137672132877,0.12189595766164359,0.1262598865041126,0.13291389012283936,0.14294723585765462,0.15683464484977883,0.17446982451316886,0.19497981570215872,0.21663622826577394,0.23709368760227356,0.25352942079832747,0.263149023507376,0.2636997449002048,0.2540338917319759,0.23401856082483807,0.20510505888749542,0.1699266632588829,0.1318498724501024,0.09447843077977,0.06082591396602495,0.03321958441524764,0.012907112103410362,-2.2680533309186195e-19,-0.006338434873548442,-0.007732598622289678,-0.006025240214758955,-0.002980027685325296,1.4832812770595368e-19,0.002054519629421098,0.0028123456750286623,0.0024119398869080436,0.00129380313760411,4.925926252871707e-21,-0.0009994738584690674,-0.0014451373942695293,-0.0013009513485449254,-0.0007285225344597053,-8.985108213858044e-20,0.0005832993233821858,0.0008764352903963867,0.0008168007172635241,0.0004717979571256959,1.5862395588528878e-19,-0.00046907832294567405,-0.0006924069137479293,-0.0006323404261690908,-0.0003572364543884593,-2.3734375316475944e-19,0.00023948477090395427,0.00037496838779690943,0.0003620058578515579,0.00021543262364340568,1.7784120410605356e-19,-0.0002628553894699926,-0.00038000863816324494,-0.0003387666234217772,-0.0001861984212639276,-2.2250425346302784e-19,4.594230854364402e-05,9.366694358777222e-05,0.00010892389645430627,7.445365313989475e-05,1.1135700397024963e-19,-0.00021818509766819677,-0.0002916617034356074,-0.00023710559650573837,-0.00011673574832921833,-1.8868424280208363e-19,0.0,0.0,0.0,0.0,0.0,0.0,0.0,0.0,0.0,0.0,0.0,0.0,0.0,0.0,0.0,0.0,0.0,0.0,0.0,0.0,0.0,0.0,0.0,0.0,0.0,0.0,0.0,0.0,0.0,0.0,0.0,0.0,0.0,0.0,0.0,0.0,0.0,0.0,0.0,0.0,0.0,0.0,0.0,0.0,0.0,0.0,0.0,0.0,0.0,0.0,0.0,0.0,0.0,0.0,0.0,0.0,0.0,0.0,0.0,0.0,0.0,0.0,0.0,0.0,0.0,0.0,0.0,0.0,0.0,0.0,0.0,0.0,0.0,0.0,0.0,0.0,0.0,0.0,0.0,0.0,0.0,0.0,0.0,0.0,0.0,0.0,0.0,0.0,0.0,0.0,0.0,0.0,0.0,0.0,0.0,0.0,0.0,0.0,0.0,0.0,0.0,0.0,0.0,0.0
0.43914241789723557,0.4791917644781302,0.4878534540157574,0.4712728861639209,0.4401711440304783,0.40646888765864286,0.3799181900918942,0.3656161969577882,0.3633111792555765,0.36833632449172476,0.37379535742005016,0.3731629071911955,0.36240520451659214,0.34103377815211555,0.3118532662262255,0.27966286197923346,0.24945343964243996,0.22483006108551817,0.20702945049383387,0.19487792050938355,0.18553036653841679,0.17561030499390692,0.1624818066210849,0.14494587081741045,0.12345465609344627,0.09975386965565904,0.07614310857826419,0.0548215117297473,0.037222259021386206,0.023774423024791356,0.01397737277290126,0.0066778268904019765,0.0005999279925432092,-0.005369419154638289,-0.011919961743378876,-0.019241951214483854,-0.02712007781707892,-0.03498832709492291,-0.04218838039393799,-0.048134485852760894,-0.05246127520186897,-0.055137290280068876,-0.05640370344623737,-0.0567628814628079,-0.05682828893310106,-0.05714893295940576,-0.05805947977723796,-0.059506558714944514,-0.06108078107983559,-0.06210676754832716,-0.06183659071694256,-0.05991942978446043,-0.055676519517913726,-0.04935893509707971,-0.04165118286445281,-0.03345560562587836,-0.025856047839093104,-0.019074877221577004,-0.013420985803680174,-0.008864580575783695,-0.005074620534814164,-0.0017347331228029803,0.0020326293657456787,0.006540164868713148,0.011813938087878796,0.01762160100469742,0.023414913133106376,0.02898961567713701,0.03387558421512628,0.03770802826554807,0.04031782254420901,0.04167248524757671,0.0422011401631594,0.042244763244531185,0.042140287987307394,0.042149441389706534,0.04234096896634788,0.04281168010604442,0.0434089554888,0.04388598015561462,0.04398106023520406,0.04345404521578585,0.04227025574075527,0.040505020994165655,0.03835106857115721,0.03606146184133456,0.03385740017052726,0.03192369450651239,0.03034987446542671,0.029121938557890054,0.02814186344746506,0.027265712695291943,0.02633676278135812,0.0252923150472861,0.02414128856401486,0.022944322905448976,0.021792137502892182,0.020698668069143365,0.019687088326278527,0.018729245085612817,0.017746782363432887,0.016664175810800447,0.015321105526952691,0.013668574271239822,0.01173223821773779,0.009611176553511486,0.007475357137335504,0.005465854009388186,0.0037409991638304193,0.002404619396722171,0.0014755707435900865,0.0008813063939631489,0.00046485124012595185,3.883661905450009e-05,-0.0005635604827234911,-0.0014316053305068826,-0.0025423373550332216,-0.0037081466508825196,-0.0046381975842580666,-0.004969612453614749,-0.004338781404603852,-0.0024836809449499666,0.0007624372939953818,0.005320011982654124,0.01089670040045273,0.01702896028571885,0.023137107260239924,0.02870471591854167,0.03326568231486998,0.03652326262561735,0.03839670197604156,0.038999301136711864,0.038680297563419716,0.03783170296468182,0.03683787182341098,0.03599274248310982,0.035422156584995874,0.035131828337687306,0.03493138092618248,0.034524195431293814,0.03358878299017808,0.03184882725705872,0.02919675797050647,0.025657974137640135,0.02141879750591471,0.01679439149508904,0.012157930528268107,0.007914151465989616,0.00437207185767463,0.0017186670999421519,-2.5480929724457425e-20,-0.0008782434554421841,-0.0010826614383227118,-0.0008509068986445765,-0.00042368966029974987,5.047683634768569e-21,0.00028643002635924666,0.0003944475895199229,0.00034023398819519896,0.00018350790837496495,-2.051553247168514e-21,-0.00014471780176128414,-0.0002097786651746405,-0.00018925189797165448,-0.00010617073560904654,-1.2778756669313026e-20,8.959017052534023e-05,0.00013322722706793745,0.00012288292686976588,7.026624007840137e-05,2.3200169798275555e-20,-5.8374929468997516e-05,-8.878169127042492e-05,-8.354608559281294e-05,-4.86234399059427e-05,-2.8636431764799376e-20,3.4392047253698356e-05,5.5687757373860605e-05,5.532770075005402e-05,3.374103924836121e-05,3.2075598576279214e-20,-5.194410831827857e-05,-7.30841237705386e-05,-6.321436693904402e-05,-3.3595250633762435e-05,-4.4308008687123485e-20,5.851906426091752e-06,1.1930836879321107e-05,1.3874192869746232e-05,9.483541969630379e-06,1.418411019778809e-20,-2.7791349969038892e-05,-3.715044042591596e-05,-3.020135051629239e-05,-1.4869228331297913e-05,-2.4033675449870848e-20,0.0,0.0,0.0,0.0,0.0,0.0,0.0,0.0,0.0,0.0,0.0,0.0,0.0,0.0,0.0,0.0,0.0,0.0,0.0,0.0,0.0,0.0,0.0,0.0,0.0,0.0,0.0,0.0,0.0,0.0,0.0,0.0,0.0,0.0,0.0,0.0,0.0,0.0,0.0,0.0,0.0,0.0,0.0,0.0,0.0,0.0,0.0,0.0,0.0,0.0,0.0,0.0,0.0,0.0,0.0,0.0,0.0,0.0,0.0,0.0,0.0,0.0,0.0,0.0,0.0,0.0,0.0,0.0,0.0,0.0,0.0,0.0,0.0,0.0,0.0,0.0,0.0,0.0,0.0,0.0,0.0,0.0,0.0,0.0,0.0,0.0,0.0,0.0,0.0,0.0,0.0,0.0,0.0,0.0,0.0,0.0,0.0,0.0,0.0,0.0,0.0,0.0,0.0,0.0
0.5078752928695931,0.5495627968154001,0.5521016354288676,0.5225808520844967,0.473859527991562,0.4206481505281358,0.37529778715074835,0.34529437585202244,0.33174909385407075,0.3303024109542886,0.33342100818667864,0.3330639264673054,0.32391313958752826,0.30426793890698783,0.2761748102927961,0.24421048849005228,0.21342386229592755,0.1881857130099704,0.17057612418740875,0.16024984342281431,0.15499996879342592,0.15162846572521202,0.14761310644860007,0.14146910183842146,0.13308423079197698,0.1234223847884175,0.11377808925943952,0.10551030007080305,0.09928432239265912,0.09498386052690161,0.09184480078340904,0.08870865481047183,0.08462679206895463,0.0789927155458322,0.07172995754421081,0.06327611252206394,0.054395582719387464,0.04615409290627077,0.039597122434440066,0.03559818245780497,0.03470742426071884,0.03701243021081668,0.04220163220715516,0.049531975787275355,0.05798664761760733,0.06649666169586008,0.07417513782839424,0.08066160422966749,0.08619937118334922,0.09164578474485405,0.09828589913100129,0.10721073765786143,0.12002105012543443,0.1370977351404454,0.15792413114676734,0.18114202557491305,0.20455765255952119,0.22637229833963762,0.24447909701647044,0.25727737742832135,0.2639981520188248,0.26467038544134674,0.260674115952562,0.2536043676232821,0.24520379114217336,0.23698993087056275,0.22982659598665342,0.2242314291290321,0.21975553870528536,0.21540684979297808,0.2099817097223007,0.20234422974897048,0.19202944150607973,0.1790013163863066,0.16380875256831492,0.1474571733212998,0.13108833454328211,0.11601496485843289,0.10310746414139375,0.09277331405034975,0.08493263692029888,0.07901317110675951,0.07442428419049978,0.07041578952906213,0.06636812583135539,0.061919292446331715,0.056880862201299974,0.05161963298976527,0.04657042753090606,0.04220808765856571,0.03890594797236455,0.036661803275821796,0.03558163400881853,0.035469408493874685,0.036005255643189016,0.036817785215356516,0.03743786603413487,0.037699754307727776,0.037410992868995636,0.03644692875576436,0.03472962245834847,0.03215942255047981,0.02880810741443756,0.02468574472211511,0.01987580028296087,0.014580540104994377,0.009043551644004728,0.0038770327948826834,-0.00048193533408599244,-0.003689533948002143,-0.005568542248359722,-0.006290736251260273,-0.005854649650527233,-0.004709463528213923,-0.003379387104378275,-0.002298089972998702,-0.00179585295434043,-0.0015691204201669752,-0.0013196478505093766,-0.00061907274627402,0.0009723623023623169,0.0036647889156696516,0.007745814443963652,0.012992591882701323,0.01892311614740718,0.02494308128747505,0.030457466714587107,0.03533994305840246,0.039673482718168625,0.04393014696392547,0.04891380027258777,0.05555122885815225,0.06481522056648208,0.0772342092115535,0.0927471874605967,0.11058550966133165,0.1292621046561187,0.1468635678619293,0.16118578671558473,0.17016542762361084,0.17225721905007554,0.16671135343584018,0.15380392160263934,0.1347136565580497,0.11136833964035264,0.08612860952503777,0.06138968833161799,0.03928761087804676,0.021319920954980164,0.008228983244092453,-1.1835940466823635e-19,-0.004028619477386022,-0.004879121884786373,-0.0037706613986770686,-0.0018479152770609474,6.238968150127372e-20,0.0012272464125633797,0.0016652751755865912,0.0014161704879832593,0.0007535674455244135,-3.5508635537576e-20,-0.0005738399702090915,-0.0008243436771654504,-0.0007377834668635275,-0.00041103986516279317,-1.2709338955326097e-20,0.0003414376154277964,0.0005062147431194259,0.0004658836242754467,0.00026600830661853555,5.889886465630376e-20,-0.00022969130265951222,-0.00034609396291577837,-0.0003229252687393504,-0.0001865085899281835,-8.930115170767751e-20,0.0001505917554137264,0.00023301973522968974,0.00022261031191541953,0.0001312512385422829,1.0199831015699382e-19,-0.0001439354353371501,-0.00021111175814234084,-0.00019111494489997525,-0.0001067729179191794,-1.21331583632542e-19,3.0011004786764607e-05,6.118628300325442e-05,7.115261904564173e-05,4.863553904024744e-05,7.274200372443566e-20,-0.00014252557649123272,-0.0001905228765247341,-0.00015488505948591108,-7.625557384794054e-05,-1.2325466206255293e-19,0.0,0.0,0.0,0.0,0.0,0.0,0.0,0.0,0.0,0.0,0.0,0.0,0.0,0.0,0.0,0.0,0.0,0.0,0.0,0.0,0.0,0.0,0.0,0.0,0.0,0.0,0.0,0.0,0.0,0.0,0.0,0.0,0.0,0.0,0.0,0.0,0.0,0.0,0.0,0.0,0.0,0.0,0.0,0.0,0.0,0.0,0.0,0.0,0.0,0.0,0.0,0.0,0.0,0.0,0.0,0.0,0.0,0.0,0.0,0.0,0.0,0.0,0.0,0.0,0.0,0.0,0.0,0.0,0.0,0.0,0.0,0.0,0.0,0.0,0.0,0.0,0.0,0.0,0.0,0.0,0.0,0.0,0.0,0.0,0.0,0.0,0.0,0.0,0.0,0.0,0.0,0.0,0.0,0.0,0.0,0.0,0.0,0.0,0.0,0.0,0.0,0.0,0.0,0.0
0.610323388433333,0.664947660328555,0.6747357621101772,0.6479770322426415,0.5996114441407092,0.5466054022744846,0.5032387234843061,0.4775292818311266,0.4700454323243279,0.4749614195377761,0.48288741611563624,0.48437881595373466,0.47293737865842006,0.44668470183354214,0.4083586919333144,0.36391765207708904,0.32034267828696894,0.28387790165321225,0.25852251447848396,0.2457384449128353,0.24494788803854184,0.25428727967864617,0.2720325212525014,0.2966606830451832,0.32686712222355174,0.3610789008554822,0.3967383777532307,0.4304933430433188,0.45803638906668864,0.4748617002433602,0.47720991367242266,0.4628542319552074,0.4321120637001515,0.38761510608630456,0.33390117051316764,0.2765005667842267,0.22073379208646443,0.17106570793893583,0.130177592469284,0.09878115066302802,0.07579121989603073,0.05874660801761313,0.04479062521299901,0.03120466284058223,0.01607091173595489,-0.0013544493455668286,-0.02063076028411157,-0.040135126155576906,-0.05766972110483939,-0.0710112595339168,-0.07850011858716438,-0.07984429984354303,-0.07494311418393765,-0.06543377734201189,-0.05362608278875683,-0.04183812634163654,-0.03207038312226269,-0.02441421587186148,-0.018401654453158386,-0.012636353134451755,-0.005176134096108686,0.005674574322882224,0.02177995457252894,0.04349068775159201,0.06995365105228415,0.09927457652006334,0.12868553484586087,0.15585221812234779,0.17837229908825672,0.1945611885442295,0.20372528713623536,0.20603164432727383,0.20298032105721928,0.19632196265063284,0.18792859607339726,0.17943939766547923,0.17178137587987796,0.1658480835134174,0.16152369123353658,0.15821967454369443,0.15515350819472307,0.15136631586311375,0.14688508690413682,0.14155480753906766,0.13549723542101125,0.12905842650336666,0.12251073357106305,0.1165526505793386,0.11138658917716411,0.10694975559467769,0.10296334481201022,0.09894102959398897,0.09465197111911806,0.08989571858403532,0.08466424578173647,0.07913279465603902,0.07355893402743748,0.06826455676662732,0.06346222873803911,0.05919307293620023,0.055302244500067835,0.051516700651595554,0.0473792707383167,0.04256823678183703,0.03693130032197182,0.0305563610845771,0.023814946860271566,0.01724556312145456,0.011575524489799113,0.007554480799693355,0.005810477669086356,0.006724677206041376,0.010336350900588643,0.01633213286947189,0.024081192624572093,0.032729241101745764,0.04127470819752738,0.048899018285134876,0.054826112125212004,0.05850287637424435,0.05964800453440517,0.058149703288850135,0.05443464957317389,0.04888988114077648,0.042016401785174504,0.03441142763592532,0.026655253687359964,0.01963178566501259,0.014014109577834971,0.010381899876969157,0.009174850737445478,0.010560950248543798,0.014693709436310399,0.021278410976946816,0.02972709070823081,0.03921606673466021,0.04870800082394662,0.05731511503623331,0.06408198766716486,0.06822797027476113,0.06925728273187494,0.06697655981542634,0.061715812044898385,0.054024324594141526,0.04468892039876529,0.03462864136593747,0.02472998540521901,0.015879809641855723,0.008659454687181682,0.0033636919382873595,-1.1495479502998767e-20,-0.0016956615380858664,-0.0020727646196982983,-0.0016161398019088665,-0.0007985872793822941,-3.0697839234781277e-20,0.0005253704672044256,0.0007194975919405109,0.0006174853390610775,0.0003314966279718784,1.494932472246422e-20,-0.0002608176695500903,-0.0003760508425949627,-0.00033741359856958144,-0.00018824536149557466,-3.666462980783441e-20,0.00013894864455996688,0.00021144179473695304,0.00019946117098518993,0.00011652866988302521,4.375005178044748e-20,-0.00013507688214257235,-0.00019512738057583063,-0.00017415427627712231,-9.603512921010655e-05,-7.3046134986563e-20,5.8718707424738176e-05,8.99607572691077e-05,8.516857366128964e-05,4.9808385526433567e-05,3.6578829390960765e-20,-4.91898001498009e-05,-7.327526607341241e-05,-6.740591656765097e-05,-3.828450206889056e-05,-4.1275447648928464e-20,1.2066145355454672e-05,2.460039541238052e-05,2.860743417043595e-05,1.9554276428602782e-05,2.9246457978413125e-20,-5.730345701626166e-05,-7.660112475476436e-05,-6.227267812004253e-05,-3.065911470643744e-05,-4.9555444036318806e-20,0.0,0.0,0.0,0.0,0.0,0.0,0.0,0.0,0.0,0.0,0.0,0.0,0.0,0.0,0.0,0.0,0.0,0.0,0.0,0.0,0.0,0.0,0.0,0.0,0.0,0.0,0.0,0.0,0.0,0.0,0.0,0.0,0.0,0.0,0.0,0.0,0.0,0.0,0.0,0.0,0.0,0.0,0.0,0.0,0.0,0.0,0.0,0.0,0.0,0.0,0.0,0.0,0.0,0.0,0.0,0.0,0.0,0.0,0.0,0.0,0.0,0.0,0.0,0.0,0.0,0.0,0.0,0.0,0.0,0.0,0.0,0.0,0.0,0.0,0.0,0.0,0.0,0.0,0.0,0.0,0.0,0.0,0.0,0.0,0.0,0.0,0.0,0.0,0.0,0.0,0.0,0.0,0.0,0.0,0.0,0.0,0.0,0.0,0.0,0.0,0.0,0.0,0.0,0.0
