0.4383780291897916,0.45489037314549946,0.4264305818026656,0.35925483621838966,0.2663064593123895,0.16376877436355358,0.06714806689655471,-0.011864761557174709,-0.0672753930729356,-0.09886636815811135,-0.11084048046268447,-0.10969129280049911,-0.10184969164866081,-0.09217292906267509,-0.08325228463338762,-0.0756597738801239,-0.06883493493568689,-0.061903605191747604,-0.05451230243206446,-0.04705514494283612,-0.040479067297563356,-0.035878795929053936,-0.03384471539729189,-0.03431502768272596,-0.036562558864694235,-0.03947000280732191,-0.04199670151077231,-0.043281151598555584,-0.042987710419588085,-0.04124094252337,-0.038460938317080466,-0.0352447637018118,-0.031895296828137194,-0.028566900586357864,-0.025246041043992938,-0.02185606696619595,-0.018493381725407567,-0.015092095021108642,-0.0117102438058153,-0.008416392919952496,-0.0052511956153114365,-0.0023747230017189254,0.00040360833544418216,0.003217005251103029,0.006171866334314576,0.00929508443411856,0.012323769412755736,0.015305661129699343,0.018206299378099623,0.02103741116385327,0.02384136448354855,0.026205500769558878,0.028760998041596902,0.031523939097391415,0.0344449603178018,0.0374493102868596,0.040141622139671054,0.042833426968788675,0.045561152770830136,0.048326401793365885,0.05105725609017065,0.05340525500047318,0.05529287476017246,0.05669131589488261,0.05767867273119428,0.05842236349965057,0.0590555942542187,0.05985190905341663,0.06109570523413559,0.06302685809884147,0.0657874709091305,0.06941067026394564,0.0737380858162902,0.07855216307214176,0.08358710811138223,0.0885888548525152,0.0933972403258837,0.0979181058006569,0.10224982098750271,0.10663200168980495,0.11139023879589992,0.1168711513064433,0.12327059142048084,0.1306508063644991,0.1388585252671454,0.14753545381357572,0.15620554643982074,0.1643595610621552,0.17165690855544308,0.1780207085248503,0.18368066883125153,0.18912333970776632,0.1949389298399395,0.2016380481342412,0.20945515157520142,0.2182275877887499,0.22739034773401068,0.23612870383368417,0.24359321677978873,0.24918406375693614,0.2527745067462483,0.25478831985637573,0.25615730570978623,0.25799862651392497,0.26126897707880187,0.2663903305476997,0.2729596262048135,0.2797441268290044,0.28473916701151364,0.285572254963856,0.28000615434915116,0.26642863165260205,0.24435834132782663,0.21451013478259945,0.17878984153585098,0.14000307717457558,0.10135739194099756,0.0660353965615995,0.0365415649295249,0.014399239092173492,-1.3808673383417235e-19,-0.007363800612323265,-0.009117435585267054,-0.0072030575305405894,-0.003607810894398782,-3.13756554957358e-20,0.0024687611890101806,0.003424908680694373,0.0029761164234193144,0.0016168346042043811,1.1472930229169952e-19,-0.0013424874796754563,-0.0019413674783535437,-0.0017450226335381947,-0.0009743058476843107,-2.625695765398602e-19,0.0007296374340855271,0.0011044470276257217,0.001036107267817797,0.0006019418200118132,2.5445763938375055e-19,-0.0006281047053250926,-0.0009219187431646807,-0.0008366486433011096,-0.0004694020881469542,-3.622948785036533e-19,0.00027497518898640335,0.00044032043345981287,0.0004334244094190121,0.00026227039592174406,2.3896684790604704e-19,-0.0003773277954223289,-0.0005348016839137402,-0.00046645040696651266,-0.00025026214625813105,-3.212013593917667e-19,4.878324452720371e-05,9.945902933496012e-05,0.00011565942687748036,7.90576460391993e-05,1.1824299053968692e-19,-0.00023167701643961002,-0.00030969719739711287,-0.0002517675027609849,-0.0001239543404833585,-2.0035191627996111e-19,0.0,0.0,0.0,0.0,0.0,0.0,0.0,0.0,0.0,0.0,0.0,0.0,0.0,0.0,0.0,0.0,0.0,0.0,0.0,0.0,0.0,0.0,0.0,0.0,0.0,0.0,0.0,0.0,0.0,0.0,0.0,0.0,0.0,0.0,0.0,0.0,0.0,0.0,0.0,0.0,0.0,0.0,0.0,0.0,0.0,0.0,0.0,0.0,0.0,0.0,0.0,0.0,0.0,0.0,0.0,0.0,0.0,0.0,0.0,0.0,0.0,0.0,0.0,0.0,0.0,0.0,0.0,0.0,0.0,0.0,0.0,0.0,0.0,0.0,0.0,0.0,0.0,0.0,0.0,0.0,0.0,0.0,0.0,0.0,0.0,0.0,0.0,0.0,0.0,0.0,0.0,0.0,0.0,0.0,0.0,0.0,0.0,0.0,0.0,0.0,0.0,0.0,0.0,0.0,0.0,0.0,0.0,0.0,0.0,0.0,0.0,0.0,0.0,0.0,0.0,0.0,0.0,0.0,0.0,0.0,0.0,0.0,0.0,0.0,0.0,0.0,0.0,0.0,0.0,0.0,0.0,0.0,0.0,0.0
0.4342814273498479,0.48010117467098357,0.4956521471782493,0.4854309943071519,0.45860171031652414,0.42621300048645494,0.3979141517514162,0.3810860193570998,0.3791140939092423,0.39209091771154775,0.4181445736230617,0.4545598243449051,0.5000980166089916,0.5542915992146817,0.6169792683412711,0.6870535702476679,0.7608621826823743,0.8328497025320462,0.8950633426982082,0.938697241719914,0.9559625668722741,0.9415795503156219,0.8952774529790973,0.8212941802558009,0.7278807117307512,0.6257056657183889,0.5254409744768235,0.43704876869570475,0.3674879460402015,0.32025899453448414,0.29544876456450375,0.2899493199529316,0.2996499847211382,0.319534429687058,0.3447467572615037,0.3711399611957341,0.3951391360846481,0.41506727031609847,0.43013469316842545,0.44047082587217434,0.44683115782696453,0.4498523369226804,0.4510252684094213,0.4514947288442076,0.4521013643738012,0.45326107505324364,0.45453994078944254,0.45600225753969037,0.4574290676202661,0.4586717204255453,0.4596909922795228,0.4598956287030701,0.4601571713042493,0.4606840044725357,0.46159017152484094,0.4628588600297957,0.4636953721052906,0.46461873619118776,0.46545397671276406,0.4659935819112726,0.46602672778006865,0.46472043204573554,0.4627059774507887,0.46006143446858117,0.4569373356192243,0.45354926724014066,0.44958655886905347,0.44615655583516334,0.44350198469371727,0.4417725539574716,0.44107180670021273,0.44098088444636646,0.44242379444271035,0.4451563766039456,0.4487100026231157,0.45253327137295485,0.4558050202149866,0.45876754801354147,0.46116174483499917,0.46287353535031106,0.46399473604569685,0.464664432835062,0.4655690791681208,0.467041830025598,0.46921882624661226,0.47198291618494875,0.47478743863477185,0.4774800291038697,0.4794913108330068,0.4803734670774574,0.4799710963242006,0.4782530854625327,0.47612213329020686,0.4740804878752269,0.4724671365217734,0.4713497368627119,0.47027507809799174,0.4692589852520222,0.467804701392363,0.4655925174193415,0.4627283774012233,0.45960588154095544,0.45770196978322486,0.4580768669384174,0.4614076292499376,0.46761968078173183,0.4753895692018792,0.4830053117541586,0.4873780290219223,0.4849732918401778,0.47251098416224036,0.4474429496847872,0.40944543612668205,0.3595136151158792,0.30039198427069297,0.23625549208112018,0.1718627614247633,0.11265981649206916,0.0628006037877743,0.02495404489872622,6.245878405599654e-20,-0.013171656021613336,-0.016455143324477346,-0.01310341117431324,-0.006607562565260756,-4.902842228803025e-19,0.004417534309050664,0.00618378193865084,0.005421656128490632,0.0029710501180043713,3.978796928074691e-19,-0.002637839261509468,-0.003799402147716291,-0.003396981957085418,-0.0018843410211949801,-7.392527404465962e-19,0.0012907162177289606,0.0019694262139709658,0.0018611589763379045,0.0010884394543699523,5.182711262397167e-19,-0.001222319487786672,-0.0017767462382103569,-0.0015956059289638945,-0.0008852511476165445,-7.511480250657843e-19,0.00047032297995748583,0.0007558896702103066,0.0007463453626824516,0.00045279442511433096,4.185315534810336e-19,-0.000666669218699462,-0.0009424852949672918,-0.0008196590809940499,-0.0004383301788882186,-5.67909199290081e-19,8.232182944605383e-05,0.00016783732466209506,0.00019517553015414488,0.00013340994672907022,1.9953529935819167e-19,-0.00039095546060444484,-0.0005226146827898857,-0.00042485819922844555,-0.00020917321459991946,-3.3809428710695124e-19,0.0,0.0,0.0,0.0,0.0,0.0,0.0,0.0,0.0,0.0,0.0,0.0,0.0,0.0,0.0,0.0,0.0,0.0,0.0,0.0,0.0,0.0,0.0,0.0,0.0,0.0,0.0,0.0,0.0,0.0,0.0,0.0,0.0,0.0,0.0,0.0,0.0,0.0,0.0,0.0,0.0,0.0,0.0,0.0,0.0,0.0,0.0,0.0,0.0,0.0,0.0,0.0,0.0,0.0,0.0,0.0,0.0,0.0,0.0,0.0,0.0,0.0,0.0,0.0,0.0,0.0,0.0,0.0,0.0,0.0,0.0,0.0,0.0,0.0,0.0,0.0,0.0,0.0,0.0,0.0,0.0,0.0,0.0,0.0,0.0,0.0,0.0,0.0,0.0,0.0,0.0,0.0,0.0,0.0,0.0,0.0,0.0,0.0,0.0,0.0,0.0,0.0,0.0,0.0,0.0,0.0,0.0,0.0,0.0,0.0,0.0,0.0,0.0,0.0,0.0,0.0,0.0,0.0,0.0,0.0,0.0,0.0,0.0,0.0,0.0,0.0,0.0,0.0,0.0,0.0,0.0,0.0,0.0,0.0
0.9559625668722741,1.0203064321216933,1.001259964963878,0.9114664488157972,0.7761008387637952,0.6257056657183889,0.48801218002289903,0.38298381189399244,0.3189072059436221,0.2931381582641302,0.29544876456450375,0.31234223962731855,0.3327188799441943,0.3497803349267955,0.3618719277760008,0.3711399611957341,0.3807198019383381,0.3936395998988882,0.4104516000168741,0.42929758588236105,0.44683115782696453,0.45926578595598827,0.4649898173577189,0.46428434719906553,0.4593314925350872,0.45326107505324364,0.44851910238793197,0.4471370725553464,0.4493791748999895,0.45416502338258974,0.4596909922795228,0.46378628252729104,0.4657411037484848,0.46561658827909086,0.4642708120666732,0.4628588600297957,0.46187404601169596,0.462015989049277,0.4631672803284825,0.46475923370295036,0.46602672778006865,0.4658573679224426,0.4642257909396169,0.4612969627522101,0.45754563133597187,0.45354926724014066,0.44937322949495073,0.44572325593155393,0.4429689859376878,0.4413738304217058,0.44107180670021273,0.4411169451771308,0.44262284800589047,0.445327548766164,0.44879396014312756,0.45253327137295485,0.45525487755371974,0.4577221868507008,0.45994293203961545,0.46200091479857186,0.46399473604569685,0.46519198283803587,0.4664264575425204,0.46789546713464103,0.46973907135884896,0.47198291618494875,0.4739862076577751,0.4760939242411874,0.4780083847628227,0.4793919883286881,0.4799710963242006,0.47938373125180883,0.47809174385248454,0.4762067391788244,0.4738903043736981,0.4713497368627119,0.46858575601803365,0.46625916538136186,0.4644931740140209,0.4633180713252337,0.4627283774012233,0.46248282396703383,0.4630123585205086,0.46420380416238627,0.46583364388127035,0.46761968078173183,0.4690475079995261,0.47035108476950094,0.4713721923318756,0.47205857512467725,0.47251098416224036,0.4727136957966214,0.4733522473731777,0.474478092439433,0.47588977846695146,0.4772052539824838,0.47780460286166987,0.4779746139988903,0.47799385427529756,0.478769075603821,0.48189952380272716,0.48925397629794537,0.5033754091084861,0.5256877897890859,0.5562627287963816,0.5933631940962717,0.6330678409820322,0.6704300133030622,0.6989902233087215,0.712240175249012,0.7048268643898161,0.6733955694782761,0.6182272466875556,0.5422411196092266,0.4511005591163941,0.35241343219490806,0.25433459345482834,0.16520936901843014,0.09118357434510865,0.03585526110056592,-8.751117273265053e-20,-0.018450307083514937,-0.02281481223364023,-0.017992716500933773,-0.008991376839628668,-4.008683502194251e-19,0.005984769985992337,0.008300110477293846,0.007213013968666266,0.003920004964272413,3.3887088644684623e-19,-0.0033574502517346137,-0.004828451205626746,-0.004313979803002306,-0.002393137204059136,-7.390533063914979e-19,0.0017110743589481957,0.0025904365677454928,0.0024308657290225376,0.0014128119026706899,5.719031961433901e-19,-0.0014967287948625188,-0.0021911516853230437,-0.001983262780529677,-0.0011097799711620986,-8.41854626637227e-19,0.0006652665523275564,0.0010535309754455408,0.0010272403924938929,0.0006165945854830347,5.363305946077526e-19,-0.0008220690830120321,-0.00117544363411725,-0.0010353302376823344,-0.0005616140027218215,-6.980595160216424e-19,0.0001227963769396157,0.00025035662499761483,0.00029113599796641316,0.00019900260011559165,2.976393017213511e-19,-0.0005831735571236856,-0.0007795646672806166,-0.0006337449972796189,-0.00031201581741468635,-5.043225326755181e-19,0.0,0.0,0.0,0.0,0.0,0.0,0.0,0.0,0.0,0.0,0.0,0.0,0.0,0.0,0.0,0.0,0.0,0.0,0.0,0.0,0.0,0.0,0.0,0.0,0.0,0.0,0.0,0.0,0.0,0.0,0.0,0.0,0.0,0.0,0.0,0.0,0.0,0.0,0.0,0.0,0.0,0.0,0.0,0.0,0.0,0.0,0.0,0.0,0.0,0.0,0.0,0.0,0.0,0.0,0.0,0.0,0.0,0.0,0.0,0.0,0.0,0.0,0.0,0.0,0.0,0.0,0.0,0.0,0.0,0.0,0.0,0.0,0.0,0.0,0.0,0.0,0.0,0.0,0.0,0.0,0.0,0.0,0.0,0.0,0.0,0.0,0.0,0.0,0.0,0.0,0.0,0.0,0.0,0.0,0.0,0.0,0.0,0.0,0.0,0.0,0.0,0.0,0.0,0.0,0.0,0.0,0.0,0.0,0.0,0.0,0.0,0.0,0.0,0.0,0.0,0.0,0.0,0.0,0.0,0.0,0.0,0.0,0.0,0.0,0.0,0.0,0.0,0.0,0.0,0.0,0.0,0.0,0.0,0.0
0.46602672778006865,0.5127967899153403,0.5270676307533149,0.514562756314421,0.485959530195264,0.45354926724014066,0.4273695401181534,0.41395034954729004,0.4144199528104699,0.42543366954986844,0.44107180670021273,0.45477468661958464,0.4626318062953081,0.4634773446484691,0.45898306111298326,0.45253327137295485,0.447145959468664,0.445673102912644,0.44887505096205405,0.4557179310563536,0.46399473604569685,0.47063815671452475,0.47445557361385543,0.475203457144733,0.4738448913888438,0.47198291618494875,0.4706380164630405,0.47104119322658006,0.47328388044757613,0.4766530975661843,0.4799710963242006,0.481731357755485,0.4814574471815654,0.47917054585893476,0.4754910101792689,0.4713497368627119,0.467299529671674,0.4642353255088668,0.4625064437397294,0.4621004062185563,0.4627283774012233,0.46360780049706496,0.4646261278044176,0.4656312877441966,0.46661202589327405,0.46761968078173183,0.4683432130866262,0.4690819553614878,0.4699593789790612,0.47108692125818075,0.47251098416224036,0.4735797195202671,0.4748327250918044,0.4760441781465239,0.4769157216241763,0.4772052539824838,0.4763223450857376,0.47530721251866276,0.47501555245019295,0.4767046743846221,0.48189952380272716,0.4915929977454054,0.5076415274190424,0.5305504772101779,0.5597337459980113,0.5933631940962717,0.6280513862538541,0.6605030896577647,0.686534817612007,0.7022662850489667,0.7048268643898161,0.6926644384709212,0.6667294923664142,0.629212110730899,0.5836417215258052,0.5343594360289836,0.4856290087787923,0.4419289683218508,0.4062189768695368,0.38011533060201413,0.363892007668151,0.3564260818372634,0.3564587815319628,0.3617203800646287,0.36977848143017855,0.3784187013840663,0.3856832714779692,0.39095757377505386,0.3937830172979908,0.3942587347402936,0.3929453950999816,0.3904506979110857,0.38811246478864303,0.38656747189055374,0.38604063007752654,0.38633164375786605,0.3866632901876408,0.38677563853866104,0.38593391019381296,0.38361451208236297,0.37971789241575055,0.3744020749168694,0.36892366799922827,0.3641765340882287,0.3608479256593477,0.3591639324122109,0.3584559382087928,0.35803879087484375,0.3560757800205041,0.35032766675313004,0.3386099724086712,0.3190286794656196,0.29133756457098864,0.2559365727344576,0.21439159132432886,0.1693049862043356,0.12365817498573675,0.08146802367231268,0.04568109838324377,0.01827209216645659,2.2160967023874216e-19,-0.00998188283785794,-0.012543987450371372,-0.01003122796753388,-0.0050712779329207015,-6.6290550063135e-19,0.003295618375826455,0.004628091882554804,0.004069757605373004,0.0022362842116130204,3.314007960279835e-19,-0.002001446726447753,-0.0028860102930206265,-0.0025826942018012788,-0.0014336817065715912,-5.946744556021838e-19,0.0009731715544395612,0.001488966212358599,0.0014105160265925005,0.0008266332078093377,4.148123485838469e-19,-0.0009453718576680811,-0.0013712922732891791,-0.0012285894671952404,-0.0006798511988761703,-5.974556540330931e-19,0.00034542527979818864,0.0005587760672810991,0.0005547204380693042,0.00033806657383180687,3.2024707372751087e-19,-0.0005175603776280312,-0.000728622759504993,-0.0006306481945611991,-0.00033541660941205646,-4.414040147016122e-19,5.8993321492370834e-05,0.00012027528201008681,0.0001398663377053913,9.560399629876532e-05,1.4299062767826451e-19,-0.0002801657996649581,-0.0003745151948871694,-0.0003044611192973787,-0.00014989733318028514,-2.422845205001748e-19,0.0,0.0,0.0,0.0,0.0,0.0,0.0,0.0,0.0,0.0,0.0,0.0,0.0,0.0,0.0,0.0,0.0,0.0,0.0,0.0,0.0,0.0,0.0,0.0,0.0,0.0,0.0,0.0,0.0,0.0,0.0,0.0,0.0,0.0,0.0,0.0,0.0,0.0,0.0,0.0,0.0,0.0,0.0,0.0,0.0,0.0,0.0,0.0,0.0,0.0,0.0,0.0,0.0,0.0,0.0,0.0,0.0,0.0,0.0,0.0,0.0,0.0,0.0,0.0,0.0,0.0,0.0,0.0,0.0,0.0,0.0,0.0,0.0,0.0,0.0,0.0,0.0,0.0,0.0,0.0,0.0,0.0,0.0,0.0,0.0,0.0,0.0,0.0,0.0,0.0,0.0,0.0,0.0,0.0,0.0,0.0,0.0,0.0,0.0,0.0,0.0,0.0,0.0,0.0,0.0,0.0,0.0,0.0,0.0,0.0,0.0,0.0,0.0,0.0,0.0,0.0,0.0,0.0,0.0,0.0,0.0,0.0,0.0,0.0,0.0,0.0,0.0,0.0,0.0,0.0,0.0,0.0,0.0,0.0
0.4799710963242006,0.5286174702343359,0.5440142451366708,0.5320288902733006,0.5036084236603722,0.4713497368627119,0.4456240352689568,0.43298923920092797,0.4344670807279838,0.4464587688625728,0.4627283774012233,0.47652037925952573,0.48370260259347153,0.48309054018998565,0.4765056511396634,0.46761968078173183,0.45999577076062736,0.45666323417094923,0.4585383824472266,0.4645960657663717,0.47251098416224036,0.4793002385259735,0.4832470548736022,0.4836845461423731,0.48119765813527,0.4772052539824838,0.4730510068394473,0.47045890465552936,0.4705832100637373,0.4742057686819057,0.48189952380272716,0.4938835488096769,0.5109233595096945,0.5334445704847977,0.5613039144177168,0.5933631940962717,0.6269380874219385,0.6587920796043149,0.6848955479918842,0.7012858879233701,0.7048268643898161,0.6935440682124178,0.6679177922970407,0.6301849127049622,0.5841204379282066,0.5343594360289836,0.4853153955925641,0.4413441883795342,0.4055482496892256,0.3796419403379101,0.363892007668151,0.3567541229663487,0.3570007149319191,0.36227071591745025,0.3701219974828684,0.3784187013840663,0.385065999424716,0.3898499457249605,0.3925547421285385,0.393416941048944,0.3929453950999816,0.39122296437969345,0.3894367784565979,0.3879733281593132,0.3869652592327,0.38633164375786605,0.38547281677819334,0.38466051355915193,0.3835983528659954,0.38201031344298697,0.37971789241575055,0.37643031375596686,0.3726660306219172,0.3684925904261528,0.3639647311571973,0.3591639324122109,0.3539902207400058,0.3491241863980449,0.3447890889080933,0.3412062736312113,0.3386099724086712,0.3369737384891054,0.3368987304031276,0.3382927472028711,0.3408071645233328,0.3439026050705403,0.3466463696412271,0.3490038920059351,0.35042094068792834,0.35051489411265857,0.34919523773240946,0.34632523321981723,0.34303248587033774,0.3397330242089524,0.3366774487764327,0.3339223380665104,0.3310744962668641,0.3284107891198018,0.3255993962305023,0.3223620107930529,0.31864943840061133,0.31454341342001335,0.3109355936660312,0.3084209834436852,0.307418739157181,0.3079620456885008,0.30934073102945453,0.3107907568873202,0.3106033904547085,0.30674748051622275,0.29727465297639016,0.2805465416825291,0.2563683271178012,0.2251810596093611,0.18847233970607402,0.14863732648819508,0.10844673513349369,0.07134132936054718,0.03992719828224215,0.01593397964309698,1.0723626639695859e-19,-0.008537411180200488,-0.01070950063294937,-0.008558350493673456,-0.004328444666607414,-4.222545564848524e-19,0.002874417562733116,0.004037220633926527,0.0035509562818009446,0.001951721404923848,2.979965624113018e-19,-0.0017584498653949723,-0.0025330542505401466,-0.0022642858318354673,-0.0012553933588079283,-5.324144377029065e-19,0.0008429717209599975,0.001290279755469235,0.001222781278203292,0.0007168818131409091,3.59007340830878e-19,-0.0008246186524606203,-0.0011951465459649419,-0.0010698350605840836,-0.000591455357433114,-5.201653888141943e-19,0.000300694323827467,0.00048533749952092134,0.0004809255884812625,0.000292642934163089,2.749394467378107e-19,-0.00044220480640177063,-0.0006234019215432523,-0.0005404317930544659,-0.00028795703931739475,-3.769913241736673e-19,5.179179765386042e-05,0.00010559285205585518,0.00012279235814787858,8.393327763120466e-05,1.2553525497066471e-19,-0.0002459649675371476,-0.0003287967976917663,-0.0002672944713946464,-0.00013159883445333073,-2.1270799037871495e-19,0.0,0.0,0.0,0.0,0.0,0.0,0.0,0.0,0.0,0.0,0.0,0.0,0.0,0.0,0.0,0.0,0.0,0.0,0.0,0.0,0.0,0.0,0.0,0.0,0.0,0.0,0.0,0.0,0.0,0.0,0.0,0.0,0.0,0.0,0.0,0.0,0.0,0.0,0.0,0.0,0.0,0.0,0.0,0.0,0.0,0.0,0.0,0.0,0.0,0.0,0.0,0.0,0.0,0.0,0.0,0.0,0.0,0.0,0.0,0.0,0.0,0.0,0.0,0.0,0.0,0.0,0.0,0.0,0.0,0.0,0.0,0.0,0.0,0.0,0.0,0.0,0.0,0.0,0.0,0.0,0.0,0.0,0.0,0.0,0.0,0.0,0.0,0.0,0.0,0.0,0.0,0.0,0.0,0.0,0.0,0.0,0.0,0.0,0.0,0.0,0.0,0.0,0.0,0.0,0.0,0.0,0.0,0.0,0.0,0.0,0.0,0.0,0.0,0.0,0.0,0.0,0.0,0.0,0.0,0.0,0.0,0.0,0.0,0.0,0.0,0.0,0.0,0.0,0.0,0.0,0.0,0.0,0.0,0.0
0.7048268643898161,0.7593849799212417,0.756560344896638,0.7056302757647459,0.6244833398071442,0.5343594360289836,0.45396128640644967,0.3960452571240682,0.36484388729294653,0.35692258795683296,0.363892007668151,0.3757397536744476,0.38493244059826814,0.38771479034319994,0.3844667852033898,0.3784187013840663,0.37333952863828734,0.37242623997577756,0.37655311658123364,0.3843363723270702,0.3929453950999816,0.3991038011393054,0.40104033591520266,0.398519583823767,0.3928810267555064,0.38633164375786605,0.3807428657788519,0.37760685487163165,0.3770937414127081,0.37829984550713214,0.37971789241575055,0.37960641039506643,0.37722273881172325,0.37251176841534595,0.36614202719127587,0.3591639324122109,0.3523521784793527,0.3466462976217537,0.34245784667523427,0.33984033039950307,0.3386099724086712,0.33822490187993015,0.3386538067164714,0.3398063695508035,0.34160919371587256,0.3439026050705403,0.3461377752281959,0.34809185310269575,0.3494102425384524,0.3498227086231362,0.34919523773240946,0.3469621315292378,0.34412435307055683,0.340891652628091,0.3374390630893005,0.3339223380665104,0.33000785978017944,0.3264950492456365,0.32346373595726996,0.3208834033053339,0.31864943840061133,0.3162533298556368,0.31406295879750346,0.3119959755573814,0.30997808404922234,0.3079620456885008,0.30564259268897565,0.30345482948754193,0.30137603919203354,0.2993400472821669,0.29727465297639016,0.2949263617091088,0.29264434766616393,0.29035882413675407,0.2879719932275463,0.2854130566244719,0.2824870391880857,0.27966622596788054,0.277097060548894,0.2749741252893455,0.27355146027255367,0.2729166719796328,0.27366846265802164,0.2758428729674212,0.27922029016814026,0.2833451286190364,0.2874054952905129,0.2910433064011337,0.2935487136301657,0.2943466472564942,0.2931387969655191,0.28979703019590336,0.28500481525126115,0.279272167687289,0.2731248577638601,0.2670006661146437,0.2609992442963016,0.25553853335525406,0.25050145935084095,0.24566786562711174,0.24086253526376833,0.23588502050804164,0.23122994087659646,0.22712612113137437,0.2237629202630754,0.22118030392067925,0.21898804668229582,0.21695567511647407,0.21415585387342437,0.20940499853253933,0.2014980725775902,0.18931383640588043,0.1726870815249609,0.15174861457161082,0.12729552444724787,0.1007490362887951,0.07381393165896344,0.04879379596122879,0.027453242650457038,0.011017201511449052,1.1561952268642793e-19,-0.005986916194796037,-0.007549293245140903,-0.006061987237463455,-0.003079381324085301,-3.575420690636877e-19,0.002046017112217236,0.002887019302674409,0.002550340334523251,0.001407389240480587,2.523495609690405e-19,-0.0012910600997836814,-0.0018604930852739194,-0.001663058157885134,-0.0009216969093110415,-4.2993500568277964e-19,0.0006017325845830888,0.0009257672727126603,0.0008813695752149971,0.0005188130071957454,2.789258326170319e-19,-0.0006205879527175001,-0.0008951998306873192,-0.0007971566954507845,-0.0004381800710640668,-4.054350350227229e-19,0.000208149977911879,0.0003378065502799071,0.00033625535062825835,0.00020538223446880575,1.9686379089066055e-19,-0.0003203169241675672,-0.00045006702051561434,-0.0003886818061930845,-0.0002061947544037891,-2.7333108211690046e-19,3.510540605495307e-05,7.157272224253607e-05,8.323085485535746e-05,5.6891475605055035e-05,8.509003934194911e-20,-0.00016671945079784858,-0.00022286434561858375,-0.00018117696970600662,-8.92000418815038e-05,-1.4417727732262347e-19,0.0,0.0,0.0,0.0,0.0,0.0,0.0,0.0,0.0,0.0,0.0,0.0,0.0,0.0,0.0,0.0,0.0,0.0,0.0,0.0,0.0,0.0,0.0,0.0,0.0,0.0,0.0,0.0,0.0,0.0,0.0,0.0,0.0,0.0,0.0,0.0,0.0,0.0,0.0,0.0,0.0,0.0,0.0,0.0,0.0,0.0,0.0,0.0,0.0,0.0,0.0,0.0,0.0,0.0,0.0,0.0,0.0,0.0,0.0,0.0,0.0,0.0,0.0,0.0,0.0,0.0,0.0,0.0,0.0,0.0,0.0,0.0,0.0,0.0,0.0,0.0,0.0,0.0,0.0,0.0,0.0,0.0,0.0,0.0,0.0,0.0,0.0,0.0,0.0,0.0,0.0,0.0,0.0,0.0,0.0,0.0,0.0,0.0,0.0,0.0,0.0,0.0,0.0,0.0,0.0,0.0,0.0,0.0,0.0,0.0,0.0,0.0,0.0,0.0,0.0,0.0,0.0,0.0,0.0,0.0,0.0,0.0,0.0,0.0,0.0,0.0,0.0,0.0,0.0,0.0,0.0,0.0,0.0,0.0
0.3929453950999816,0.4323826425176795,0.4447090331343309,0.4348929928190365,0.41199989590199704,0.38633164375786605,0.36624879644886715,0.3568163976451068,0.35849009945880383,0.3679311740174479,0.37971789241575055,0.38819557972117613,0.389963219629994,0.3842348748015193,0.3728288640292861,0.3591639324122109,0.3466182770457062,0.33803520248402136,0.3344578104118152,0.33524432142789723,0.3386099724086712,0.3421973123261688,0.3446263921804631,0.34535223741122995,0.344788676636563,0.3439026050705403,0.34341286740323756,0.3440205176884132,0.3456583371661146,0.3476907322304882,0.34919523773240946,0.3491121783617745,0.3471767572085114,0.3435564236564375,0.3388688068483725,0.3339223380665104,0.3292257561935047,0.3253569939433538,0.32244448285335703,0.3203218143700694,0.31864943840061133,0.3168795369181594,0.31490004905027813,0.3126764858245002,0.31031312411764983,0.3079620456885008,0.30556875108130266,0.3033048475095717,0.3011915475569811,0.2992020335322,0.29727465297639016,0.29497345762894195,0.2927132478594921,0.29041807349095217,0.2880010541962009,0.2854130566244719,0.28232050344131737,0.2793529095872187,0.27673487075031944,0.27471672906932404,0.27355146027255367,0.2730840405908685,0.2739429433565552,0.27611918101554217,0.2793909651409707,0.2833451286190364,0.2871548250831631,0.29060961705940613,0.29308460510986534,0.29403933344943367,0.2931387969655191,0.29015159779984706,0.2856231625632034,0.2799405866854716,0.2735729626145089,0.2670006661146437,0.26046522809492045,0.25458798477806827,0.2494493334596786,0.24494309474114676,0.24086253526376833,0.2368080384489661,0.23294024898456359,0.22910759334083883,0.22520065933681735,0.22118030392067925,0.21690780492392506,0.21278306910685849,0.20884879331722742,0.20509800200327555,0.2014980725775902,0.1978453298737065,0.19439998158698454,0.19105990301812906,0.18768438313739083,0.18415113626708973,0.1802543607437182,0.17635707403701437,0.1726191901479989,0.16930771301538122,0.1668041999565893,0.16540765876017324,0.16582395468684755,0.1682656945414912,0.17262179744019143,0.17840293977670113,0.1845921641154717,0.1902693605317749,0.19400250155376794,0.1943257831248371,0.19000167959681294,0.18012315748061086,0.16482822292713198,0.1446643883844585,0.12081980898128639,0.09500083979840647,0.06905991860703795,0.04526052715466091,0.025238978705304407,0.010038453636739445,1.0627061962459611e-19,-0.005376416882544399,-0.006725906506508452,-0.005359241472380193,-0.002701987694326717,-3.1058258375077634e-19,0.0017591496673567807,0.002466759131497515,0.002166884181221582,0.0011898225765190418,1.829701151705299e-19,-0.0010884109899805031,-0.0015619681107312076,-0.0013906873890607106,-0.0007678369149657876,-3.3319498257264167e-19,0.0005046030852365268,0.0007708292357990684,0.000729266008657861,0.00042693841976107006,2.0289365123010362e-19,-0.0004869671631778118,-0.0007062872569345464,-0.0006327955578155995,-0.0003502111415468203,-2.9846944672025593e-19,0.00018576568308177762,0.00029710869950744603,0.0002921562815106384,0.0001766344549154309,1.6016112772417035e-19,-0.00025213591115360695,-0.0003576768696855146,-0.00031227257786258335,-0.00016772943709429536,-2.1457855559737354e-19,3.31024809718752e-05,6.748916883143647e-05,7.848215129058878e-05,5.36455549247956e-05,8.023526074029196e-20,-0.0001572073383523393,-0.00021014890836471914,-0.00017083998922692745,-8.411076870755481e-05,-1.3595129968523874e-19,0.0,0.0,0.0,0.0,0.0,0.0,0.0,0.0,0.0,0.0,0.0,0.0,0.0,0.0,0.0,0.0,0.0,0.0,0.0,0.0,0.0,0.0,0.0,0.0,0.0,0.0,0.0,0.0,0.0,0.0,0.0,0.0,0.0,0.0,0.0,0.0,0.0,0.0,0.0,0.0,0.0,0.0,0.0,0.0,0.0,0.0,0.0,0.0,0.0,0.0,0.0,0.0,0.0,0.0,0.0,0.0,0.0,0.0,0.0,0.0,0.0,0.0,0.0,0.0,0.0,0.0,0.0,0.0,0.0,0.0,0.0,0.0,0.0,0.0,0.0,0.0,0.0,0.0,0.0,0.0,0.0,0.0,0.0,0.0,0.0,0.0,0.0,0.0,0.0,0.0,0.0,0.0,0.0,0.0,0.0,0.0,0.0,0.0,0.0,0.0,0.0,0.0,0.0,0.0,0.0,0.0,0.0,0.0,0.0,0.0,0.0,0.0,0.0,0.0,0.0,0.0,0.0,0.0,0.0,0.0,0.0,0.0,0.0,0.0,0.0,0.0,0.0,0.0,0.0,0.0,0.0,0.0,0.0,0.0
0.34919523773240946,0.38330211756524085,0.39279879099573556,0.38211202399669947,0.35938296202152986,0.3339223380665104,0.3134005810258802,0.30253418551752076,0.30195357838242876,0.3088846775399878,0.31864943840061133,0.3263329238517947,0.3288754249545232,0.3254759585189008,0.3175713460697426,0.3079620456885008,0.2994359860120364,0.2941743441532632,0.29278854627200573,0.2944229946402944,0.29727465297639016,0.2992164556284716,0.2989499954271803,0.29607709300081353,0.29117020938775495,0.2854130566244719,0.27992938955003094,0.27580340758886823,0.273484674166253,0.27288137445887245,0.27355146027255367,0.27479978792548504,0.2763965942664993,0.2782785095046131,0.28055986894631485,0.2833451286190364,0.2861982659542467,0.2890670411794206,0.2915257358467775,0.2930521098767941,0.2931387969655191,0.2908858005390491,0.28662545682590124,0.2807667481056037,0.27397932763562766,0.2670006661146437,0.2601535802187523,0.25404242227149215,0.24885964165698768,0.24454946260998078,0.24086253526376833,0.23722120070563432,0.23364855535573065,0.22985788273659666,0.22569189678862392,0.22118030392067925,0.21628980782380622,0.21170043520472479,0.2076746639597312,0.20430951236924086,0.2014980725775902,0.19869661931642085,0.1958854592694265,0.19266804262042103,0.18876517730582343,0.18415113626708973,0.178912092606591,0.17394201942151336,0.16991441887738554,0.16742054839244552,0.16680419995658927,0.16788037624930735,0.17047784854403125,0.17374697891167712,0.1766682962333009,0.17840293977670116,0.17851796960963479,0.17784700790630595,0.17788397231294958,0.18097393566872483,0.19000167959681294,0.2077070320231066,0.2365355416361116,0.2772396272250742,0.3286295739470997,0.3873990381747421,0.44819683509700625,0.5047975030177239,0.5502915443183223,0.5784506300068489,0.5847963967526713,0.5672510108087176,0.5270853110078487,0.46802741137171916,0.39595829481808376,0.3180093991561242,0.24135522574230958,0.1727039509180605,0.11678998618142072,0.07617673783384772,0.05122240155957718,0.04026926174667802,0.040672126410392154,0.04883399992936087,0.061082873622114044,0.07420668153458407,0.08566998459242295,0.09415952473466645,0.09893493261401154,0.09985826057389667,0.09719096150959095,0.09130482547148022,0.08294978295840819,0.07267262811882412,0.06102026621454996,0.04859548075479547,0.03599950264556637,0.02418018590586761,0.013879214709600492,0.005698809560860361,2.0063482032217214e-19,-0.0032589915959385044,-0.004212830500918871,-0.003466261448290065,-0.0018027226635734775,-3.84034837885898e-19,0.0012492183056797596,0.0018005744970183485,0.0016212716288007598,0.000909906961860383,3.4227221543124035e-19,-0.0008618615798158381,-0.00125247604337343,-0.0011274122970722235,-0.0006283248311749925,-4.469752324084135e-19,0.0003139189697498224,0.0005227177733283608,0.0005319494175216738,0.0003311516368397615,2.9110797635205826e-19,-0.0006271924847033687,-0.000863006188324276,-0.0007277059446506302,-0.00037554295094062765,-4.802705330307511e-19,8.908274114805768e-05,0.00013986579401748704,0.00013535942522489625,8.072470183411487e-05,6.752570278613727e-20,-0.0001007579513460518,-0.00014524277523954619,-0.0001290726167798364,-7.070150124058878e-05,-8.536149266514719e-20,1.6932807966943127e-05,3.4522522243642583e-05,4.014572798229858e-05,2.7441141967378253e-05,4.1042490544659955e-20,-8.041577528814508e-05,-0.0001074968100676757,-8.738924230821249e-05,-4.302491694465625e-05,-6.954274069011198e-20,0.0,0.0,0.0,0.0,0.0,0.0,0.0,0.0,0.0,0.0,0.0,0.0,0.0,0.0,0.0,0.0,0.0,0.0,0.0,0.0,0.0,0.0,0.0,0.0,0.0,0.0,0.0,0.0,0.0,0.0,0.0,0.0,0.0,0.0,0.0,0.0,0.0,0.0,0.0,0.0,0.0,0.0,0.0,0.0,0.0,0.0,0.0,0.0,0.0,0.0,0.0,0.0,0.0,0.0,0.0,0.0,0.0,0.0,0.0,0.0,0.0,0.0,0.0,0.0,0.0,0.0,0.0,0.0,0.0,0.0,0.0,0.0,0.0,0.0,0.0,0.0,0.0,0.0,0.0,0.0,0.0,0.0,0.0,0.0,0.0,0.0,0.0,0.0,0.0,0.0,0.0,0.0,0.0,0.0,0.0,0.0,0.0,0.0,0.0,0.0,0.0,0.0,0.0,0.0,0.0,0.0,0.0,0.0,0.0,0.0,0.0,0.0,0.0,0.0,0.0,0.0,0.0,0.0,0.0,0.0,0.0,0.0,0.0,0.0,0.0,0.0,0.0,0.0,0.0,0.0,0.0,0.0,0.0,0.0
0.5847963967526713,0.6169105770636779,0.5945627608979914,0.5258799578957349,0.4270897985667298,0.3180093991561242,0.21706720958830314,0.1374361813566532,0.08494144039409048,0.058308587938911555,0.05122240155957717,0.055269109227374165,0.0629103893496246,0.06928137330197547,0.0727464533476768,0.07420668153458408,0.07566456528718447,0.07887636342279292,0.08432811086074912,0.09106554499672175,0.09719096150959095,0.10069744615547829,0.10037039018363754,0.09617294898344231,0.08920578034995653,0.08123272684588885,0.07399751481140436,0.06874117163055089,0.06586008489171824,0.06498066970353142,0.06527449218218677,0.06583672658147664,0.066094213485539,0.06588010087608008,0.06538026001497596,0.06492885089774648,0.0647700071898473,0.06494028947254885,0.0652204590837878,0.06523175063149234,0.0645832096133062,0.06301317179838171,0.06044646566625482,0.057005440392032806,0.05294952616114733,0.04859964739792643,0.04430021560993645,0.04032272946669811,0.03691298834743033,0.03428479547649417,0.03261608518254666,0.031763640709373694,0.032266634238647555,0.033899289889222126,0.03625014754262332,0.038845161251104245,0.041169059081069374,0.04315536777597324,0.04455193782929222,0.04520253435845524,0.04507423731966182,0.04433613849497143,0.04312822954847574,0.04161607608376222,0.039946251219034515,0.03823190947066882,0.03656754838191921,0.03503562911438933,0.03364962113807383,0.032422035992949426,0.03138958162167582,0.03056933916503473,0.030134316740869624,0.0301289770823488,0.03052985006109092,0.031229972005255603,0.03199678970381314,0.0326509609366247,0.0328931926774334,0.03243655774582694,0.03107036238883539,0.028676242823214036,0.02537919441935982,0.021367633787013035,0.016917643141295194,0.012338910696924311,0.007877495684351653,0.003785603355909205,0.0001163886146600243,-0.003215094989609396,-0.006392540994986767,-0.009667367108379423,-0.013159266896070127,-0.01696348256478983,-0.02105609515374907,-0.025298194655166948,-0.02951136268236374,-0.03346729040982475,-0.03710876898610086,-0.04057286644951915,-0.04420384831534712,-0.0485150801858345,-0.05400513305114357,-0.06108077817509536,-0.06985949228615153,-0.08004315505570936,-0.0908961168806865,-0.10123394850826198,-0.10969269758936546,-0.11493030505695248,-0.11588246179607158,-0.1120049316344578,-0.10331610561631906,-0.09052589680435102,-0.07487930724130021,-0.05794123089803579,-0.041351485709303804,-0.02649207199104338,-0.014386764084234574,-0.005554687656478329,1.1733336155174024e-19,0.0026892869308994165,0.00325568915030763,0.0025168444832172863,0.0012348740130811936,-9.283884846255476e-20,-0.0008453141220085385,-0.001146920372347835,-0.0009749160480103112,-0.0005183861736570185,3.039540022312563e-20,0.0003799629385512989,0.0005492739899008794,0.0004950439556655304,0.000277877395454729,-3.921679005513166e-21,-0.00024001297425038062,-0.0003567276155613491,-0.0003290593463496118,-0.00018827452673771637,-4.738138901024987e-20,0.0001660540694552367,0.0002494725512704483,0.00023205126178165694,0.0001335929470491369,6.984389766919439e-20,-0.00010327585088852403,-0.00016077230234188156,-0.00015442325711497536,-9.14864771320151e-05,-7.338828670463142e-20,0.00010617762098313373,0.00015451716988659807,0.00013872729582078687,7.68307548577646e-05,8.970739791159775e-20,-2.0189279351206656e-05,-4.1161799439633695e-05,-4.786644474882694e-05,-3.2718547448071936e-05,-4.893567023809973e-20,9.588111757398714e-05,0.0001281703030033067,0.00010419570272663409,5.129935146928525e-05,8.291701065660062e-20,0.0,0.0,0.0,0.0,0.0,0.0,0.0,0.0,0.0,0.0,0.0,0.0,0.0,0.0,0.0,0.0,0.0,0.0,0.0,0.0,0.0,0.0,0.0,0.0,0.0,0.0,0.0,0.0,0.0,0.0,0.0,0.0,0.0,0.0,0.0,0.0,0.0,0.0,0.0,0.0,0.0,0.0,0.0,0.0,0.0,0.0,0.0,0.0,0.0,0.0,0.0,0.0,0.0,0.0,0.0,0.0,0.0,0.0,0.0,0.0,0.0,0.0,0.0,0.0,0.0,0.0,0.0,0.0,0.0,0.0,0.0,0.0,0.0,0.0,0.0,0.0,0.0,0.0,0.0,0.0,0.0,0.0,0.0,0.0,0.0,0.0,0.0,0.0,0.0,0.0,0.0,0.0,0.0,0.0,0.0,0.0,0.0,0.0,0.0,0.0,0.0,0.0,0.0,0.0,0.0,0.0,0.0,0.0,0.0,0.0,0.0,0.0,0.0,0.0,0.0,0.0,0.0,0.0,0.0,0.0,0.0,0.0,0.0,0.0,0.0,0.0,0.0,0.0,0.0,0.0,0.0,0.0,0.0,0.0
0.3549038686575843,0.3623046254994107,0.3303502257259506,0.26443520726122666,0.17577619894945176,0.07848922193487375,-0.014036955972468812,-0.091134566348795,-0.14716052260935644,-0.18157649562837122,-0.19792542478783684,-0.20235793943629565,-0.2006667569883479,-0.19749814554747977,-0.19541648955033006,-0.19499439157653928,-0.1958653512064324,-0.19655950018858703,-0.19612363244157066,-0.1943936392891914,-0.19206335836524172,-0.19078663510899188,-0.19152238095992194,-0.19493960621550954,-0.20092865034136942,-0.20861007104526805,-0.21701098843448516,-0.224153860200828,-0.22845195741397267,-0.22886066667353527,-0.22515678372529438,-0.21849240606805906,-0.2098254126367726,-0.20064758532728763,-0.19230582157314816,-0.1856139057865039,-0.18116556275183984,-0.1774092920215671,-0.1721383083018499,-0.16258367448008473,-0.14607102784771342,-0.12145257695959819,-0.08746220731480943,-0.04465172576378364,0.005011408079065895,0.058405149338733975,0.11114964810989551,0.16007075143269395,0.2024537555615089,0.23679020044620167,0.26288132652518137,0.2810013082860113,0.293666512453802,0.30315338341349557,0.3116090965031685,0.3206447302649596,0.33056646868297296,0.341891466993734,0.35419682064428765,0.3666787846306275,0.3784081340047378,0.3882087120964522,0.3958472508766477,0.4015626538838262,0.4060327481170461,0.41012306648322044,0.41447916121740785,0.4196367087251563,0.4259149202774556,0.4333674083162051,0.4418379989617031,0.45114609867499483,0.4607851684693856,0.4704664202682579,0.47994758806827553,0.4890369083083709,0.4977542824601518,0.5060375491880185,0.5144326108109799,0.5239929507551807,0.5362358176550386,0.5530352928806402,0.575774880028324,0.6054142707775284,0.6417641813339634,0.6831386202554188,0.7264328816762626,0.7671365014539919,0.8005386519837936,0.8224496846244832,0.830041422855799,0.8225008082945919,0.8009049619495527,0.7683061264338896,0.7289202247250205,0.6872591082521085,0.6472835922779255,0.6119540799660946,0.582874175839797,0.5604913943726775,0.544476793648418,0.5340239083352448,0.5286900152324852,0.527823608119314,0.5307111993451415,0.536342426661137,0.5429787412413651,0.5486277972795323,0.5502745849883038,0.5445284802956372,0.5282080596738561,0.49881680770749187,0.4558826320484257,0.4003446160090537,0.3349738888902582,0.26410402983692804,0.19281964703449556,0.12694407824308124,0.0711033721775278,0.028397669176315747,1.0987824826944863e-19,-0.01511465445621028,-0.018983556420829523,-0.015199038582367354,-0.00770624969208622,-6.291018119692915e-19,0.005230892378896821,0.007356566351688337,0.00647727834161602,0.0035630136697449785,5.963715974221311e-19,-0.0031710843096195377,-0.0045816289920506716,-0.00410813008248918,-0.0022848229256739773,-9.96163907796862e-19,0.0015164290685798576,0.0023398783185927426,0.0022337389817589717,0.0013181520445155167,7.161472387052683e-19,-0.0016255767836146503,-0.002335591429990804,-0.002070819236498605,-0.0011329678542612732,-1.0633265274154607e-18,0.0005305017622189976,0.0008546530212631418,0.0008455576581400804,0.0005138483944716612,4.793539153369725e-19,-0.0007677615964229864,-0.001083669581246608,-0.000940737012498854,-0.00050204119282117,-6.543168304347912e-19,9.20254877833103e-05,0.00018762109362980748,0.00021818178102530456,0.00014913559994355377,2.230554565780081e-19,-0.0004370392058311752,-0.0005842177151562887,-0.00047493821852389294,-0.0002338294378816599,-3.7794703904335076e-19,0.0,0.0,0.0,0.0,0.0,0.0,0.0,0.0,0.0,0.0,0.0,0.0,0.0,0.0,0.0,0.0,0.0,0.0,0.0,0.0,0.0,0.0,0.0,0.0,0.0,0.0,0.0,0.0,0.0,0.0,0.0,0.0,0.0,0.0,0.0,0.0,0.0,0.0,0.0,0.0,0.0,0.0,0.0,0.0,0.0,0.0,0.0,0.0,0.0,0.0,0.0,0.0,0.0,0.0,0.0,0.0,0.0,0.0,0.0,0.0,0.0,0.0,0.0,0.0,0.0,0.0,0.0,0.0,0.0,0.0,0.0,0.0,0.0,0.0,0.0,0.0,0.0,0.0,0.0,0.0,0.0,0.0,0.0,0.0,0.0,0.0,0.0,0.0,0.0,0.0,0.0,0.0,0.0,0.0,0.0,0.0,0.0,0.0,0.0,0.0,0.0,0.0,0.0,0.0,0.0,0.0,0.0,0.0,0.0,0.0,0.0,0.0,0.0,0.0,0.0,0.0,0.0,0.0,0.0,0.0,0.0,0.0,0.0,0.0,0.0,0.0,0.0,0.0,0.0,0.0,0.0,0.0,0.0,0.0
0.830041422855799,0.9000547497415115,0.9057210319533374,0.8578895535247844,0.7770684549518679,0.6872591082521085,0.6090993140619241,0.556156856994131,0.5320354790323498,0.5316276074203219,0.544476793648418,0.5587641836550112,0.5661709298911204,0.5632447021626807,0.551633398600153,0.536342426661137,0.5227702619334523,0.5153387059345381,0.5152993373728281,0.520852953935006,0.5282080596738561,0.532869885210323,0.5322270428220599,0.5256322307503758,0.5145540755170701,0.5017582124167235,0.4897872739297745,0.4809854713494528,0.47614910901236696,0.4747335593007928,0.4753083651595908,0.47586082594288004,0.475442235137655,0.47367173618928143,0.4708741585813109,0.46774945657578965,0.4646388816837759,0.46223345582866304,0.46073235260041945,0.4600967941170542,0.46019054799198855,0.4605964893968701,0.461597127573881,0.46341192081950977,0.46621120910382635,0.46992974964944423,0.47385518500210505,0.4775229601989969,0.48017224324818714,0.4810735812453158,0.47966895130689996,0.47495482755150376,0.46799255415326857,0.4591085629541012,0.44880796535061124,0.43775999586080727,0.426096999919647,0.41551026508900896,0.4067045061433751,0.40010907540036644,0.39585104041471464,0.39319355692544145,0.39250233529924816,0.39325841317689664,0.39483127435130266,0.3966052675523531,0.3976592222548435,0.3983123175338304,0.398436246667588,0.3980553752758196,0.39735949468999154,0.3963944399767096,0.3960193415458096,0.39643181268680255,0.39760622514084304,0.3993118939985768,0.4009068351968748,0.4024034735065723,0.4032605959597285,0.4029830449731787,0.4012642933071621,0.3978219442617705,0.39333184989274134,0.3881210076484959,0.3825314552616927,0.376869047774444,0.3711240160480737,0.3658775501370727,0.3611032301842452,0.3566753413274242,0.35247380224172603,0.3482145061585398,0.34436425217482985,0.34090513294933633,0.33773512223965413,0.3346833650913896,0.33130806320712686,0.3278890470235853,0.32429528010600756,0.3205408286513297,0.3168929279410531,0.3136404294124456,0.3119362848703274,0.31234933111408886,0.31509201982309004,0.3198487726400772,0.32544748619736896,0.330732905900349,0.33358521715958295,0.3316536770106432,0.3228046173391013,0.30536791853971207,0.27927308352410396,0.24520915320109404,0.20499726496921442,0.16140230866955066,0.11754550526364196,0.07717557778351983,0.04310612098719055,0.017168623537543386,1.278736325585107e-19,-0.009159332804078862,-0.011470860935610443,-0.009153119458459494,-0.004622976290714061,-4.550332693380498e-19,0.00305421745552752,0.00428725409389305,0.0037694171680638135,0.002071316839322543,3.191703740480092e-19,-0.0018874728224517676,-0.002712589475091084,-0.002418733407685083,-0.0013374983584275198,-5.779395953761321e-19,0.0008866940363121707,0.0013551440267581894,0.0012825416744969287,0.0007510514286750785,3.6480753211070523e-19,-0.0008558449645051833,-0.0012416985358453154,-0.0011128211756052716,-0.0006160348503980212,-5.311297230960301e-19,0.0003214442505075645,0.0005166740392334172,0.0005101983047394996,0.0003095527068173714,2.86253356764305e-19,-0.0004560857277681156,-0.0006447295441270189,-0.0005606589353188028,-0.0002997948899037409,-3.885296864349167e-19,5.6239680226912586e-05,0.0001146611722875068,0.00013333777295583917,9.114147236060992e-05,1.363162299161454e-19,-0.0002670884531516359,-0.00035703388566277135,-0.0002902497360320153,-0.0001429005499549032,-2.309753648745277e-19,0.0,0.0,0.0,0.0,0.0,0.0,0.0,0.0,0.0,0.0,0.0,0.0,0.0,0.0,0.0,0.0,0.0,0.0,0.0,0.0,0.0,0.0,0.0,0.0,0.0,0.0,0.0,0.0,0.0,0.0,0.0,0.0,0.0,0.0,0.0,0.0,0.0,0.0,0.0,0.0,0.0,0.0,0.0,0.0,0.0,0.0,0.0,0.0,0.0,0.0,0.0,0.0,0.0,0.0,0.0,0.0,0.0,0.0,0.0,0.0,0.0,0.0,0.0,0.0,0.0,0.0,0.0,0.0,0.0,0.0,0.0,0.0,0.0,0.0,0.0,0.0,0.0,0.0,0.0,0.0,0.0,0.0,0.0,0.0,0.0,0.0,0.0,0.0,0.0,0.0,0.0,0.0,0.0,0.0,0.0,0.0,0.0,0.0,0.0,0.0,0.0,0.0,0.0,0.0,0.0,0.0,0.0,0.0,0.0,0.0,0.0,0.0,0.0,0.0,0.0,0.0,0.0,0.0,0.0,0.0,0.0,0.0,0.0,0.0,0.0,0.0,0.0,0.0,0.0,0.0,0.0,0.0,0.0,0.0
0.47966895130689996,0.5245215062216445,0.5343886824456697,0.5153457767939283,0.4787528129570209,0.43775999586080727,0.4033999161473692,0.3827588761263307,0.3772993642412631,0.38370459540713264,0.39585104041471464,0.4070007267337338,0.4127860973353604,0.4117110196299807,0.4052217039863502,0.3966052675523531,0.3891268177718033,0.385526188634675,0.38657213113754996,0.39123872847250357,0.39735949468999154,0.40227984772783265,0.4046693035593818,0.4042732873342114,0.4019886660554504,0.3993118939985768,0.39728616936706235,0.3968959985681062,0.39806536220194616,0.39994196023895867,0.4012642933071621,0.40048964960827926,0.3972247613640557,0.39162413096818083,0.3844747783705315,0.376869047774444,0.36952125955355114,0.36333051259774396,0.35858085665484757,0.35511778087835066,0.35247380224172603,0.3498128219124766,0.34681388662277596,0.343250251324019,0.3391398500012665,0.3346833650913896,0.32992594335903536,0.3254033305124683,0.32152064037973205,0.3186175164573076,0.3168929279410531,0.31584880559162576,0.31597488388983985,0.31696577834534434,0.31839704221103093,0.3198487726400772,0.3205483583521699,0.32100609732950675,0.32135302737500515,0.321846530390527,0.3228046173391013,0.3240824459966833,0.32641434332805846,0.32981449734137086,0.3340569980698217,0.3387320541100847,0.3430275416577554,0.3469618903402855,0.3502261379600265,0.3527273616821448,0.35465949088106813,0.3562762026504347,0.35855584068136265,0.361988120037396,0.36677838668992074,0.3727491360685519,0.3791082001102901,0.38529770291093157,0.3901078351850614,0.3922901643984396,0.3908387812560357,0.3850093786779391,0.37522796669846836,0.3620432383508599,0.346413615155102,0.32957295417324567,0.3126618088346375,0.29729300511035284,0.28443086468601847,0.27468117409288356,0.2683071270904556,0.2650880412612455,0.26505419834510646,0.26760691744871884,0.2719100740694757,0.2769924213142886,0.28169312115689277,0.28544990088124883,0.2875607525788298,0.2876307170349703,0.2856777155381215,0.28198338945212076,0.27761965250103593,0.2734307148457154,0.27010022522496385,0.2679466032646981,0.2666073285799925,0.2656168668407618,0.2636532060900246,0.25906487152911745,0.25021549099127477,0.23568500193441994,0.2152177493247599,0.18907741974608494,0.15840260791056865,0.12510774549563738,0.09144387936592817,0.06028286193701459,0.03381681887918203,0.013528929701095418,1.4534742055230313e-19,-0.007301692819748899,-0.009180223505084822,-0.0073509723954545605,-0.0037242126481029716,-4.2380162789998845e-19,0.0024472292873510904,0.003448748805322536,0.0030438375387754797,0.0016787502272695562,2.870104524164028e-19,-0.001572501409903824,-0.002256248471666821,-0.002007554904633272,-0.0011072785730129272,-5.175225632942285e-19,0.0007194752194254889,0.0010988009858018512,0.0010391631310096806,0.0006080786506447717,2.996112172184254e-19,-0.000683384148286201,-0.000993551886366371,-0.000892374011740749,-0.0004951229569987749,-4.2825390220549404e-19,0.0002561376736615944,0.0004147134099866008,0.0004120107442139246,0.00025124981967996935,2.3879381627555904e-19,-0.0003866585076328598,-0.0005440398674367744,-0.00047058952410306606,-0.0002501070606013903,-3.298139041619412e-19,4.3593054266589893e-05,8.887729598804116e-05,0.00010335408645279983,7.064647477585923e-05,1.0566277731621612e-19,-0.00020702822962793353,-0.0002767476182281108,-0.00022498123109263702,-0.00011076648024624829,-1.790358973343231e-19,0.0,0.0,0.0,0.0,0.0,0.0,0.0,0.0,0.0,0.0,0.0,0.0,0.0,0.0,0.0,0.0,0.0,0.0,0.0,0.0,0.0,0.0,0.0,0.0,0.0,0.0,0.0,0.0,0.0,0.0,0.0,0.0,0.0,0.0,0.0,0.0,0.0,0.0,0.0,0.0,0.0,0.0,0.0,0.0,0.0,0.0,0.0,0.0,0.0,0.0,0.0,0.0,0.0,0.0,0.0,0.0,0.0,0.0,0.0,0.0,0.0,0.0,0.0,0.0,0.0,0.0,0.0,0.0,0.0,0.0,0.0,0.0,0.0,0.0,0.0,0.0,0.0,0.0,0.0,0.0,0.0,0.0,0.0,0.0,0.0,0.0,0.0,0.0,0.0,0.0,0.0,0.0,0.0,0.0,0.0,0.0,0.0,0.0,0.0,0.0,0.0,0.0,0.0,0.0,0.0,0.0,0.0,0.0,0.0,0.0,0.0,0.0,0.0,0.0,0.0,0.0,0.0,0.0,0.0,0.0,0.0,0.0,0.0,0.0,0.0,0.0,0.0,0.0,0.0,0.0,0.0,0.0,0.0,0.0
0.4012642933071621,0.43977604026376205,0.44960684037879695,0.43586617639366965,0.40800380844169565,0.376869047774444,0.3513805964353361,0.33717224442428134,0.3350971727814895,0.3420105143841193,0.35247380224172603,0.360647536759862,0.3628327522316838,0.35792289070432803,0.3474613479688964,0.3346833650913896,0.32289277506036085,0.31493073829371654,0.3118810459797605,0.3131343864507004,0.3168929279410531,0.32073300642885383,0.32315021700690894,0.32347277236356137,0.3220389644675876,0.3198487726400772,0.3178009439135166,0.3169313655376425,0.31762520814496986,0.31974330371420967,0.3228046173391013,0.3260254926252189,0.3291966095697811,0.3322664570014003,0.3353863569769905,0.3387320541100847,0.34213665673539173,0.34561238885049334,0.3489554604209285,0.3519826279482318,0.35465949088106813,0.35699294090905864,0.3595210121892014,0.36277659981833976,0.3671664538101162,0.3727491360685519,0.37890944245053426,0.38492363204939756,0.38967528035174137,0.39198267911995827,0.3908387812560357,0.3852088043674737,0.37555492005593116,0.36237224685519315,0.34661675248885904,0.32957295417324567,0.31226502757486785,0.29657704192380063,0.28363286452169406,0.27413174939820695,0.2683071270904556,0.26557316484526483,0.26588264649422144,0.2684822100627299,0.27248269635939737,0.2769924213142886,0.2809474011937744,0.28412823664846,0.28610547629774324,0.28663434862783554,0.2856777155381215,0.28323364240416526,0.279916514951845,0.27606719513220956,0.2719944813542309,0.2679466032646981,0.2639234280727499,0.2602914334598919,0.2569530128711206,0.2536851519453993,0.25021549099127477,0.2461282515068989,0.24155525980081452,0.2363743313658868,0.23055365953858448,0.22420218984298662,0.21741973718285756,0.21095528824838936,0.20528610877548992,0.20088785311820767,0.1981888886946984,0.19731911424248647,0.19872930982328008,0.20220710711293968,0.20721344318800436,0.21297263679365505,0.21842003681409286,0.2231022931686937,0.22637382339961956,0.22789852100502808,0.2277563848926117,0.22623960508062,0.22450133769119765,0.22332854971044644,0.22328172486270637,0.22451663080123332,0.2265010314595819,0.2286496829751549,0.22957450374494967,0.22763459578871953,0.2212768767098549,0.2092433880090223,0.1913757449809328,0.16806801384278208,0.14052689146129083,0.11063843835492745,0.08055115560347992,0.05285817005117879,0.0295015001274233,0.011739115008330504,6.994597627626763e-20,-0.006256210707581405,-0.00782490066843679,-0.006234877470221653,-0.003144202570866333,-2.9269966683624315e-19,0.0020718670662919977,0.002902833812862932,0.002547526504379005,0.0013974381935267172,1.8995178497085201e-19,-0.0012593881896492392,-0.0018107401881509062,-0.0016157042142678005,-0.0008942740921056838,-3.6054507043409083e-19,0.0006089336271557833,0.0009266870496904321,0.0008735974595232912,0.0005097519711541824,2.367043425864431e-19,-0.0005570620719113034,-0.0008127317638552465,-0.0007327689311898943,-0.0004082613994191961,-3.3828621446472566e-19,0.00022217925263006842,0.0003579118999530236,0.0003540822433716162,0.0002151665195726484,2.0066910344108365e-19,-0.000321352793207173,-0.00045359937687409243,-0.000393791547336555,-0.00021016640669451608,-2.7386608684788855e-19,3.855130973761566e-05,7.859821303924318e-05,9.14006936775683e-05,6.247587320446437e-05,9.344237343736851e-20,-0.00018308442799185934,-0.00024474043695617184,-0.00019896107925729026,-9.79558087947814e-05,-1.5832954236421243e-19,0.0,0.0,0.0,0.0,0.0,0.0,0.0,0.0,0.0,0.0,0.0,0.0,0.0,0.0,0.0,0.0,0.0,0.0,0.0,0.0,0.0,0.0,0.0,0.0,0.0,0.0,0.0,0.0,0.0,0.0,0.0,0.0,0.0,0.0,0.0,0.0,0.0,0.0,0.0,0.0,0.0,0.0,0.0,0.0,0.0,0.0,0.0,0.0,0.0,0.0,0.0,0.0,0.0,0.0,0.0,0.0,0.0,0.0,0.0,0.0,0.0,0.0,0.0,0.0,0.0,0.0,0.0,0.0,0.0,0.0,0.0,0.0,0.0,0.0,0.0,0.0,0.0,0.0,0.0,0.0,0.0,0.0,0.0,0.0,0.0,0.0,0.0,0.0,0.0,0.0,0.0,0.0,0.0,0.0,0.0,0.0,0.0,0.0,0.0,0.0,0.0,0.0,0.0,0.0,0.0,0.0,0.0,0.0,0.0,0.0,0.0,0.0,0.0,0.0,0.0,0.0,0.0,0.0,0.0,0.0,0.0,0.0,0.0,0.0,0.0,0.0,0.0,0.0,0.0,0.0,0.0,0.0,0.0,0.0
0.3908387812560357,0.42453292348738253,0.42824504427187704,0.4070179955747967,0.37040123027372185,0.32957295417324567,0.2941279968392626,0.27041334035117975,0.2601504624261932,0.261036502529056,0.2683071270904556,0.27654364265791276,0.28200554680317025,0.2831556442408266,0.2807485932463527,0.2769924213142886,0.27414823783448017,0.27397420251847004,0.27672088467333356,0.2812670083909762,0.2856777155381215,0.28784446906587446,0.2867031635686351,0.2822304764861958,0.27544655440774934,0.2679466032646981,0.2611204980740778,0.2560793158833367,0.25303568416034633,0.2514295631998694,0.25021549099127477,0.24812331401767923,0.24445407983936077,0.23897135905832614,0.23198796428855742,0.22420218984298662,0.21629999346635995,0.20920625942208995,0.20358399155023488,0.1998548519435028,0.1981888886946984,0.19835502699570604,0.20026996990302906,0.2036346548918473,0.20803939317310227,0.21297263679365505,0.21746389300800753,0.22132582522969688,0.2243343389261938,0.22645123951076224,0.2277563848926117,0.22753827037045588,0.2268209947742333,0.22591762559222672,0.22509271077075238,0.22451663080123332,0.22372481575863945,0.22320360147713375,0.2228040733375826,0.22226411532072624,0.2212768767098549,0.2193979714094778,0.21674874188038096,0.21329909358290175,0.2091729885977538,0.2046542742894362,0.19997701070028556,0.19582510273700607,0.19246298660694702,0.18992942446102962,0.18803167186901748,0.1862502200609169,0.18440426989365688,0.1820453316853712,0.1788802762632305,0.17490894761470008,0.17034137072462266,0.1660746039421101,0.16284809305100043,0.16130067863361228,0.16178622336038265,0.16410408768607568,0.16794786547870302,0.1723494656193746,0.17617231069259998,0.17850422215456047,0.1789688600613078,0.1785199076544409,0.17902804231695563,0.18340466311715795,0.19522222094873826,0.21794636265441078,0.2544777907847245,0.3057799443036711,0.3704164556186542,0.44430097818513026,0.5208353115193386,0.5920876773503889,0.6494093337441743,0.6850251439106755,0.6933797354215223,0.6720289847665574,0.6225472553347381,0.5497488110479454,0.4611227031096167,0.36562676042736925,0.2721630030804976,0.1886818886025882,0.1205813946810319,0.07040251940543893,0.0378737854332163,0.020318095361913417,0.01393114728232791,0.01417278287830184,0.016877947430117942,0.01893689271660815,0.018529553286835906,0.01551145282291339,0.010573013538685897,0.00496279675626164,-5.84308355774464e-21,-0.00342426079264994,-0.0047105361355662114,-0.00407264846487977,-0.0022045503837426865,-2.617179377739501e-19,0.0016515841870773157,0.0024301802743309803,0.002224703421672404,0.0012655650303272554,2.9336199549614906e-19,-0.0011687856049872017,-0.0017298579696695363,-0.0015860179231927784,-0.000900510589390535,-4.711476726390179e-19,0.0006720439360249262,0.0010351327708963097,0.000985082329304042,0.0005789430689336972,4.176461394441474e-19,-0.0006218619796398792,-0.0009139896064182715,-0.0008294093025816328,-0.00046464821802932974,-5.012885558428372e-19,0.0001520386045531896,0.0002937040133229847,0.00033091016148426044,0.00022159201672678646,3.1068994023054203e-19,-0.0005964506269602876,-0.0008014254148745894,-0.0006558023389695597,-0.00032566338460871143,-5.151135147676865e-19,6.598448310016721e-06,1.3452882652468983e-05,1.5644157276001455e-05,1.069338040052573e-05,1.599361150861612e-20,-3.133675983242943e-05,-4.188981213913181e-05,-3.405420998974247e-05,-1.676613182269074e-05,-2.7099709668734884e-20,0.0,0.0,0.0,0.0,0.0,0.0,0.0,0.0,0.0,0.0,0.0,0.0,0.0,0.0,0.0,0.0,0.0,0.0,0.0,0.0,0.0,0.0,0.0,0.0,0.0,0.0,0.0,0.0,0.0,0.0,0.0,0.0,0.0,0.0,0.0,0.0,0.0,0.0,0.0,0.0,0.0,0.0,0.0,0.0,0.0,0.0,0.0,0.0,0.0,0.0,0.0,0.0,0.0,0.0,0.0,0.0,0.0,0.0,0.0,0.0,0.0,0.0,0.0,0.0,0.0,0.0,0.0,0.0,0.0,0.0,0.0,0.0,0.0,0.0,0.0,0.0,0.0,0.0,0.0,0.0,0.0,0.0,0.0,0.0,0.0,0.0,0.0,0.0,0.0,0.0,0.0,0.0,0.0,0.0,0.0,0.0,0.0,0.0,0.0,0.0,0.0,0.0,0.0,0.0,0.0,0.0,0.0,0.0,0.0,0.0,0.0,0.0,0.0,0.0,0.0,0.0,0.0,0.0,0.0,0.0,0.0,0.0,0.0,0.0,0.0,0.0,0.0,0.0,0.0,0.0,0.0,0.0,0.0,0.0
0.6933797354215223,0.7303718205193099,0.7021352825446857,0.618306718723683,0.49823473055307377,0.36562676042736925,0.24257298307834246,0.14505345160339622,0.08029448934430551,0.04702659797772574,0.03787378543321628,0.042763628813768606,0.05262529304036365,0.06144337786085509,0.06700713138974333,0.07015028493693623,0.07303753436352933,0.07777496673167031,0.08505409350751574,0.0939456877990433,0.1024267844406561,0.10823602091341111,0.11009451718744273,0.10798107186698043,0.10311405350495736,0.09739750495994734,0.09257612896023544,0.08986965266364492,0.08947102413595616,0.09069454193387866,0.09236822547923856,0.09324996568140154,0.092671114285688,0.09053044243622252,0.08726175174161489,0.08358097808110362,0.08011784108252867,0.07741496050931078,0.07568094887575082,0.07487103973399403,0.07479373068296868,0.07515530441185775,0.07582067057524543,0.07667734857489798,0.07764215203748648,0.07862786512821429,0.07947134556809306,0.08016921487413273,0.08077262388567966,0.08144979634227156,0.0824619995734599,0.08366440557093474,0.085992721539868,0.08942908909679777,0.0937002469042398,0.09837829775953527,0.10273437400060147,0.10676774823719858,0.1101570042784803,0.11268858722265625,0.11429459594561063,0.11496428272051683,0.1150033001135672,0.11471248527295227,0.11438584573670389,0.11423449509655413,0.1142603499657214,0.114486296807123,0.11471903723329899,0.11469759676220212,0.11417439424749762,0.11293472249036007,0.11104289222537116,0.10858374120329195,0.10573713518644899,0.10273794564914289,0.09977228779678088,0.09711746163758675,0.09485372266655437,0.09295185942765878,0.09130149705078815,0.08970625097824327,0.08811005706820242,0.08639373169279856,0.08449024786050438,0.08240428387248781,0.08017137006060114,0.07800930551219817,0.07607758444913941,0.07453233731921621,0.07350707069418748,0.07305313289401676,0.07326625147716148,0.0740773610432512,0.07532516903992915,0.07678131345202,0.07815072541080294,0.07927723784890249,0.07999100226237883,0.08022766786925269,0.0800555562098525,0.07962504324118896,0.07928505046084541,0.0792942335505995,0.07981770071647083,0.08086219672015792,0.08218777441144696,0.08350382717817115,0.08426129925630148,0.08383903670177875,0.08166883723046334,0.07729936717990686,0.07071606072186692,0.06209228774506502,0.05189501109976243,0.04083441861523167,0.029704545511491636,0.01947580731893858,0.010861380873164867,0.0043189016835670935,3.009911506683641e-20,-0.0023039394326265328,-0.0028800438697890677,-0.0022933136594396946,-0.001155616037913794,-1.1393561214404588e-19,0.0007578022324583019,0.0010611181938160125,0.0009307447036278971,0.0005103128825427908,6.901182710890941e-20,-0.00045952538705546116,-0.0006604916556318223,-0.0005891727656927455,-0.00032600815704681417,-1.3101023133526317e-19,0.00022150485021293367,0.00033713578087001396,0.0003178700833426735,0.00018551036508944148,8.562353365937608e-20,-0.0002034924792879483,-0.0002967102996763181,-0.00026735287423037516,-0.0001488613131428384,-1.231047829283992e-19,8.130417254577165e-05,0.00013067557696038606,0.00012903042463951206,7.828291995081187e-05,7.237177448684938e-20,-0.00011529132355511977,-0.0001629850038679226,-0.00014173966779788423,-7.579535223904963e-05,-9.821295846220247e-20,1.4228511748703174e-05,2.9009016950849584e-05,3.3734154628784656e-05,2.305858612717496e-05,3.4487697495346774e-20,-6.757277385429456e-05,-9.032876460785607e-05,-7.343252597679712e-05,-3.61535155556681e-05,-5.843624429438963e-20,0.0,0.0,0.0,0.0,0.0,0.0,0.0,0.0,0.0,0.0,0.0,0.0,0.0,0.0,0.0,0.0,0.0,0.0,0.0,0.0,0.0,0.0,0.0,0.0,0.0,0.0,0.0,0.0,0.0,0.0,0.0,0.0,0.0,0.0,0.0,0.0,0.0,0.0,0.0,0.0,0.0,0.0,0.0,0.0,0.0,0.0,0.0,0.0,0.0,0.0,0.0,0.0,0.0,0.0,0.0,0.0,0.0,0.0,0.0,0.0,0.0,0.0,0.0,0.0,0.0,0.0,0.0,0.0,0.0,0.0,0.0,0.0,0.0,0.0,0.0,0.0,0.0,0.0,0.0,0.0,0.0,0.0,0.0,0.0,0.0,0.0,0.0,0.0,0.0,0.0,0.0,0.0,0.0,0.0,0.0,0.0,0.0,0.0,0.0,0.0,0.0,0.0,0.0,0.0,0.0,0.0,0.0,0.0,0.0,0.0,0.0,0.0,0.0,0.0,0.0,0.0,0.0,0.0,0.0,0.0,0.0,0.0,0.0,0.0,0.0,0.0,0.0,0.0,0.0,0.0,0.0,0.0,0.0,0.0
0.33535830826865276,0.35121062908104667,0.33430140903067807,0.2892988732346869,0.22576602360194858,0.15556238348962706,0.0898690819111823,0.03702637721151431,0.0010745012288544426,-0.01820914703102443,-0.02423354128939861,-0.022012866436883348,-0.016231832044385507,-0.010255391691040311,-0.00563106642674707,-0.0023419907811968836,0.00041716137951327274,0.003715097862116112,0.008130250702156465,0.013596946446541027,0.019549559727004815,0.025187059839347048,0.030068556474477065,0.034127424115434464,0.03768788233409523,0.041252912573616636,0.04514585291446786,0.04955501827552683,0.05428814017216177,0.058914871354817155,0.06295626542022845,0.0659943153870419,0.06805092822054455,0.06939143608959046,0.07045276913849771,0.07166038974546414,0.07311242747545453,0.0749380521328542,0.07696853227924949,0.07889426121967316,0.08036451407069983,0.08086919772876565,0.08043688376134758,0.07917278224263297,0.077334509463253,0.07525099794349727,0.07310946457353087,0.07129659773220154,0.07007551647787195,0.0696470512650831,0.07013748181629471,0.07136150663213525,0.07363346471642772,0.0767821398261071,0.08052823590561214,0.08454570923246024,0.08838781523576833,0.09196020648488963,0.09502927996705639,0.0974040725354094,0.09895393664862577,0.09959908902664154,0.0993853197178818,0.09846103067796969,0.09705591430607516,0.09544432030428522,0.09388413749138512,0.09262662282616185,0.09184608025086181,0.09162374171183967,0.09193470395994467,0.0926390508450614,0.09353900419742558,0.0943676798889342,0.09487039291835318,0.09488731566969162,0.0944209856659996,0.09379253509720417,0.09357097562489822,0.09458817554110448,0.09783992737943854,0.10427707945468477,0.11469944322110302,0.12935451262147987,0.1478132861286457,0.16889787839914197,0.19071434869140053,0.21101201769682043,0.2273357814476697,0.23749606313936794,0.2399558294188454,0.23407189776581494,0.22036946458070422,0.20025876130212972,0.1758678668493527,0.14968731115400602,0.12413225245670625,0.10132850820609554,0.08266003162255003,0.06873214247102162,0.05941879288916657,0.05399226737793363,0.05149434738623607,0.05079759624468239,0.050879645011311446,0.05096389229649244,0.05052971188163485,0.04945398429901039,0.047713642883926,0.04537294535084398,0.042508991703818305,0.039116796289027624,0.035298123128293224,0.031032361986389242,0.026322704217315182,0.021254495851909153,0.01597853212707901,0.010891062293804866,0.006337785791862113,0.002634531836658492,9.00933574127642e-20,-0.0015436369495058723,-0.002009362936417235,-0.001662306139719362,-0.0008681551818539651,-1.8261935069525586e-19,0.0006005623488121662,0.0008685031381441043,0.000784278203481135,0.00044128276928681067,1.5605954627665812e-19,-0.0004225203949039984,-0.0006142420380823126,-0.0005530675527091785,-0.00030831241345489243,-2.1188479400241317e-19,0.0001650729790888573,0.0002693436399842339,0.0002696210868021071,0.00016560725727532384,1.3812226967055562e-19,-0.00028346221700780534,-0.0003936998290803254,-0.00033567327438789997,-0.00017554100991083567,-2.172905858836206e-19,4.541153996547403e-05,7.432190026663947e-05,7.449253039994879e-05,4.5758051450317685e-05,4.5165223369534304e-20,-7.469559380442504e-05,-0.00010446604580742578,-8.973560516767832e-05,-4.7309251826704696e-05,-6.38205387108565e-20,7.406003420576339e-06,1.5099321879895878e-05,1.755877698128206e-05,1.2002096266116997e-05,1.7950999382744303e-20,-3.517192824810715e-05,-4.701652228127021e-05,-3.8221955196072296e-05,-1.8818065065416408e-05,-3.041632412253722e-20,0.0,0.0,0.0,0.0,0.0,0.0,0.0,0.0,0.0,0.0,0.0,0.0,0.0,0.0,0.0,0.0,0.0,0.0,0.0,0.0,0.0,0.0,0.0,0.0,0.0,0.0,0.0,0.0,0.0,0.0,0.0,0.0,0.0,0.0,0.0,0.0,0.0,0.0,0.0,0.0,0.0,0.0,0.0,0.0,0.0,0.0,0.0,0.0,0.0,0.0,0.0,0.0,0.0,0.0,0.0,0.0,0.0,0.0,0.0,0.0,0.0,0.0,0.0,0.0,0.0,0.0,0.0,0.0,0.0,0.0,0.0,0.0,0.0,0.0,0.0,0.0,0.0,0.0,0.0,0.0,0.0,0.0,0.0,0.0,0.0,0.0,0.0,0.0,0.0,0.0,0.0,0.0,0.0,0.0,0.0,0.0,0.0,0.0,0.0,0.0,0.0,0.0,0.0,0.0,0.0,0.0,0.0,0.0,0.0,0.0,0.0,0.0,0.0,0.0,0.0,0.0,0.0,0.0,0.0,0.0,0.0,0.0,0.0,0.0,0.0,0.0,0.0,0.0,0.0,0.0,0.0,0.0,0.0,0.0
0.32218588128578063,0.3384392666323039,0.32407029872362253,0.28368048873433965,0.22640777960898303,0.16339672548942655,0.10501777997493954,0.05863798156276565,0.027469617474465094,0.010691325833246763,0.004607569693072466,0.004335102703893858,0.00547355936508136,0.005195416215674832,0.0026018221937984237,-0.0016316260229499466,-0.006058520106974316,-0.009250485054975104,-0.010445441108939404,-0.009734060105109297,-0.007870821738972378,-0.005885702729495256,-0.004555156879062673,-0.004195447832114412,-0.004614602583659786,-0.005297076108615785,-0.005726069244405453,-0.005539944133368429,-0.004738871947730723,-0.0036387780051222204,-0.002723330478259202,-0.002487601484062307,-0.0031677267524148076,-0.0047547850321418,-0.007004976869584852,-0.009541757671694986,-0.012014454670867768,-0.014080856112561511,-0.015536233318075214,-0.016293572566237795,-0.016360184865130772,-0.015847029331768403,-0.014836707090579477,-0.013457503287243218,-0.011857254735513918,-0.010193071256741806,-0.008643428124373922,-0.0072766070129662835,-0.006103940984540703,-0.005059374431454711,-0.004025957648352836,-0.0030781994659967627,-0.0018006811259555049,-0.00021975747299688336,0.0015377208382907157,0.0033114978713004155,0.004663359883649085,0.005916665490475918,0.007215242881027788,0.008744951522345496,0.010648953390953671,0.012526141241464292,0.014667046673951998,0.017093777357976132,0.019798715888960892,0.022725334216815038,0.025539436473418286,0.028252301661909972,0.030759635555026876,0.03296793063795187,0.03480171504267641,0.03621937523976622,0.03721228432916361,0.03783689971108027,0.038207858310843404,0.038481353788226355,0.03882443069871632,0.039360949569801684,0.04014396096137794,0.04112577779903651,0.0421609925337763,0.043043273589583854,0.04356137410606953,0.04357738343985983,0.043083159907593274,0.04222591371403789,0.04129161403172916,0.04061591039479531,0.040502499246913126,0.041096709302588894,0.0422908348942995,0.043696362315982396,0.04466084329375172,0.04445504861459666,0.0424845526391709,0.038561660275528264,0.0331700664319104,0.027619745431088864,0.024093535751040982,0.025452230607608033,0.03483248565675702,0.05507091492054929,0.08803456050221373,0.13401777769375833,0.19131813287445218,0.2561346505189039,0.3228544425784444,0.3847297623814767,0.43482761928124747,0.4671118602433257,0.47743681538105065,0.4642503787846237,0.42889200780419623,0.37535184639163327,0.30962083136877316,0.23871840769052532,0.1695888865584486,0.10814351326974773,0.05846632052647044,0.022480555926121755,-2.931344248999331e-19,-0.01089071447868526,-0.013141519052627476,-0.010121946306490638,-0.004945588537613371,1.7213315632047986e-19,0.003268201558263264,0.0044255564227837565,0.0037568350463168983,0.0019959788851741586,-7.60951063810347e-20,-0.0015452448426405627,-0.002208886382532511,-0.0019665772633053816,-0.0010896343255446753,-5.879991594107044e-20,0.000870158890206126,0.0012910011548214195,0.001189250984054006,0.0006797799128110179,1.3239705233429055e-19,-0.0006088776462904221,-0.0009112225859635994,-0.0008445915688298847,-0.00048468545367304564,-2.2535448739186903e-19,0.00039983668389750393,0.0006100663114368271,0.0005753865144634239,0.00033533952866351404,2.4016268980277636e-19,-0.00031558691316264497,-0.0004737064215517483,-0.0004391239531687141,-0.00025134142775931623,-2.6420695238202323e-19,8.318001782911099e-05,0.00016958699474641675,0.0001972101954885088,0.00013480071837782464,2.0161541440266193e-19,-0.00039503109202373163,-0.00052806283490948,-0.00042928725982486213,-0.00021135380295691182,-3.4161885150895253e-19,0.0,0.0,0.0,0.0,0.0,0.0,0.0,0.0,0.0,0.0,0.0,0.0,0.0,0.0,0.0,0.0,0.0,0.0,0.0,0.0,0.0,0.0,0.0,0.0,0.0,0.0,0.0,0.0,0.0,0.0,0.0,0.0,0.0,0.0,0.0,0.0,0.0,0.0,0.0,0.0,0.0,0.0,0.0,0.0,0.0,0.0,0.0,0.0,0.0,0.0,0.0,0.0,0.0,0.0,0.0,0.0,0.0,0.0,0.0,0.0,0.0,0.0,0.0,0.0,0.0,0.0,0.0,0.0,0.0,0.0,0.0,0.0,0.0,0.0,0.0,0.0,0.0,0.0,0.0,0.0,0.0,0.0,0.0,0.0,0.0,0.0,0.0,0.0,0.0,0.0,0.0,0.0,0.0,0.0,0.0,0.0,0.0,0.0,0.0,0.0,0.0,0.0,0.0,0.0,0.0,0.0,0.0,0.0,0.0,0.0,0.0,0.0,0.0,0.0,0.0,0.0,0.0,0.0,0.0,0.0,0.0,0.0,0.0,0.0,0.0,0.0,0.0,0.0,0.0,0.0,0.0,0.0,0.0,0.0
0.47743681538105065,0.4978488259822115,0.47056782834425975,0.4023220088210213,0.30693305389875897,0.2015970600287796,0.10272378411181635,0.022506737054755862,-0.0329513503828892,-0.06366492591922053,-0.07424269532349148,-0.07153096375733216,-0.06223052690110934,-0.05124911660956579,-0.04107155106379231,-0.0321105025289768,-0.0236659305928419,-0.014957383533550146,-0.0058663482510222,0.0028801974601562925,0.010021690265537848,0.014337611344298158,0.015215401520163601,0.012914176682920395,0.008483433491635583,0.0033836740545338333,-0.0010188690901473533,-0.00382985761202047,-0.004832576104277492,-0.004405053167139415,-0.0032543421564701983,-0.002106910353695847,-0.0014136988566047393,-0.001282578508266155,-0.0015293117355622621,-0.0018384502295023305,-0.0019929237354872733,-0.0018319702395518055,-0.0013980635799554651,-0.0008586329710976588,-0.0004225583025344691,-0.0003554280397745621,-0.0006611047644689038,-0.0012910288037566958,-0.0021309182680839755,-0.0030512575624609558,-0.00398730095388895,-0.004814401369966838,-0.005438305569196282,-0.005759964624281808,-0.005679956822387444,-0.005361993581562826,-0.0043261563295180884,-0.0026937828566835575,-0.0007011668545627196,0.0013898510227161676,0.0032687479136382803,0.004991089149890074,0.006467427044458349,0.007636078336073112,0.00845965886781978,0.008971953695241333,0.009104597355657548,0.008905029784025699,0.008459477987399482,0.00788292472286219,0.007327899676158253,0.006891856714144925,0.006694037361918344,0.006821413272418948,0.0073061905779046015,0.008105187886243623,0.009118422552703379,0.010181818995662431,0.011117316470040392,0.011791170570365463,0.01217630273983751,0.01241291372899753,0.01282599100239879,0.013912552615454736,0.016276150562826323,0.020516989642080884,0.027084429613187723,0.03614248513236946,0.04745537023832321,0.060339375206977276,0.07370062546046156,0.08615723177623785,0.0962423160128077,0.10263803178015597,0.10440259985112822,0.1011419415908949,0.09308779064559734,0.08106748274813282,0.06636763027636294,0.05052132724714075,0.03506333946304965,0.021292736969431923,0.010107548727561316,0.001915038006749835,-0.003359945356846723,-0.006179362074782574,-0.007253257966449831,-0.00735371891209934,-0.007164018578294899,-0.0071664247975373055,-0.007590507106946795,-0.008419665077643055,-0.009454635692217033,-0.01040244189095063,-0.010972904238227887,-0.01096346079110996,-0.010290774463005217,-0.00902188021050712,-0.007338894423990586,-0.005486452119113944,-0.003714899056478078,-0.0022118705266007837,-0.0010898643385732956,-0.00037069620593265635,4.06016570748447e-20,0.00011893562644279458,0.00010462145207038964,4.900547648224339e-05,7.964317151038349e-06,-5.763482080057783e-20,1.032856549262011e-05,2.9723165188555813e-05,3.853538699499716e-05,2.738460811805882e-05,5.826503266513072e-20,-3.908200078065117e-05,-5.9891405879398626e-05,-5.615002024638105e-05,-3.2255534790943784e-05,-6.284768178859232e-20,-3.751111563397272e-06,4.554302315325616e-06,1.3186219182973033e-05,1.2383445950690824e-05,4.0246861420566045e-20,-7.165581992112994e-05,-9.327273484061713e-05,-7.315021528045483e-05,-3.424346855870268e-05,-6.89362959611058e-20,-9.635327204550155e-06,-1.4930224531275104e-05,-1.4281260154171732e-05,-8.429715343579256e-06,-6.600444337042268e-21,9.370757229612998e-06,1.3717951596749049e-05,1.239363907175667e-05,6.909569172970695e-06,7.90356776942262e-21,-1.9117218043699897e-06,-3.897608633125832e-06,-4.532471146303429e-06,-3.098117544252753e-06,-4.633716051882927e-21,9.078978001391545e-06,1.2136439278576095e-05,9.866285634026592e-06,4.857532903868156e-06,7.851407396367925e-21,0.0,0.0,0.0,0.0,0.0,0.0,0.0,0.0,0.0,0.0,0.0,0.0,0.0,0.0,0.0,0.0,0.0,0.0,0.0,0.0,0.0,0.0,0.0,0.0,0.0,0.0,0.0,0.0,0.0,0.0,0.0,0.0,0.0,0.0,0.0,0.0,0.0,0.0,0.0,0.0,0.0,0.0,0.0,0.0,0.0,0.0,0.0,0.0,0.0,0.0,0.0,0.0,0.0,0.0,0.0,0.0,0.0,0.0,0.0,0.0,0.0,0.0,0.0,0.0,0.0,0.0,0.0,0.0,0.0,0.0,0.0,0.0,0.0,0.0,0.0,0.0,0.0,0.0,0.0,0.0,0.0,0.0,0.0,0.0,0.0,0.0,0.0,0.0,0.0,0.0,0.0,0.0,0.0,0.0,0.0,0.0,0.0,0.0,0.0,0.0,0.0,0.0,0.0,0.0,0.0,0.0,0.0,0.0,0.0,0.0,0.0,0.0,0.0,0.0,0.0,0.0,0.0,0.0,0.0,0.0,0.0,0.0,0.0,0.0,0.0,0.0,0.0,0.0,0.0,0.0,0.0,0.0,0.0,0.0
0.5184181856314884,0.5425358117717108,0.5159879009071566,0.44607875472186637,0.347650411539933,0.23904281389496365,0.13757964724594793,0.05596270434138131,0.0002563552507886998,-0.03005275214382078,-0.04033255784156111,-0.03821184230809111,-0.030907871670461468,-0.023478894063764823,-0.018160324929521365,-0.014802086685188042,-0.012026331659402145,-0.008297441019542304,-0.002900629622385911,0.0038158308835714973,0.010728384471184994,0.016467704361281095,0.02024259660842374,0.022003749766668485,0.02243796434433726,0.02260759593395991,0.02341530049877479,0.02537524075210753,0.028344048045742254,0.03166818528877014,0.03448680739673481,0.036046988082990755,0.036050706272549186,0.03465569107552602,0.0323834540888808,0.029896020594436953,0.027737455024612227,0.026249508093990275,0.025478109002706573,0.025252475369012786,0.025305233792139087,0.025372505417117237,0.025315125384959197,0.0250937120808541,0.024746100437904005,0.02434039297491996,0.023918823659103774,0.02355234247059061,0.02329859574143182,0.02322008632734333,0.02337555215770083,0.023502785974588672,0.024096641595508273,0.024999736876081702,0.025961231714470262,0.026751355153955037,0.027108456978352246,0.027356315976712932,0.027716521928774145,0.028514734044604126,0.030127158150209245,0.03289125668445331,0.0370411145527489,0.04265637190965207,0.04958226090392869,0.057404035708472884,0.06546449782466547,0.07296631806232542,0.07909517568879097,0.08315303402551635,0.08468091326673653,0.08353553608829799,0.07993368906659593,0.07438336778312818,0.06759834308860865,0.06036932992963177,0.05341705953144857,0.04732311432958134,0.042400998159912225,0.03870272610051893,0.03605774659252699,0.0341319886967588,0.03259014882663728,0.031096868572359687,0.029420597545513724,0.027474794645898973,0.02530651230482168,0.023125832865620873,0.021175819916811306,0.019700663572382288,0.018891842699270953,0.01883498786126188,0.019539786607976912,0.02087737900471329,0.02263060915320489,0.024538831595131743,0.026337438342773453,0.02785468896830199,0.028984656408585836,0.02972767894971007,0.03018582049099253,0.030522484111127936,0.03096175588584419,0.03167282324476314,0.03274266113577809,0.034144126639362095,0.03571337957150772,0.03721966303966464,0.03833653259273459,0.038725621470942044,0.03810243278773166,0.03627865548348115,0.0332600875559865,0.02918075269783224,0.02431718107244183,0.01905121639386583,0.01378427564218888,0.008985576015159556,0.004982038630229016,0.0019699736754623834,2.287179209168274e-20,-0.0010574462416732954,-0.0013146441195788288,-0.0010399925823856748,-0.0005200829445577869,-6.67082766905222e-20,0.00032719333457839096,0.00045496583849391546,0.00039646916796385527,0.00021607347578005815,2.0690829467584146e-20,-0.00019143176807776463,-0.0002743848066329598,-0.0002441856436864859,-0.00013485917707739493,-4.6058852142534115e-20,9.475065916258665e-05,0.00014285053329481762,0.00013352161025925713,7.731644315722307e-05,3.00601844415185e-20,-7.789185978176593e-05,-0.00011486371992681585,-0.00010476447856585342,-5.909239484630654e-05,-4.2822773878371526e-20,3.668418306719613e-05,5.8421776463085196e-05,5.7239747817530284e-05,3.450005511215938e-05,3.073966751756672e-20,-4.786149517664533e-05,-6.811674514758584e-05,-5.9686903537023206e-05,-3.219080635842684e-05,-4.0695068726817517e-20,6.638283719462447e-06,1.3534098881422808e-05,1.573860242147252e-05,1.0757937273081235e-05,1.6090166339847344e-20,-3.152594259176577e-05,-4.214270459805032e-05,-3.4259798233304635e-05,-1.6867350426610692e-05,-2.7263312985726173e-20,0.0,0.0,0.0,0.0,0.0,0.0,0.0,0.0,0.0,0.0,0.0,0.0,0.0,0.0,0.0,0.0,0.0,0.0,0.0,0.0,0.0,0.0,0.0,0.0,0.0,0.0,0.0,0.0,0.0,0.0,0.0,0.0,0.0,0.0,0.0,0.0,0.0,0.0,0.0,0.0,0.0,0.0,0.0,0.0,0.0,0.0,0.0,0.0,0.0,0.0,0.0,0.0,0.0,0.0,0.0,0.0,0.0,0.0,0.0,0.0,0.0,0.0,0.0,0.0,0.0,0.0,0.0,0.0,0.0,0.0,0.0,0.0,0.0,0.0,0.0,0.0,0.0,0.0,0.0,0.0,0.0,0.0,0.0,0.0,0.0,0.0,0.0,0.0,0.0,0.0,0.0,0.0,0.0,0.0,0.0,0.0,0.0,0.0,0.0,0.0,0.0,0.0,0.0,0.0,0.0,0.0,0.0,0.0,0.0,0.0,0.0,0.0,0.0,0.0,0.0,0.0,0.0,0.0,0.0,0.0,0.0,0.0,0.0,0.0,0.0,0.0,0.0,0.0,0.0,0.0,0.0,0.0,0.0,0.0
0.4411691300247718,0.4619472969191299,0.43973102606113706,0.3807216154396868,0.2975182722644123,0.2056847865239912,0.11988036571102613,0.050907879510466866,0.003927680803880144,-0.0214691355781107,-0.029799556976789512,-0.027534885912490085,-0.02071140608646309,-0.013557665624848371,-0.007929402016418542,-0.0037098397687567453,0.0001631839900996421,0.004823820180423322,0.010611223522291298,0.01689783254052459,0.022379877439276,0.025599057034713237,0.025685336818460507,0.022579353873277475,0.017065562145680786,0.010476658634583321,0.004197427841179371,-0.000562552547628488,-0.003126904547733159,-0.0033401498881316626,-0.0014265601701093623,0.0021551024988169997,0.007062584991756999,0.013006424808362959,0.019751199630582736,0.027025457547066634,0.03438479059394569,0.04138094633771866,0.04749419428225237,0.052280011667671336,0.055477475264242626,0.05700952151608028,0.057150178695477734,0.056313559395329116,0.05497195888044377,0.05354419990086599,0.0522504305614492,0.051323471060903694,0.05086937499990595,0.050950435528983214,0.05161092453748935,0.052560780988594354,0.054300645134693175,0.05675176462042432,0.05972861762624434,0.06298276184452758,0.06587402569269508,0.0685819047936847,0.07098044415901827,0.07295134832457925,0.07435459915156582,0.07459755111999272,0.07388833084992949,0.07236946991097494,0.07031997127044422,0.0680882089369281,0.06578765318381634,0.06385381562563082,0.06250939493853071,0.06184707453624882,0.06182181872229036,0.062266184937590986,0.06298844809170298,0.0637799307003062,0.06449435994717143,0.065081531597492,0.06557899615992464,0.06609502627531656,0.06672291947491932,0.06749356612174322,0.06834124447269364,0.06910703235431505,0.06957835581664606,0.06956452978009003,0.06897587362645621,0.0678870019904609,0.06654562757089792,0.06539377080288715,0.06491082375092987,0.0655150277545688,0.06743275950822814,0.07056869460960238,0.07458251638577904,0.07881049292194017,0.08249299106957603,0.08503895608626756,0.08629455926502799,0.0869012411912946,0.08828394097132529,0.09263844223587865,0.10264515266430699,0.12094570732227278,0.14961291374324193,0.18937664355809802,0.2391788710081851,0.2959684529709693,0.3548391343578406,0.4097143932458979,0.4540614760068752,0.4819957355090568,0.4892917532776315,0.47410978908691637,0.43749910340634296,0.3830775936529153,0.3165204429902792,0.24464587663881576,0.17431104077960272,0.11153013377850758,0.06052127825441233,0.02336335955089721,-2.8952032194962234e-19,-0.011428344467886493,-0.01385095934095898,-0.010714894486650202,-0.00525768581242346,1.3690629496917773e-19,0.0034905558878431317,0.004747339640550144,0.004047380698694109,0.002159377873156754,-4.224006192800174e-20,-0.0016964181757028393,-0.0024302554836124046,-0.002167512263651703,-0.0012026467508403976,-1.1522678623333395e-19,0.0009511780538986837,0.001415425275280052,0.00130739698763775,0.000749104614791214,1.7747200533538352e-19,-0.0006841412279932936,-0.0010215174737947365,-0.0009444089289826034,-0.0005404671610873004,-2.817415768397826e-19,0.0004214285571146788,0.0006489945373085245,0.0006173270439832224,0.0003625683376516399,2.743971984379443e-19,-0.0003788156174868141,-0.0005595154427178433,-0.0005102236419325637,-0.00028721905763929494,-3.1867023239152255e-19,8.524540934026531e-05,0.00017379790439145957,0.00020210699972473634,0.00013814787153673675,2.066216019016911e-19,-0.0004048398644356836,-0.000541174836145388,-0.00043994662592539076,-0.0002166017983513613,-3.5010137765371087e-19,0.0,0.0,0.0,0.0,0.0,0.0,0.0,0.0,0.0,0.0,0.0,0.0,0.0,0.0,0.0,0.0,0.0,0.0,0.0,0.0,0.0,0.0,0.0,0.0,0.0,0.0,0.0,0.0,0.0,0.0,0.0,0.0,0.0,0.0,0.0,0.0,0.0,0.0,0.0,0.0,0.0,0.0,0.0,0.0,0.0,0.0,0.0,0.0,0.0,0.0,0.0,0.0,0.0,0.0,0.0,0.0,0.0,0.0,0.0,0.0,0.0,0.0,0.0,0.0,0.0,0.0,0.0,0.0,0.0,0.0,0.0,0.0,0.0,0.0,0.0,0.0,0.0,0.0,0.0,0.0,0.0,0.0,0.0,0.0,0.0,0.0,0.0,0.0,0.0,0.0,0.0,0.0,0.0,0.0,0.0,0.0,0.0,0.0,0.0,0.0,0.0,0.0,0.0,0.0,0.0,0.0,0.0,0.0,0.0,0.0,0.0,0.0,0.0,0.0,0.0,0.0,0.0,0.0,0.0,0.0,0.0,0.0,0.0,0.0,0.0,0.0,0.0,0.0,0.0,0.0,0.0,0.0,0.0,0.0
0.4892917532776315,0.5128106775374195,0.48874537442679583,0.42389163070919456,0.3321508719437514,0.23074725874506827,0.13592960204379054,0.05976206172187637,0.008076536249246879,-0.019466661008064264,-0.027797235787495066,-0.024093511650426475,-0.015102301479850479,-0.005639258644388692,0.00208124479826069,0.008055404554530174,0.013387787571396295,0.01944209863058768,0.026851937968542593,0.035326030932298254,0.043908044896555386,0.05142504225171881,0.05728675556470796,0.061549831449529614,0.06488866552888554,0.06823641210695373,0.07225569588311288,0.07723888768740456,0.0828338718077619,0.08824683892019106,0.09256477931735207,0.0950334296267407,0.09549097400070378,0.09425759572918493,0.09202464536871377,0.08959401841716856,0.08752745742897537,0.0862516376654054,0.08582132502417235,0.08604654117913657,0.08662325751698507,0.08714624108911115,0.08752851676781194,0.0877577345695308,0.08791200274177971,0.08808538116609384,0.08822795771409377,0.08842792836840316,0.08869915258525599,0.08906082467356756,0.08954750481520257,0.08986055219024901,0.09057640957734213,0.09165971284433408,0.09298822152627216,0.09440833095719665,0.09542855845100208,0.09638915378804007,0.09732740786505224,0.09828554737827154,0.09926915709919074,0.0998553508819603,0.10026195223930455,0.10058338794966915,0.1009555720177672,0.10149728967608078,0.10205053367088229,0.10270956818664176,0.1033575304331033,0.10378596416555026,0.10372542225297082,0.10287786023945164,0.1010726403757245,0.0982214024115593,0.09441290235876607,0.08993650298095983,0.08522747701025003,0.080939849278865,0.07767780392301135,0.07596206233894147,0.07614758370894885,0.07832003574276976,0.08245934863087623,0.08822119028460303,0.09508640354403534,0.1024508506268398,0.10966811121897077,0.1162944714072219,0.12189324779837049,0.1261282444966756,0.12875411754473076,0.12955034292003378,0.12847918232283898,0.12547915539594068,0.12061551007917588,0.1141983175299774,0.10687175228938808,0.09989535377323779,0.09494502558949691,0.09410657027891033,0.09964251751522406,0.1135692343642738,0.1373643500416428,0.171265720091513,0.21400766027613266,0.26270286289030004,0.31296841389254676,0.35959034087363645,0.39700415960645874,0.420241943537379,0.42576320826537606,0.4120314864094699,0.3800018971478097,0.33275627721432854,0.2751154635825809,0.21288160413268803,0.1518922083503044,0.09736110095848086,0.052947543651941875,0.02049118621800938,-2.111881882451465e-19,-0.010108246899095716,-0.012289842277335788,-0.009536557462147453,-0.00469325139764025,4.9091054496561057e-20,0.003116088555742493,0.004251258049833621,0.003635563884455708,0.0019454235219979413,5.500410160717785e-21,-0.0015440083076188934,-0.002215046347814064,-0.001977739646924716,-0.0010982136977458513,-1.5116337120672727e-19,0.0008484033719012296,0.001269466214663572,0.0011787249919600678,0.0006786672252214205,1.8889734940509992e-19,-0.0006594966192009295,-0.0009758041238679231,-0.0008936172028758647,-0.0005064177736676975,-3.004771321244604e-19,0.0003685099871402384,0.0005683978630681569,0.0005414393584427719,0.0003184083454694157,2.43130018680889e-19,-0.0003381736023737789,-0.00049828858147468,-0.0004532606937111706,-0.00025449770927424504,-2.846823184654401e-19,7.417733637953353e-05,0.00015123237387064652,0.0001758658796909403,0.00012021106140969363,1.7979431603597616e-19,-0.00035227636346050074,-0.00047090990789499403,-0.00038282494169329965,-0.0001884787061387442,-3.0464499916350096e-19,0.0,0.0,0.0,0.0,0.0,0.0,0.0,0.0,0.0,0.0,0.0,0.0,0.0,0.0,0.0,0.0,0.0,0.0,0.0,0.0,0.0,0.0,0.0,0.0,0.0,0.0,0.0,0.0,0.0,0.0,0.0,0.0,0.0,0.0,0.0,0.0,0.0,0.0,0.0,0.0,0.0,0.0,0.0,0.0,0.0,0.0,0.0,0.0,0.0,0.0,0.0,0.0,0.0,0.0,0.0,0.0,0.0,0.0,0.0,0.0,0.0,0.0,0.0,0.0,0.0,0.0,0.0,0.0,0.0,0.0,0.0,0.0,0.0,0.0,0.0,0.0,0.0,0.0,0.0,0.0,0.0,0.0,0.0,0.0,0.0,0.0,0.0,0.0,0.0,0.0,0.0,0.0,0.0,0.0,0.0,0.0,0.0,0.0,0.0,0.0,0.0,0.0,0.0,0.0,0.0,0.0,0.0,0.0,0.0,0.0,0.0,0.0,0.0,0.0,0.0,0.0,0.0,0.0,0.0,0.0,0.0,0.0,0.0,0.0,0.0,0.0,0.0,0.0,0.0,0.0,0.0,0.0,0.0,0.0
0.42576320826537606,0.45001954779049996,0.43505737691513213,0.38675820714444187,0.31684609187661605,0.23961358390094875,0.16826479282385232,0.11227064166253833,0.07575217901798989,0.05769843766423354,0.05346395953652135,0.056843081654269,0.06241417125962248,0.06670518955114245,0.06862526429576976,0.06894949366251367,0.06920177922061874,0.07085036097330653,0.07441428921236547,0.0793587758596284,0.08443502778850596,0.08820332778322738,0.08985672252842562,0.08934890583967389,0.08738719029126367,0.08507718725727512,0.08336260993649794,0.08287114404659628,0.08355246173086325,0.08480025964487298,0.08571934672604428,0.0853815557046781,0.08334806704106326,0.07961595593786785,0.07461904558235537,0.06905333614414554,0.06357564133557954,0.058867836032564055,0.05534901978339111,0.05319864221823465,0.052387325562246796,0.05264812987278832,0.05378087376266709,0.055505417961643704,0.05753509099924656,0.05960041332866495,0.06116148333169434,0.06240670417850541,0.06353964136484443,0.06489590030207289,0.0668135010950831,0.06871405893373819,0.0715181617681905,0.0752479653801544,0.07974957835879307,0.08473271055035558,0.08941618711995226,0.09384763208292216,0.09770558368963328,0.10070834894293376,0.10265192000562806,0.10343258104323412,0.10312393487198027,0.1018844134407317,0.09998826436137033,0.09779491184433826,0.09566546743937022,0.09399918279165935,0.09300131609586437,0.0926982168839968,0.09293790368304844,0.09339199027715625,0.09380482735462274,0.09387619770016857,0.09344034571946379,0.09253551208654963,0.0913682351411542,0.09041802563919184,0.09009358750475403,0.09066484829072857,0.09213312049005083,0.09411280175212572,0.09602089581050746,0.09699388731572188,0.0962286223874726,0.09332692813661442,0.08860961794987852,0.0835131402146991,0.08048748061247706,0.08288709381317318,0.09452073578317803,0.11892956388242842,0.15865766123274935,0.2143106844717428,0.28402074745091216,0.36325447139032085,0.4450828860945855,0.5210970712445175,0.5824431705666501,0.6212595355944763,0.6319882069974636,0.6123145340053545,0.5637337047241557,0.4911811245731951,0.40231024859814657,0.30627761158965283,0.21228837568595313,0.1284252587403503,0.06040348994986203,0.011104925230030304,-0.01943298381815803,-0.03361001776380731,-0.035271644374571906,-0.02904421407809661,-0.019349890515333496,-0.009716491909079014,-0.002441649532717695,0.0016595981323706318,0.002783100069604809,0.0018370796481846962,-4.4696563094566095e-20,-0.0017191676343489436,-0.0025597449177920725,-0.0023452141388725445,-0.0013269803064986552,-1.5003628996573537e-19,0.0010692363692035487,0.0016086520263135172,0.001499219295363628,0.0008653747571046421,2.183093369925094e-19,-0.000806168819386735,-0.0012063406594357725,-0.001117128018759484,-0.0006401018335566572,-3.4866045504227905e-19,0.0005037539971519551,0.0007745866286907102,0.0007356137680533982,0.00043134516524232733,3.343574138206556e-19,-0.0004352951710632027,-0.0006467033036961015,-0.0005931848163401803,-0.00033586940728371395,-3.771437749462822e-19,9.407883895985978e-05,0.00020015634637459318,0.00023821506326961444,0.00016518821244541462,2.5770390636501225e-19,-0.0005112346900649897,-0.0006812893770855707,-0.0005516533753589101,-0.0002701686287391157,-4.424650313827636e-19,-3.3856541607020838e-06,-6.902654379610221e-06,-8.026994178581054e-06,-5.486757816993251e-06,-8.206298633361854e-21,1.60788455595734e-05,2.149360123721592e-05,1.747316525404474e-05,8.602677674719683e-06,1.3904821328143208e-20,0.0,0.0,0.0,0.0,0.0,0.0,0.0,0.0,0.0,0.0,0.0,0.0,0.0,0.0,0.0,0.0,0.0,0.0,0.0,0.0,0.0,0.0,0.0,0.0,0.0,0.0,0.0,0.0,0.0,0.0,0.0,0.0,0.0,0.0,0.0,0.0,0.0,0.0,0.0,0.0,0.0,0.0,0.0,0.0,0.0,0.0,0.0,0.0,0.0,0.0,0.0,0.0,0.0,0.0,0.0,0.0,0.0,0.0,0.0,0.0,0.0,0.0,0.0,0.0,0.0,0.0,0.0,0.0,0.0,0.0,0.0,0.0,0.0,0.0,0.0,0.0,0.0,0.0,0.0,0.0,0.0,0.0,0.0,0.0,0.0,0.0,0.0,0.0,0.0,0.0,0.0,0.0,0.0,0.0,0.0,0.0,0.0,0.0,0.0,0.0,0.0,0.0,0.0,0.0,0.0,0.0,0.0,0.0,0.0,0.0,0.0,0.0,0.0,0.0,0.0,0.0,0.0,0.0,0.0,0.0,0.0,0.0,0.0,0.0,0.0,0.0,0.0,0.0,0.0,0.0,0.0,0.0,0.0,0.0
0.6319882069974636,0.6629542551114788,0.632967313111429,0.5508787955316746,0.43461638517412754,0.30627761158965283,0.18662256348503914,0.09084795342999025,0.026085874233099268,-0.008466655176165848,-0.01943298381815804,-0.016159210618159513,-0.007294309735720425,0.0011774740826824607,0.006744555181096338,0.009799481260041473,0.012186254202340902,0.015933056805639872,0.022029137999364883,0.030152192300895633,0.03903194633824095,0.047126736236082545,0.05352836424266269,0.05819755995145737,0.06190724271794439,0.06577578831540713,0.07061336459627773,0.07662987188505675,0.08316971511706821,0.08895218556302638,0.0925196302925733,0.09268803549217922,0.08905845739591034,0.08202103245759851,0.07263483099848635,0.06230344121193843,0.05234055829237224,0.04388412735863023,0.03759947626331466,0.03371089681208232,0.032087252131303555,0.03227575396380706,0.033867651552065677,0.03637970995757065,0.039345538296561004,0.04234789278199402,0.04497531800269232,0.0471362669391301,0.04890829165548506,0.050584616899798464,0.052608533432684484,0.05504265000027296,0.05893881138198092,0.06438873622524466,0.07114105384938554,0.07867776120600845,0.08608287260167903,0.09300203394224213,0.09876227743037568,0.10279925647563466,0.10474698897933238,0.10442738713314308,0.10205285299214555,0.09806907694872782,0.09309397723736128,0.08779843290706525,0.08273999238010085,0.07839664831906512,0.07499787234718014,0.07254563615668787,0.07084987683479813,0.06957771549197947,0.06841709545979499,0.0670619336066683,0.06532157790498712,0.06316854896864228,0.0607173324075897,0.05833126030260931,0.0563996770240413,0.05533211904313506,0.05548722110248647,0.057056076478876755,0.06018956133202318,0.06472980876706222,0.07031029723460158,0.07641351427796485,0.08242515653490266,0.08785626262281317,0.09227555521789041,0.09544152496065554,0.09733980745344323,0.09815279634506612,0.09825953204398047,0.09805539541870605,0.09787931839880272,0.09793367489864228,0.09822483825735197,0.09866164682724282,0.09900828984574792,0.09901773360746557,0.09852754234384133,0.09749692597077989,0.0961218002618581,0.09465251493956268,0.09335667055068257,0.09241814896062557,0.09180770624107644,0.09138949368038359,0.0907273687563158,0.0892357768273486,0.08630875557740979,0.08141071077047271,0.07440896266809181,0.06538076867708564,0.0547318832654915,0.043154377788704894,0.03147632502467967,0.0206884800350326,0.011561462257582776,0.004604426458887114,-8.078113888828735e-21,-0.002433890358885309,-0.003045650497667975,-0.0024293188320987976,-0.0012271043175293758,-7.137063892379726e-20,0.0008342484901185331,0.0011673884393085783,0.00102276425539791,0.0005599145424899572,6.776102793252418e-20,-0.0004796410007318931,-0.0006948687264226542,-0.0006252237369242155,-0.0003491795013607472,-1.24147805316025e-19,0.000248997637669698,0.00038070264153192515,0.0003604095016360685,0.0002110926459038615,1.0536383598293226e-19,-0.00023968057568377694,-0.00034799976409743635,-0.0003121093667534931,-0.00017290062439672614,-1.5114194123734973e-19,8.834919263126287e-05,0.00014304550409013396,0.00014211247336300332,8.666173099955616e-05,8.236330061091667e-20,-0.00013336194951471596,-0.00018764495992158877,-0.0001623119545924152,-8.626539029236241e-05,-1.1375560990355486e-19,1.5036887806834731e-05,3.0657129921985674e-05,3.5650720705746546e-05,2.4368632412322957e-05,3.644707521859064e-20,-7.14118410406663e-05,-9.546068648129084e-05,-7.760450804605168e-05,-3.820753476081464e-05,-6.17562303652461e-20,0.0,0.0,0.0,0.0,0.0,0.0,0.0,0.0,0.0,0.0,0.0,0.0,0.0,0.0,0.0,0.0,0.0,0.0,0.0,0.0,0.0,0.0,0.0,0.0,0.0,0.0,0.0,0.0,0.0,0.0,0.0,0.0,0.0,0.0,0.0,0.0,0.0,0.0,0.0,0.0,0.0,0.0,0.0,0.0,0.0,0.0,0.0,0.0,0.0,0.0,0.0,0.0,0.0,0.0,0.0,0.0,0.0,0.0,0.0,0.0,0.0,0.0,0.0,0.0,0.0,0.0,0.0,0.0,0.0,0.0,0.0,0.0,0.0,0.0,0.0,0.0,0.0,0.0,0.0,0.0,0.0,0.0,0.0,0.0,0.0,0.0,0.0,0.0,0.0,0.0,0.0,0.0,0.0,0.0,0.0,0.0,0.0,0.0,0.0,0.0,0.0,0.0,0.0,0.0,0.0,0.0,0.0,0.0,0.0,0.0,0.0,0.0,0.0,0.0,0.0,0.0,0.0,0.0,0.0,0.0,0.0,0.0,0.0,0.0,0.0,0.0,0.0,0.0,0.0,0.0,0.0,0.0,0.0,0.0
0.35166797296863817,0.37033923092958604,0.3557966657533735,0.31288109739930436,0.2513851107437251,0.1833556657682378,0.12006848028191414,0.06977039880818543,0.036311562676954706,0.019253366446857947,0.015043358567837447,0.018681975125503757,0.02563334943864059,0.03279452976220364,0.038884509503597564,0.04407370267252683,0.049121976564607116,0.05480058615297008,0.06119553948512345,0.0676597475692064,0.0731040467772162,0.07640298756282068,0.07708462219141544,0.07536448172267564,0.0721020304302818,0.06846557918687152,0.06544046941890419,0.06367797744779759,0.06319948592065894,0.06350761085333434,0.06382711159652683,0.06335675591217439,0.061666102305297496,0.05870280383115074,0.05478662046142842,0.05046115972335134,0.04625191375629129,0.04265694436411959,0.03993864482302327,0.0381344447040569,0.037095207850175865,0.03650033815718028,0.03609032960785301,0.0356098011136505,0.0348820814303404,0.033839473018976066,0.032491273963775096,0.03109155692077276,0.030005085669473713,0.029685015604332274,0.030583738187776262,0.03281086245339224,0.03688804376284309,0.04266133430369797,0.049682698865726516,0.05731091979863955,0.06450041823653796,0.07102453268408303,0.07652859727645135,0.08086069878589845,0.08403810140950284,0.08573317956106906,0.08655002217559042,0.08692663721590262,0.08729923042607365,0.08798600154065331,0.08884759562202708,0.08998498001450944,0.0911433840253812,0.09193590677945467,0.09193390167180379,0.09073478918681627,0.08820413084066549,0.08435397958755404,0.07943615655212376,0.073914985090102,0.06834962814526885,0.06340898062054343,0.059566611573357194,0.05706863571563732,0.05589606850840022,0.055758790695361014,0.05630613724125328,0.05708235794379579,0.057715481983103056,0.058019124317054305,0.058006227029828654,0.05795248750894622,0.05816209458084407,0.05887637041139579,0.060142180125708385,0.061709385887050716,0.06310690420986509,0.06365732341675645,0.06272820651397976,0.060018992184772,0.05583386704318517,0.05136140582569162,0.04864308745357317,0.05044937834138516,0.05989580424383563,0.07984944392329861,0.11231096620002405,0.15769361898738674,0.21440183465308213,0.2787055822577821,0.3449833642946357,0.40650091555409945,0.4562282681195892,0.4879946636044451,0.4975153602717285,0.483090100486328,0.4460726140301706,0.3904558660440782,0.32229958364981276,0.24875768013586425,0.17692501250569473,0.11297865377137944,0.06117852982371452,0.023565848898563918,-2.7898519426575802e-19,-0.011491986138273784,-0.013896657849443578,-0.01072478881500058,-0.005249520403525512,1.2783752885728649e-19,0.0034622110428981917,0.004696955768247045,0.003994550297249107,0.0021260907006977244,-6.180572132254935e-20,-0.0016571127877426893,-0.0023708195484496083,-0.0021121615414854394,-0.0011708770180740655,-8.666741426968309e-20,0.0009290164687042329,0.0013805455793465347,0.0012736325046968124,0.0007289948545086827,1.5589590001970773e-19,-0.0006619566700439197,-0.0009888308799610116,-0.0009147193178983201,-0.0005238450043959144,-2.5815941453287477e-19,0.00042076313401238864,0.0006441048109689616,0.0006093319014914243,0.00035610503417880823,2.6022801963413565e-19,-0.00034838422608631566,-0.0005197288386567438,-0.0004788097927290939,-0.000272358220868299,-2.922034613496385e-19,8.667814295935721e-05,0.0001767189543632583,0.0002055038453191258,0.00014046974554131347,2.100943251575972e-19,-0.00041164407464025146,-0.0005502704506488871,-0.00044734088124597155,-0.00022024226041090787,-3.5598558910552824e-19,0.0,0.0,0.0,0.0,0.0,0.0,0.0,0.0,0.0,0.0,0.0,0.0,0.0,0.0,0.0,0.0,0.0,0.0,0.0,0.0,0.0,0.0,0.0,0.0,0.0,0.0,0.0,0.0,0.0,0.0,0.0,0.0,0.0,0.0,0.0,0.0,0.0,0.0,0.0,0.0,0.0,0.0,0.0,0.0,0.0,0.0,0.0,0.0,0.0,0.0,0.0,0.0,0.0,0.0,0.0,0.0,0.0,0.0,0.0,0.0,0.0,0.0,0.0,0.0,0.0,0.0,0.0,0.0,0.0,0.0,0.0,0.0,0.0,0.0,0.0,0.0,0.0,0.0,0.0,0.0,0.0,0.0,0.0,0.0,0.0,0.0,0.0,0.0,0.0,0.0,0.0,0.0,0.0,0.0,0.0,0.0,0.0,0.0,0.0,0.0,0.0,0.0,0.0,0.0,0.0,0.0,0.0,0.0,0.0,0.0,0.0,0.0,0.0,0.0,0.0,0.0,0.0,0.0,0.0,0.0,0.0,0.0,0.0,0.0,0.0,0.0,0.0,0.0,0.0,0.0,0.0,0.0,0.0,0.0
0.4975153602717285,0.5240630525945994,0.504044331889641,0.4444874635007459,0.3593235092327143,0.2655095162680698,0.17878963826951016,0.11029282263536536,0.06482489166018648,0.04109209824471705,0.03350367226441101,0.034777084732849246,0.03838915803229971,0.04023378842335978,0.03907556644844987,0.03593763463429212,0.032733625813538676,0.03134454242238102,0.032449343309915835,0.0353564433095248,0.03837159700417321,0.03926630106229336,0.0368192792174285,0.030711857579242642,0.021725179646810217,0.011393820178603936,0.0013473052404556723,-0.006895728898292104,-0.012491756376059855,-0.015272324859323755,-0.015583956646965361,-0.01397152455390788,-0.011073633936850413,-0.007369133760022552,-0.0031816266872404554,0.0012575630956250172,0.005758814753775161,0.010014226210369464,0.013687202285675645,0.016456299994733053,0.01809908283821539,0.01857761546790578,0.017983621122472152,0.016558480088384498,0.014620705501694859,0.012504264864931688,0.010561109176061293,0.008977510086832894,0.007866652874000022,0.007223421248229328,0.006909446891647984,0.006468876354907601,0.005900568442358872,0.004627430012747647,0.0021080819475125254,-0.001893164267319037,-0.007141230667482792,-0.012440787026234756,-0.01619901971824831,-0.016361313780948197,-0.01069577542628606,0.0028233255582931875,0.025500173171105932,0.057492597162591974,0.09753786341892305,0.1428984655976711,0.1895790627409285,0.2328135602794138,0.26768528257247237,0.289902025747163,0.2964927066216283,0.28628884883861966,0.2602052941227268,0.22100827433701276,0.17291097363972002,0.12091336517587949,0.07004165137564938,0.02466218767801556,-0.012086681662739745,-0.03857022968617438,-0.0546659762698693,-0.06151933163301461,-0.06116950760610624,-0.056035736953289624,-0.048490410395331536,-0.04052728559202283,-0.033580799482387534,-0.028495100837346753,-0.02561991145388517,-0.02496920985006207,-0.026388594914176364,-0.029689632086890766,-0.034668625662591525,-0.04113635645478415,-0.04883494295051214,-0.05736223688405547,-0.0661364777976708,-0.07439313042231324,-0.08130878442086967,-0.08613157184176935,-0.08833587885393458,-0.08774858162537671,-0.08458704109604281,-0.07943745423963454,-0.07312293792451784,-0.06652280749633371,-0.060382854667423415,-0.05517118213348372,-0.05100287987967617,-0.047663231820711145,-0.044709736138732824,-0.04161684754806873,-0.03795286298152217,-0.03347300563937235,-0.028188432106115408,-0.022354868069366412,-0.01647398821963622,-0.01090251105715833,-0.006106768686168275,-0.0024254313469269616,1.4703978853114942e-19,0.0010857042851553978,0.0013520475838049461,0.0010852961189708023,0.0005578560071898904,-1.9782031841529422e-19,-0.0004820065994405561,-0.0006801206948177701,-0.000600618925638014,-0.00033129496667213426,-4.236100947630134e-20,0.00029867231669704645,0.0004317684638454318,0.00038734048335752817,0.00021553652225001364,8.468986946029117e-20,-0.00015555896261668892,-0.0002353652660565497,-0.00022059580988165672,-0.00012799205040195323,-6.204283852438831e-20,0.00012667432457231636,0.00018768258849488043,0.00017192467010854445,9.735580939701825e-05,7.978907750634846e-20,-5.226460736400582e-05,-8.734840472977634e-05,-8.902295305229964e-05,-5.542298882073497e-05,-5.841576320571127e-20,9.994343286952499e-05,0.000138455379499722,0.0001176161733841714,6.119787351143891e-05,8.561446602317149e-20,-7.789421614222365e-06,-1.5881032931282192e-05,-1.846781714376587e-05,-1.2623460017791035e-05,-1.8880345396594345e-20,3.699282359882613e-05,4.945062729322809e-05,4.020075431168982e-05,1.9792300169770922e-05,3.19910158138769e-20,0.0,0.0,0.0,0.0,0.0,0.0,0.0,0.0,0.0,0.0,0.0,0.0,0.0,0.0,0.0,0.0,0.0,0.0,0.0,0.0,0.0,0.0,0.0,0.0,0.0,0.0,0.0,0.0,0.0,0.0,0.0,0.0,0.0,0.0,0.0,0.0,0.0,0.0,0.0,0.0,0.0,0.0,0.0,0.0,0.0,0.0,0.0,0.0,0.0,0.0,0.0,0.0,0.0,0.0,0.0,0.0,0.0,0.0,0.0,0.0,0.0,0.0,0.0,0.0,0.0,0.0,0.0,0.0,0.0,0.0,0.0,0.0,0.0,0.0,0.0,0.0,0.0,0.0,0.0,0.0,0.0,0.0,0.0,0.0,0.0,0.0,0.0,0.0,0.0,0.0,0.0,0.0,0.0,0.0,0.0,0.0,0.0,0.0,0.0,0.0,0.0,0.0,0.0,0.0,0.0,0.0,0.0,0.0,0.0,0.0,0.0,0.0,0.0,0.0,0.0,0.0,0.0,0.0,0.0,0.0,0.0,0.0,0.0,0.0,0.0,0.0,0.0,0.0,0.0,0.0,0.0,0.0,0.0,0.0
0.5492569546149811,0.5743534120429523,0.5456238816720523,0.47086413862537074,0.36586232725498113,0.2501010040317459,0.14198954363930302,0.054951666725666,-0.004638984381905498,-0.03739330559697916,-0.04905494655148939,-0.04768941861331567,-0.04095546892226415,-0.03416763023047105,-0.02962790049873321,-0.02711100592723695,-0.025061884755030687,-0.02192091825567844,-0.017046872077749357,-0.010993155765380248,-0.00516706530298454,-0.001145127357717601,3.5213814960176766e-05,-0.0017394824280744263,-0.0056689310520631,-0.01040328145437749,-0.014565215269294196,-0.017201246672056348,-0.0180069067785986,-0.017274882737473813,-0.01563949760577046,-0.013750992063466532,-0.012043021854911736,-0.010630637213603255,-0.009380079840213667,-0.008069539742107393,-0.006543647450437386,-0.004828360494716659,-0.003099792101349175,-0.0015960718351983622,-0.0004995818784443375,0.00015823436133157037,0.0004749451333046547,0.0006487860196273519,0.0008809214808300895,0.0012917607501496792,0.001885778456594574,0.002539934319281004,0.0030708110104733554,0.003295424328945595,0.003083103378743695,0.0020990323026220874,0.0008782418132866003,-0.0006019920491722866,-0.002377657940573072,-0.004426578775278667,-0.006772097995533467,-0.008929609014811263,-0.010644120028019555,-0.011695986809172342,-0.011936260929301026,-0.011329018201667526,-0.009927441245202938,-0.007839295710890301,-0.005239434390993183,-0.002358829896275511,0.000526264502238121,0.0031322709190511064,0.005221310224880393,0.006615968160022185,0.0072186011367500035,0.007024042496090149,0.006108396847981033,0.0046295435721200075,0.002797915305338629,0.0008433605022719405,-0.0010161577240307934,-0.0026290352799203747,-0.003907857140334157,-0.004850055443969729,-0.005531880132206121,-0.00607687220255061,-0.006650236106117516,-0.007376970369290394,-0.008321257106080735,-0.009466289751518305,-0.010709414945363413,-0.011897850393435092,-0.01284434245352355,-0.013380490829172888,-0.013400699370830493,-0.012891912805263594,-0.01194170340015838,-0.010717471875196333,-0.009423614045077348,-0.008243439340824445,-0.007280436726747669,-0.006510088093334667,-0.005764529889465398,-0.004747546167271636,-0.0030861793108184,-0.00041165361921707117,0.0035547272853281415,0.008908536927165624,0.015507079814976362,0.022953986815575603,0.030635859526959047,0.03779462620516496,0.043653455165666925,0.047538869733428586,0.0489941529419696,0.047863684883368764,0.0442965958471906,0.03874858117654511,0.03189095506122654,0.0244970764709848,0.017320421222597502,0.01098121685187408,0.005897341899319528,0.002250688914722873,-3.515269075947051e-20,-0.001073991469585105,-0.0012838981496607889,-0.0009790874776622127,-0.0004733878062943566,2.6518860182756904e-20,0.00030739497097863875,0.0004112433163818534,0.00034482912974246726,0.00018096146788201947,-2.1717701682870878e-20,-0.0001320448703751489,-0.00018798300110034818,-0.00016695389874325458,-9.242634110917709e-05,1.2389411536626899e-20,8.071075046300576e-05,0.00011784157833032811,0.00010688557247793792,6.020843966741702e-05,2.9495953077471317e-21,-4.3803330017025074e-05,-6.781602362393696e-05,-6.503061900843012e-05,-3.8593227011300127e-05,-7.093633052612413e-21,3.987046098505011e-05,6.023859099824286e-05,5.6294412558631165e-05,3.253166504153758e-05,2.1832577053869612e-20,-2.687422866446673e-05,-4.1244407293378915e-05,-3.9073589495171166e-05,-2.28438704808555e-05,-2.2346808753980228e-20,8.535861466784096e-06,1.7402870683408774e-05,2.023753964546742e-05,1.3833133097663168e-05,2.0689599399281377e-20,-4.053774890400322e-05,-5.418935126709116e-05,-4.40530872071771e-05,-2.1688944407592988e-05,-3.50566309917497e-20,0.0,0.0,0.0,0.0,0.0,0.0,0.0,0.0,0.0,0.0,0.0,0.0,0.0,0.0,0.0,0.0,0.0,0.0,0.0,0.0,0.0,0.0,0.0,0.0,0.0,0.0,0.0,0.0,0.0,0.0,0.0,0.0,0.0,0.0,0.0,0.0,0.0,0.0,0.0,0.0,0.0,0.0,0.0,0.0,0.0,0.0,0.0,0.0,0.0,0.0,0.0,0.0,0.0,0.0,0.0,0.0,0.0,0.0,0.0,0.0,0.0,0.0,0.0,0.0,0.0,0.0,0.0,0.0,0.0,0.0,0.0,0.0,0.0,0.0,0.0,0.0,0.0,0.0,0.0,0.0,0.0,0.0,0.0,0.0,0.0,0.0,0.0,0.0,0.0,0.0,0.0,0.0,0.0,0.0,0.0,0.0,0.0,0.0,0.0,0.0,0.0,0.0,0.0,0.0,0.0,0.0,0.0,0.0,0.0,0.0,0.0,0.0,0.0,0.0,0.0,0.0,0.0,0.0,0.0,0.0,0.0,0.0,0.0,0.0,0.0,0.0,0.0,0.0,0.0,0.0,0.0,0.0,0.0,0.0
0.6060154240307226,0.6329541076928118,0.599615741318013,0.5143985966315016,0.39471812705120385,0.26232173994379365,0.13783013261766086,0.03695613932502403,-0.03234735045757151,-0.06988467750424171,-0.08137194414313523,-0.07570739087257976,-0.061372968849805545,-0.04475287178607051,-0.029169193514113713,-0.015273281107667153,-0.0024188141967182277,0.010641976624036565,0.024353123698876683,0.03816492317057746,0.050825381927800894,0.06080577242047292,0.06754963879552162,0.07133168478536003,0.07326873163983177,0.074860703995096,0.07716845496086489,0.08106155463876652,0.08650256408709277,0.09279358025250717,0.0988960260623911,0.10354950422187827,0.10637622402172398,0.10740638837281075,0.1071426528280091,0.10633182807449264,0.10542637019438246,0.1052727712194851,0.10639539320444666,0.10915592779508464,0.11376763008659417,0.11998772179055099,0.12802109091388142,0.13777437819506919,0.14896045759064455,0.16104882454151614,0.17296295322050267,0.1841457125555619,0.19397891148682614,0.2020775241852415,0.2083300189964381,0.21222243732903837,0.21495910172181992,0.21703508439580604,0.21890189574492966,0.22090870691367384,0.2227741734460889,0.22507510291003385,0.22778258905957727,0.23069806719003602,0.23348739483090963,0.23544451012262116,0.236439502696926,0.23643746334207344,0.23562721178804347,0.23436354235964246,0.23291459678091755,0.2318548926794768,0.23165184645396983,0.23269249305305464,0.23523968988837532,0.23937634145550984,0.245089070639073,0.2521349375102042,0.2601112697592313,0.26850711637824787,0.27674167330316324,0.2844065952544437,0.291167444202101,0.29691051571441235,0.30177454286812044,0.306062295738029,0.31033059780290934,0.3149881986951656,0.32025344297591424,0.32607794829417924,0.3320986892683353,0.33794348570942523,0.3431158454646262,0.3472761278726943,0.350381353720238,0.3526623313235507,0.35475889471785343,0.35723657413873083,0.3604775696791137,0.36451906861904204,0.36892122744882044,0.37317993477726524,0.37653174715967075,0.3783989125890824,0.37865678351784615,0.37765381771028506,0.3765464157521954,0.37648142879920277,0.3783940691371272,0.38260412443262815,0.38839925285934124,0.39437264300250585,0.39801475184210156,0.3963503915445796,0.3865514653474101,0.36645712163235405,0.33555220255769314,0.2946377048789126,0.24603406579424136,0.19327573267370504,0.14043818466849142,0.09191449816273087,0.051133260167724126,0.020269282970269045,-4.7395252984228297e-20,-0.010576176180190133,-0.013178519109742073,-0.010471877927598024,-0.005271960942971268,-2.5650034144811613e-19,0.0035656614948126643,0.004978544435919406,0.004353789223737194,0.0023799109061439314,2.7269922164793547e-19,-0.002068316410190032,-0.002983808840572689,-0.002673106341233897,-0.0014863080303904562,-5.279459904463459e-19,0.0010486326394045977,0.001596266874020035,0.0015052415588980607,0.0008785681368491363,4.061866416590113e-19,-0.0009650425952691852,-0.0014068624514803792,-0.001267414861182483,-0.0007055455287750707,-5.843054086001065e-19,0.00038478036675816327,0.0006184161651478582,0.0006106144285256232,0.0003704523243279862,3.424377288542713e-19,-0.0005454778817806275,-0.0007711474774119594,-0.0006706434926670025,-0.0003586367832311082,-4.646722400220231e-19,6.734578638181547e-05,0.0001373042446899933,0.00015966906529126857,0.00010913991870786891,1.63235702323821e-19,-0.0003198325779667591,-0.0004275402651277583,-0.00034756770737889983,-0.00017112028148591043,-2.765879450156999e-19,0.0,0.0,0.0,0.0,0.0,0.0,0.0,0.0,0.0,0.0,0.0,0.0,0.0,0.0,0.0,0.0,0.0,0.0,0.0,0.0,0.0,0.0,0.0,0.0,0.0,0.0,0.0,0.0,0.0,0.0,0.0,0.0,0.0,0.0,0.0,0.0,0.0,0.0,0.0,0.0,0.0,0.0,0.0,0.0,0.0,0.0,0.0,0.0,0.0,0.0,0.0,0.0,0.0,0.0,0.0,0.0,0.0,0.0,0.0,0.0,0.0,0.0,0.0,0.0,0.0,0.0,0.0,0.0,0.0,0.0,0.0,0.0,0.0,0.0,0.0,0.0,0.0,0.0,0.0,0.0,0.0,0.0,0.0,0.0,0.0,0.0,0.0,0.0,0.0,0.0,0.0,0.0,0.0,0.0,0.0,0.0,0.0,0.0,0.0,0.0,0.0,0.0,0.0,0.0,0.0,0.0,0.0,0.0,0.0,0.0,0.0,0.0,0.0,0.0,0.0,0.0,0.0,0.0,0.0,0.0,0.0,0.0,0.0,0.0,0.0,0.0,0.0,0.0,0.0,0.0,0.0,0.0,0.0,0.0
1.0006505165814363,1.0697014858828435,1.0527028282852477,0.9630244310739301,0.8269411125027898,0.676086758151349,0.5389024395126689,0.4354609124207307,0.3735013629099241,0.34933970772848155,0.3515229997212618,0.36548882787501635,0.3795744991184987,0.38705913093298644,0.3870083955897617,0.38277041908265863,0.37889637960621064,0.37978594529946785,0.38706835582166166,0.39953290170515876,0.41401783844405554,0.426512074963273,0.43488719430500306,0.43873669004676596,0.43949798377173344,0.43958237926790616,0.4407945276759007,0.44463736122063985,0.45097184585911426,0.4584509988027801,0.4651469200917568,0.4689048628897269,0.46916649134116384,0.46625632859927707,0.46137897592476457,0.45608318435951645,0.45126642688729085,0.44800184880169347,0.4464855047840565,0.4463740466567097,0.447019448627276,0.4473119503096755,0.44710272896437164,0.44633466162301033,0.4451931324481785,0.44394611666265177,0.44241472850155106,0.44107541797842065,0.4401912421471465,0.44003811978327606,0.44087278469802743,0.44198641970029534,0.44469718452490714,0.44888052444214094,0.45413990401538157,0.4599221676242633,0.46493139328828703,0.4696041621098005,0.4736183559192995,0.47676287578097826,0.4789715505504991,0.4797948683529124,0.4800594241737156,0.4801189338251511,0.48028275567341266,0.4807368812585689,0.4811213731207488,0.4817823474289988,0.4824456677436252,0.48277477498896926,0.48250221196663867,0.48130849021171895,0.4796630981196404,0.4777103827852705,0.4756043379106776,0.47347644956955515,0.4711872478752297,0.4691941555465066,0.46744266953664676,0.4658586782516525,0.46445068717247157,0.46311831720862445,0.46253909714977054,0.4628668497362293,0.46407831936062616,0.4659380909935858,0.46777499727569477,0.46945023606550623,0.47029738682583855,0.46972920299648724,0.4674254948147,0.4632032001616347,0.4578750948374682,0.4519583969613744,0.4459334258170188,0.4401228112940839,0.43439721117232327,0.4290690944605391,0.4238483700706957,0.41845181744252946,0.4128201277734678,0.4070148538448123,0.4020605196169246,0.3986194295491392,0.397144923442135,0.397624626422963,0.39913870667675544,0.40068961340791753,0.40011548066131825,0.39485036135616985,0.38242912507245813,0.3607815623680043,0.32963318529122054,0.28953662203490205,0.2423800773786081,0.19121456253622907,0.1395850856678637,0.09188392371129504,0.05146076233925946,0.020552373859662073,1.5205411763300173e-19,-0.011025167326603996,-0.0138411644163614,-0.011069893804875417,-0.005603208502267164,-5.601226338924181e-19,0.0037228892057120985,0.005234187211331023,0.004608286825976101,0.0025352511548137214,4.047292540611336e-19,-0.0023003102340297295,-0.0033121917238790478,-0.0029590842126444965,-0.001639485440860784,-7.157643269164472e-19,0.0010899991157831647,0.001669969020837366,0.0015839663711739917,0.0009293451257803352,4.708984197751466e-19,-0.0010776302062614077,-0.0015602674944363015,-0.0013951285748753368,-0.0007703660197444181,-6.8364195846079365e-19,0.0003873324562903629,0.0006253904116502234,0.0006198821107495692,0.0003772875778010479,3.5491783317182134e-19,-0.000571268590834963,-0.0008051759188834869,-0.0006978403485020095,-0.00037172333894833264,-4.870509812356881e-19,6.66275838332866e-05,0.0001358399770088483,0.0001579662901694032,0.00010797600672504904,1.6149489115034687e-19,-0.0003164217547372853,-0.00042298080380864057,-0.00034386110557592115,-0.00016929538598953325,-2.7363829994248904e-19,0.0,0.0,0.0,0.0,0.0,0.0,0.0,0.0,0.0,0.0,0.0,0.0,0.0,0.0,0.0,0.0,0.0,0.0,0.0,0.0,0.0,0.0,0.0,0.0,0.0,0.0,0.0,0.0,0.0,0.0,0.0,0.0,0.0,0.0,0.0,0.0,0.0,0.0,0.0,0.0,0.0,0.0,0.0,0.0,0.0,0.0,0.0,0.0,0.0,0.0,0.0,0.0,0.0,0.0,0.0,0.0,0.0,0.0,0.0,0.0,0.0,0.0,0.0,0.0,0.0,0.0,0.0,0.0,0.0,0.0,0.0,0.0,0.0,0.0,0.0,0.0,0.0,0.0,0.0,0.0,0.0,0.0,0.0,0.0,0.0,0.0,0.0,0.0,0.0,0.0,0.0,0.0,0.0,0.0,0.0,0.0,0.0,0.0,0.0,0.0,0.0,0.0,0.0,0.0,0.0,0.0,0.0,0.0,0.0,0.0,0.0,0.0,0.0,0.0,0.0,0.0,0.0,0.0,0.0,0.0,0.0,0.0,0.0,0.0,0.0,0.0,0.0,0.0,0.0,0.0,0.0,0.0,0.0,0.0
0.4651469200917568,0.5120676215683996,0.5267498303199376,0.5149444327128481,0.48731374535550437,0.45608318435951645,0.43118070512666856,0.4189576085316135,0.42033027962475555,0.4317271988368914,0.447019448627276,0.45950542614670253,0.4651967620785601,0.46296936706477015,0.4546621187912282,0.44394611666265177,0.4343543434305718,0.4290323045489054,0.429069858245211,0.4336925804647522,0.44087278469802743,0.4478976248032417,0.45332748993969596,0.45665571363745244,0.4584616091223526,0.4599221676242633,0.46180371947567805,0.46497719083866973,0.4693961559611655,0.47438689002319184,0.4789715505504991,0.4819304428393817,0.48312342677296893,0.48282492520904646,0.481753203016472,0.4807368812585689,0.4800358110534444,0.4801107273262005,0.4808396253667911,0.48181068932057763,0.48250221196663867,0.4821396595409656,0.48078726873027794,0.47863140539636573,0.47605754943617556,0.47347644956955515,0.47085055724555136,0.46856523263023425,0.46672018432202855,0.4653480523961735,0.46445068717247157,0.4634677719402386,0.46311560136727187,0.46345132318459303,0.4644424275576345,0.4659380909935858,0.4669153688131325,0.4678602475514791,0.46848488187414505,0.46845561555986426,0.4674254948147,0.4641553679041268,0.45947545025063197,0.45361923644330604,0.44699859239921436,0.4401228112940839,0.4329041289783941,0.4264278594326758,0.42094716442858376,0.4164713373038134,0.4128201277734678,0.40948156648136713,0.4065721400872429,0.4037731317976297,0.4008285747793255,0.397624626422963,0.39397709906814044,0.3905060932127087,0.3873750742859435,0.38467620009248005,0.38242912507245813,0.3803428388787601,0.37877509941154824,0.3775159596201953,0.37630624530741,0.3749428970762864,0.3731078221067635,0.37133952539183845,0.36975383794023453,0.3684476688862107,0.3674566690801147,0.3664474787344434,0.36562215220249605,0.3644779547464684,0.3623984061981469,0.35892632957648757,0.35384289780233186,0.34839329473682934,0.3442307048302289,0.3438583712978043,0.3503959900728605,0.36682235859173135,0.3961504601564445,0.439408129426236,0.49541338789006906,0.5604653774258679,0.6282415710874136,0.6913423985251753,0.7411397742656449,0.7695686421838367,0.7705347647788752,0.7408149888073038,0.6816123725115306,0.5973380432510251,0.49543338647305646,0.3852673823894376,0.27649368629867066,0.17845489446827678,0.09780679766519493,0.03817582551762637,-1.8712152403205492e-19,-0.019297097415669207,-0.02368307816750647,-0.018543035624841053,-0.009202988151476577,-2.428743268194794e-19,0.006090009560885835,0.00838798375824338,0.007241375215334821,0.003910928956246132,2.116793524399317e-19,-0.003274421827106619,-0.004698442694830222,-0.004190747729359411,-0.0023220874466025193,-5.792578259673713e-19,0.0016991024909894289,0.002558101350291239,0.00238858772035171,0.0013821386598349686,4.789417512540522e-19,-0.001406923415049252,-0.002069694321403949,-0.0018833890277872092,-0.0010600527189003166,-7.252255757228527e-19,0.0006965486154948911,0.0010890789452987597,0.0010501297089638238,0.0006242635972586777,5.118266794586083e-19,-0.0007527297332225124,-0.0010898881487773101,-0.0009732134830360145,-0.0005358684873305931,-6.368969137717387e-19,0.00013424414164857172,0.0002736962691119542,0.0003182773231918748,0.00021755473495352709,3.253869012773168e-19,-0.0006375402561486866,-0.000852240043450976,-0.0006928262486580892,-0.00034110367613052005,-5.513382984120997e-19,0.0,0.0,0.0,0.0,0.0,0.0,0.0,0.0,0.0,0.0,0.0,0.0,0.0,0.0,0.0,0.0,0.0,0.0,0.0,0.0,0.0,0.0,0.0,0.0,0.0,0.0,0.0,0.0,0.0,0.0,0.0,0.0,0.0,0.0,0.0,0.0,0.0,0.0,0.0,0.0,0.0,0.0,0.0,0.0,0.0,0.0,0.0,0.0,0.0,0.0,0.0,0.0,0.0,0.0,0.0,0.0,0.0,0.0,0.0,0.0,0.0,0.0,0.0,0.0,0.0,0.0,0.0,0.0,0.0,0.0,0.0,0.0,0.0,0.0,0.0,0.0,0.0,0.0,0.0,0.0,0.0,0.0,0.0,0.0,0.0,0.0,0.0,0.0,0.0,0.0,0.0,0.0,0.0,0.0,0.0,0.0,0.0,0.0,0.0,0.0,0.0,0.0,0.0,0.0,0.0,0.0,0.0,0.0,0.0,0.0,0.0,0.0,0.0,0.0,0.0,0.0,0.0,0.0,0.0,0.0,0.0,0.0,0.0,0.0,0.0,0.0,0.0,0.0,0.0,0.0,0.0,0.0,0.0,0.0
0.48250221196663867,0.5310228941529745,0.5461864214260563,0.5340123833372337,0.5055656860374304,0.47347644956955515,0.44806189904677207,0.43570780611605225,0.437241368868841,0.4489135041876049,0.46445068717247157,0.47724302685978265,0.4833554779540698,0.48186785936847654,0.4748152496235221,0.4659380909935858,0.4585078393052722,0.4553544792719814,0.45698581186725384,0.46192140896295564,0.4674254948147,0.4699012894079908,0.4679299638284621,0.46129882571586,0.4513041368618701,0.4401228112940839,0.42954027300455633,0.4214064155556356,0.4163144372372674,0.41382924001531246,0.4128201277734678,0.4118313276352003,0.4099409045931238,0.406743372768539,0.40243782499841335,0.397624626422963,0.39285246568853327,0.38879702522788967,0.38576150226338063,0.38372865268394035,0.38242912507245813,0.3812937056128075,0.380092015632716,0.37863410735181247,0.37688739908904095,0.3749428970762864,0.3728063516439562,0.37079779739333596,0.3691524110999477,0.36803512030552826,0.3674566690801147,0.36682142829660896,0.3662619394905707,0.3651552662541533,0.3628424323714036,0.35892632957648757,0.3532310426344757,0.3472990561803483,0.34301599487337825,0.3430208453488749,0.3503959900728605,0.3678027461429794,0.39794032439250276,0.44144980595651356,0.49687133238030173,0.5604653774258679,0.6261584211806819,0.6872264511055614,0.735984457743033,0.7654486463515379,0.7705347647788752,0.7487359074529131,0.7014925663434938,0.6328724819932243,0.549403926282417,0.4591035007352996,0.37006224632009016,0.29013232647858594,0.22482625626608577,0.17717883581614066,0.147672236691724,0.13435065184553419,0.1342523650312134,0.14310599780313144,0.15651276848969925,0.17064097237348402,0.1824830792644014,0.19082603566103115,0.1951532788268238,0.19579109721651353,0.19360970805524402,0.1895006489087932,0.1848438776782049,0.18031973273262422,0.17621128644468126,0.1724793913917461,0.16870203134060402,0.16495241129042007,0.1609364286174961,0.15643163745219363,0.15134907472824818,0.1455508943964712,0.1395388202909271,0.13344723669527184,0.12736239498742638,0.12133525985512089,0.1152071920026356,0.10931322625087259,0.10353386888952068,0.09763706551250544,0.09132144498199361,0.08409190361871559,0.07601814931100476,0.06690338044709083,0.056711101047035584,0.045660722490996807,0.03396952423639061,0.022903389961860563,0.013195267269380646,0.005439382813834083,3.338704708528406e-19,-0.003451658989162957,-0.004434507563839164,-0.0036003659785655735,-0.001835782994632214,-6.509715170242906e-19,0.001055216422934201,0.001501803215870054,0.0013369469890671688,0.0007428713019923955,1.6173132275657237e-19,-0.0006900830455468187,-0.0009983635099507695,-0.0008955595403939039,-0.0004978884682450503,-2.579525053208298e-19,0.0003180917298809048,0.0004939631256753148,0.00047411424030430584,0.00028104859698368134,1.719904160200127e-19,-0.00035686653365158143,-0.0005113669470163233,-0.0004519440294246332,-0.0002463306654072853,-2.483639483983614e-19,0.00010168610542958458,0.00016808315821579623,0.00016982097012422422,0.00010499302610401365,1.0703622597131273e-19,-0.00018007728108909097,-0.0002506365670737344,-0.00021408803580875714,-0.00011212563653518258,-1.5406310996052834e-19,1.59102088005505e-05,3.243765229548991e-05,3.772126370861945e-05,2.5783927821001297e-05,3.856386935557063e-20,-7.555933889938951e-05,-0.00010100490697755194,-8.211166717061449e-05,-4.0426573876713235e-05,-6.534294412965972e-20,0.0,0.0,0.0,0.0,0.0,0.0,0.0,0.0,0.0,0.0,0.0,0.0,0.0,0.0,0.0,0.0,0.0,0.0,0.0,0.0,0.0,0.0,0.0,0.0,0.0,0.0,0.0,0.0,0.0,0.0,0.0,0.0,0.0,0.0,0.0,0.0,0.0,0.0,0.0,0.0,0.0,0.0,0.0,0.0,0.0,0.0,0.0,0.0,0.0,0.0,0.0,0.0,0.0,0.0,0.0,0.0,0.0,0.0,0.0,0.0,0.0,0.0,0.0,0.0,0.0,0.0,0.0,0.0,0.0,0.0,0.0,0.0,0.0,0.0,0.0,0.0,0.0,0.0,0.0,0.0,0.0,0.0,0.0,0.0,0.0,0.0,0.0,0.0,0.0,0.0,0.0,0.0,0.0,0.0,0.0,0.0,0.0,0.0,0.0,0.0,0.0,0.0,0.0,0.0,0.0,0.0,0.0,0.0,0.0,0.0,0.0,0.0,0.0,0.0,0.0,0.0,0.0,0.0,0.0,0.0,0.0,0.0,0.0,0.0,0.0,0.0,0.0,0.0,0.0,0.0,0.0,0.0,0.0,0.0
