0.5080080583333215,0.5574449820973851,0.5715896757264114,0.5571791846148353,0.5261966981594673,0.4920773891656903,0.4656469745166202,0.4530415684599915,0.4543091508777252,0.4645224618862786,0.47614671999805913,0.4816212076535933,0.4765403826448667,0.46023532034070214,0.43566611994716636,0.4079802262967888,0.3823004175153876,0.3626007865350274,0.3501594708002044,0.34362475528410674,0.3398137325955184,0.3348100359704443,0.3257774865814911,0.31140646350866336,0.29222991947345006,0.27024032813209226,0.2479444419831035,0.2281804839000459,0.2130604021042249,0.20378996070549113,0.20066692366866604,0.2030476789768872,0.21028191852144978,0.22139732396125528,0.23530183528887205,0.25076325239778224,0.26626357002894124,0.28037156510855443,0.29161346609408934,0.2987274709818568,0.3008595811268985,0.29770391020060494,0.28954569072321984,0.2772017862235688,0.2618875041950896,0.24505539875512217,0.22824671522171128,0.21297499531042327,0.2006367156652844,0.19242847258300114,0.18925121638334588,0.19133692385997297,0.1991439671000499,0.21197687182612174,0.2285114371308694,0.24696992465386827,0.26510665518810506,0.28144232664414415,0.29424086395108234,0.30220935879765737,0.3046886329243907,0.30147704723358026,0.29370686088239845,0.2824440492995353,0.2689486413179771,0.2545216410653891,0.24016858992282927,0.227320894929081,0.21674632340789904,0.2089697812958703,0.20435464920638752,0.2029762026544885,0.20527519896288196,0.2110963437396718,0.21991420572180223,0.23077328753638196,0.2421346440336685,0.25247255066966096,0.259736145798988,0.26187615160189426,0.2571919258663764,0.24455945536449206,0.22406854592030154,0.19659858610676573,0.16394361460776916,0.1285959629331882,0.0932657066596219,0.06095148971528684,0.03387755401251127,0.013425405969210814,5.073781259472049e-20,-0.0070882606793093855,-0.008836663832567804,-0.007020855759459658,-0.003531765370628683,-2.9533903577608284e-19,0.002346295680537732,0.0032751373892701587,0.0028634072639230398,0.0015648115973454562,2.0058621464621909e-19,-0.0013544812422505237,-0.0019547555001755987,-0.0017518824209595153,-0.000974445023387803,-3.6117701369597627e-19,0.0006709296731541854,0.0010279248359727523,0.0009751588560373801,0.0005723182409711133,2.7800590535482607e-19,-0.0006727205673649254,-0.0009718333652048443,-0.0008669750638823403,-0.0004776006102625023,-4.161237569490505e-19,0.0002477232479344588,0.000394560872758021,0.00038661687587641675,0.0002330452234096934,2.0774651866777017e-19,-0.0003235621339335462,-0.0004604525110647671,-0.00040342684426727287,-0.00021755396260551873,-2.751215411043011e-19,4.480850300996221e-05,9.135534666699502e-05,0.00010623577475417969,7.261621904899252e-05,1.086088358585893e-19,-0.00021280052995828046,-0.0002844638140869644,-0.00023125409174015263,-0.00011385483873564783,-1.84027723672133e-19,0.0,0.0,0.0,0.0,0.0,0.0,0.0,0.0,0.0,0.0,0.0,0.0,0.0,0.0,0.0,0.0,0.0,0.0,0.0,0.0,0.0,0.0,0.0,0.0,0.0,0.0,0.0,0.0,0.0,0.0,0.0,0.0,0.0,0.0,0.0,0.0,0.0,0.0,0.0,0.0,0.0,0.0,0.0,0.0,0.0,0.0,0.0,0.0,0.0,0.0,0.0,0.0,0.0,0.0,0.0,0.0,0.0,0.0,0.0,0.0,0.0,0.0,0.0,0.0,0.0,0.0,0.0,0.0,0.0,0.0,0.0,0.0,0.0,0.0,0.0,0.0,0.0,0.0,0.0,0.0,0.0,0.0,0.0,0.0,0.0,0.0,0.0,0.0,0.0,0.0,0.0,0.0,0.0,0.0,0.0,0.0,0.0,0.0,0.0,0.0,0.0,0.0,0.0,0.0,0.0,0.0,0.0,0.0,0.0,0.0,0.0,0.0,0.0,0.0,0.0,0.0,0.0,0.0,0.0,0.0,0.0,0.0,0.0,0.0,0.0,0.0,0.0,0.0,0.0,0.0,0.0,0.0,0.0,0.0,0.0,0.0,0.0,0.0,0.0,0.0,0.0,0.0,0.0,0.0,0.0,0.0,0.0,0.0,0.0,0.0,0.0,0.0,0.0,0.0,0.0,0.0,0.0,0.0,0.0,0.0,0.0,0.0,0.0,0.0
0.4378573235587176,0.4754270022834337,0.47995179657748716,0.4574722121111363,0.4189519612052642,0.37690615168422126,0.3417554805665847,0.3196750678847177,0.31126366714460585,0.3123378854450545,0.315954979809725,0.31488175082081643,0.3041953722162101,0.282369182682408,0.2514182833008586,0.2158918829956626,0.18122539235214452,0.15216137819581044,0.13154020592700405,0.11990561144679428,0.1158287861816002,0.11677768688909475,0.11987384778682592,0.12280429370048633,0.1242208924067104,0.12382398749072596,0.1221045951377154,0.1203581405581853,0.12021168916619221,0.12345254822336098,0.13181918879985172,0.14651638836657585,0.16867703196914546,0.19848104820027038,0.23500205687480447,0.2760536694118971,0.31816629071757724,0.35736296742256163,0.38952592385723805,0.4112088670716803,0.4202881500239424,0.41635750737290983,0.4007653318263321,0.37628996244415847,0.3465431940511005,0.3152564810127297,0.28562155352530033,0.2598270587459737,0.2388692575881568,0.22263940636483256,0.21022481200151702,0.20009489050151363,0.1913753530936032,0.1830292888492159,0.17445683482337443,0.1655345463566196,0.1562871889933309,0.14737755376925293,0.13884880818331435,0.13029423493289494,0.12084428071172218,0.10915339761732026,0.09431083791420154,0.07539123816192127,0.05214224712185511,0.02530478068955611,-0.0033637555664401183,-0.030770389740340902,-0.0533932039351119,-0.06759776735420915,-0.07023471933261001,-0.05928376191088347,-0.03408622642662133,0.004111791996940832,0.052308821361052846,0.10607899447097949,0.16007107574725052,0.20895547616317248,0.24783224441973262,0.27299419379932066,0.2823927082745689,0.27577715031405775,0.2548822061031356,0.22276202718057778,0.18341442069349767,0.14119635413728446,0.10009552681643724,0.06377367249716558,0.034504950678625225,0.013302117164161416,1.2561820079338228e-19,-0.006719745017002236,-0.00815851546581382,-0.006311179074992471,-0.003090215376179364,-3.137547594730292e-19,0.001885693268099297,0.0025689239669703396,0.0021960609803528125,0.0011756790154605614,5.982607810131787e-20,-0.0010196350642369522,-0.0014403587529257713,-0.0012638426409870415,-0.0006884911880367713,-1.8158827449827476e-19,0.0004564558936724166,0.0006839187304081623,0.0006362619890212754,0.0003672001893673684,7.588278491399611e-20,-0.0003848664869939523,-0.0005621610501917625,-0.000508132892545751,-0.00028421611141104803,-1.5633486594916253e-19,0.00022066818217170636,0.00032857426319565005,0.00030280637326051546,0.0001726982483725751,1.0369118368816329e-19,-0.00011150350318172382,-0.00017971682101235696,-0.00017805518040032672,-0.00010845031599195944,-9.12756925241868e-20,4.9199034830069046e-05,0.00010030674047698603,0.00011664521756435864,7.973147171252309e-05,1.1925080150684778e-19,-0.00023365165051255824,-0.00031233681460073097,-0.00025391337245946885,-0.00012501083053994584,-2.0205955964720902e-19,0.0,0.0,0.0,0.0,0.0,0.0,0.0,0.0,0.0,0.0,0.0,0.0,0.0,0.0,0.0,0.0,0.0,0.0,0.0,0.0,0.0,0.0,0.0,0.0,0.0,0.0,0.0,0.0,0.0,0.0,0.0,0.0,0.0,0.0,0.0,0.0,0.0,0.0,0.0,0.0,0.0,0.0,0.0,0.0,0.0,0.0,0.0,0.0,0.0,0.0,0.0,0.0,0.0,0.0,0.0,0.0,0.0,0.0,0.0,0.0,0.0,0.0,0.0,0.0,0.0,0.0,0.0,0.0,0.0,0.0,0.0,0.0,0.0,0.0,0.0,0.0,0.0,0.0,0.0,0.0,0.0,0.0,0.0,0.0,0.0,0.0,0.0,0.0,0.0,0.0,0.0,0.0,0.0,0.0,0.0,0.0,0.0,0.0,0.0,0.0,0.0,0.0,0.0,0.0,0.0,0.0,0.0,0.0,0.0,0.0,0.0,0.0,0.0,0.0,0.0,0.0,0.0,0.0,0.0,0.0,0.0,0.0,0.0,0.0,0.0,0.0,0.0,0.0,0.0,0.0,0.0,0.0,0.0,0.0,0.0,0.0,0.0,0.0,0.0,0.0,0.0,0.0,0.0,0.0,0.0,0.0,0.0,0.0,0.0,0.0,0.0,0.0,0.0,0.0,0.0,0.0,0.0,0.0,0.0,0.0,0.0,0.0,0.0,0.0
0.4202881500239424,0.45169180000048914,0.44882674460607547,0.41754346152918714,0.36876805290927883,0.3152564810127297,0.2680563261178246,0.2342882494155181,0.21577984756881016,0.20967337846740408,0.21022481200151702,0.21104230823615788,0.2075053259745698,0.19774034807457347,0.18275849080504947,0.1655345463566196,0.14940685489699126,0.13705664973150092,0.12926336613203337,0.12478191092360603,0.12084428071172218,0.11395099345505807,0.10143900631192934,0.08193953298884717,0.055862520412796844,0.02530478068955611,-0.006600829417299582,-0.03575096986126352,-0.0581643162832221,-0.07044780444385132,-0.07023471933261001,-0.056686916946746053,-0.029983306559419592,0.008186311210623704,0.054862794709317673,0.10607899447097947,0.15717174085649774,0.2036622036552437,0.24162262449772615,0.2682828848887035,0.2823927082745689,0.2843213490932142,0.27587354977797507,0.25986832784450825,0.23958116913002642,0.21817458803491746,0.19823181771394327,0.18147024664509245,0.1686596861706368,0.15972208780868458,0.153956467795266,0.15010480450187594,0.1474609962053094,0.14501712722533405,0.14205087493250276,0.13826165493189616,0.1336414982067283,0.12903026798189618,0.12515839963416672,0.12278640794955024,0.12256684206852629,0.12481130740371606,0.12980985172802098,0.13724066067609536,0.14640348872090964,0.15634418962678048,0.16595116026476206,0.17449027171511003,0.18137204823288364,0.18645758444213198,0.1901215371850347,0.19312163772836385,0.19663615501509296,0.20165430025685002,0.2087737738681914,0.21794727473627856,0.22834056734579558,0.23842370865738138,0.24612527863443193,0.24922125409285018,0.24577301228752246,0.23457797136457045,0.2153288458447486,0.18890837752779216,0.15721963128770078,0.12288650614376123,0.088773052160685,0.057728554556364255,0.03190141763940798,0.01256149424428115,2.9888025394563266e-22,-0.006542295316120286,-0.008097825614637785,-0.006387423919201085,-0.0031899502481696086,-2.0242470616653515e-19,0.0020893754580941486,0.002895795273987145,0.0025148445151897125,0.001365838963224595,9.965123336346571e-20,-0.0011648533980660953,-0.0016755514946684346,-0.0014975204534429607,-0.0008311169050766853,-2.394827354847946e-19,0.0006075128448117142,0.0009159416576938438,0.0008561606028565935,0.0004957889104429646,1.920310910847537e-19,-0.0005002587852354951,-0.000737510789015849,-0.0006724838721102085,-0.0003792121152263949,-2.744287699353691e-19,0.0002358257272593949,0.00037521011640671864,0.00036732027157436887,0.00022124147233398123,1.9634386335238536e-19,-0.00030492703154453606,-0.00043430189917611334,-0.000380875638149951,-0.00020561062079769808,-2.592143984007994e-19,4.281907654665084e-05,8.729931417280766e-05,0.00010151907485462359,6.939217409909627e-05,1.0378677580988662e-19,-0.00020335252394898453,-0.0002718340719267931,-0.0002209867768567565,-0.00010879986447983788,-1.7585718462567368e-19,0.0,0.0,0.0,0.0,0.0,0.0,0.0,0.0,0.0,0.0,0.0,0.0,0.0,0.0,0.0,0.0,0.0,0.0,0.0,0.0,0.0,0.0,0.0,0.0,0.0,0.0,0.0,0.0,0.0,0.0,0.0,0.0,0.0,0.0,0.0,0.0,0.0,0.0,0.0,0.0,0.0,0.0,0.0,0.0,0.0,0.0,0.0,0.0,0.0,0.0,0.0,0.0,0.0,0.0,0.0,0.0,0.0,0.0,0.0,0.0,0.0,0.0,0.0,0.0,0.0,0.0,0.0,0.0,0.0,0.0,0.0,0.0,0.0,0.0,0.0,0.0,0.0,0.0,0.0,0.0,0.0,0.0,0.0,0.0,0.0,0.0,0.0,0.0,0.0,0.0,0.0,0.0,0.0,0.0,0.0,0.0,0.0,0.0,0.0,0.0,0.0,0.0,0.0,0.0,0.0,0.0,0.0,0.0,0.0,0.0,0.0,0.0,0.0,0.0,0.0,0.0,0.0,0.0,0.0,0.0,0.0,0.0,0.0,0.0,0.0,0.0,0.0,0.0,0.0,0.0,0.0,0.0,0.0,0.0,0.0,0.0,0.0,0.0,0.0,0.0,0.0,0.0,0.0,0.0,0.0,0.0,0.0,0.0,0.0,0.0,0.0,0.0,0.0,0.0,0.0,0.0,0.0,0.0,0.0,0.0,0.0,0.0,0.0,0.0
0.3998588931147885,0.4317642680274185,0.43181475121742974,0.40536538823862867,0.36254803762084997,0.3152548814377142,0.2738296365297721,0.2449793663891085,0.23044709002579816,0.22751993448281874,0.2306508697606399,0.23342791672299595,0.23112820578115376,0.22151782358829444,0.20518883606512014,0.1849049275238573,0.16420583243774425,0.14699137618221425,0.13614265057630834,0.13333772019399695,0.13915898528707468,0.1531249705325889,0.17493626608375792,0.20389730318280375,0.23892839750075878,0.2782386564162027,0.31883321576125706,0.3571635904465889,0.38898330435166595,0.41012904955584395,0.41731832754533077,0.40873669201858925,0.38486879246540906,0.34821017663369314,0.3029093745838086,0.2539995975540229,0.20642392560567194,0.16439822681748575,0.130667716958212,0.10628294430432998,0.09068086756271508,0.08205057995349394,0.07787966428475387,0.07556075770091676,0.07294475361197879,0.06874917652849265,0.06276096975774655,0.055808417146606774,0.04951511106956387,0.04588709793666282,0.04681748549427021,0.05340805295133033,0.06641613932174519,0.08509170278087463,0.10770273202054549,0.1319340715065578,0.15524702166495322,0.17602202325605643,0.1931446118996804,0.20651840936046614,0.21705065751884542,0.22626357108005343,0.23628395807333924,0.2486983816254235,0.2642932209682541,0.282772948216087,0.3026343126969365,0.3217653949197932,0.3374191118064556,0.3469699730449969,0.34849523891332856,0.34113105212164335,0.3255209270694505,0.30334019091511677,0.2770673400026638,0.24947371143282324,0.222931095294689,0.19949985011285867,0.17993833338214754,0.16395561259706182,0.15045218395231794,0.1376994838131196,0.12460791309585253,0.11003975975329083,0.09349090510934628,0.07522609197615897,0.056076655820222206,0.03769187551079503,0.021529140054237856,0.008753401158337877,-8.658036810470755e-20,-0.004775237253078098,-0.006073647300060683,-0.00491930970407947,-0.002521011085810046,-9.149341717955195e-20,0.0017933867116006258,0.0025327634329598715,0.0022365465475510885,0.0012326770679249696,1.5572555971175246e-19,-0.001027965238219344,-0.0015075212672546563,-0.001373038171130954,-0.0007761232517657685,-2.7020332793561354e-19,0.0005880718093240762,0.0009017227183099937,0.0008555044197051695,0.000501847429081463,2.8713328179388356e-19,-0.000563159851479849,-0.000820120840961793,-0.0007376227005678341,-0.0004097039109432258,-3.8594333631460076e-19,0.00018480164812550298,0.00031213467226754896,0.0003207341232007221,0.0002009696760065189,2.1821100102559356e-19,-0.00037871211180141325,-0.0005225848056579117,-0.00044185871529389307,-0.0002286181443820743,-3.247618208866889e-19,2.62120870037941e-05,5.344106886509141e-05,6.21458246474541e-05,4.2479050263642584e-05,6.353401840434619e-20,-0.0001244840963439419,-0.00016640569854835052,-0.00013527906458576827,-6.660282621086982e-05,-1.0765257439936514e-19,0.0,0.0,0.0,0.0,0.0,0.0,0.0,0.0,0.0,0.0,0.0,0.0,0.0,0.0,0.0,0.0,0.0,0.0,0.0,0.0,0.0,0.0,0.0,0.0,0.0,0.0,0.0,0.0,0.0,0.0,0.0,0.0,0.0,0.0,0.0,0.0,0.0,0.0,0.0,0.0,0.0,0.0,0.0,0.0,0.0,0.0,0.0,0.0,0.0,0.0,0.0,0.0,0.0,0.0,0.0,0.0,0.0,0.0,0.0,0.0,0.0,0.0,0.0,0.0,0.0,0.0,0.0,0.0,0.0,0.0,0.0,0.0,0.0,0.0,0.0,0.0,0.0,0.0,0.0,0.0,0.0,0.0,0.0,0.0,0.0,0.0,0.0,0.0,0.0,0.0,0.0,0.0,0.0,0.0,0.0,0.0,0.0,0.0,0.0,0.0,0.0,0.0,0.0,0.0,0.0,0.0,0.0,0.0,0.0,0.0,0.0,0.0,0.0,0.0,0.0,0.0,0.0,0.0,0.0,0.0,0.0,0.0,0.0,0.0,0.0,0.0,0.0,0.0,0.0,0.0,0.0,0.0,0.0,0.0,0.0,0.0,0.0,0.0,0.0,0.0,0.0,0.0,0.0,0.0,0.0,0.0,0.0,0.0,0.0,0.0,0.0,0.0,0.0,0.0,0.0,0.0,0.0,0.0,0.0,0.0,0.0,0.0,0.0,0.0
0.41731832754533077,0.4431394322503326,0.4315090764283086,0.3881424575465784,0.3243842160037276,0.2539995975540229,0.1895608647887359,0.1399185080634794,0.1085652377425257,0.09388579892242303,0.09068086756271508,0.09232168568959985,0.09308710611407771,0.08950087285524364,0.0808519036103032,0.06874917652849266,0.05599885214495532,0.04570765357980459,0.040182745315068824,0.04055430171210833,0.0468174854942702,0.05806415798117609,0.07326201699229343,0.09130306506409482,0.11117955427469195,0.1319340715065578,0.15229011649195975,0.17150558941874325,0.18885677579768473,0.20398569978654701,0.21705065751884542,0.22829822462598287,0.23925862706872475,0.25137798312478093,0.2657796082144087,0.282772948216087,0.3013217868246208,0.3197256062940166,0.33544205206359756,0.34577305795762125,0.34849523891332856,0.3423957535011789,0.3275743874715911,0.30544165356410674,0.2784258064231385,0.24947371143282324,0.22147322455006532,0.19673107695434347,0.17661421855323683,0.16141566499707397,0.15045218395231794,0.14213859541870016,0.13521855431559496,0.12811933704277267,0.11974340483615299,0.10975121782255116,0.09850302385045791,0.08741000397616083,0.07795096266263261,0.07151647039842558,0.0690502516927844,0.07074939914290859,0.07615959957823151,0.08405650995529937,0.09284066333841243,0.10098282391735391,0.10746546650634399,0.11231168939472763,0.11660940995317336,0.12251633660412577,0.1329153961419234,0.15079575094323353,0.17860468751748837,0.21739403054594275,0.2663136134712044,0.322389797382537,0.380646971537164,0.4349688460331417,0.4786795289246495,0.505754743643408,0.5118641986231505,0.4950378928375546,0.45645146709221246,0.3997327855613732,0.33059304359449326,0.25593209931157523,0.1826337555398278,0.11709939980707491,0.06371270219335218,0.02467519060849674,-1.5251698191656624e-19,-0.012313359413895698,-0.01498356022690956,-0.011627602726298203,-0.005717904656040343,-9.858115573517004e-20,0.003708718394930064,0.0050584362738275955,0.00432543966159819,0.0023147195022283195,-6.304733665306941e-21,-0.0018686862412092085,-0.0026728751343639383,-0.0023787721242437623,-0.0013163446813738138,-1.8579137121357356e-19,0.0010158585137756164,0.0015121591580170256,0.0013970982321461975,0.0008006504286620138,1.97086673693699e-19,-0.0007298042620984772,-0.0010902662134036093,-0.0010084452242643442,-0.0005773572635929679,-3.064682597867451e-19,0.00044531902361032204,0.0006880046169050538,0.0006563535920248048,0.0003865042603340037,2.9783900564715583e-19,-0.00041741906915133075,-0.0006135700852239268,-0.0005567214612388041,-0.0003117732160866774,-3.516423371667564e-19,8.917802690514335e-05,0.0001818157049608797,0.0002114307808321707,0.00014452103286425536,2.161536546797871e-19,-0.0004235162996145872,-0.0005661407983334542,-0.00046024263766506043,-0.00022659426648979935,-3.662525679395508e-19,0.0,0.0,0.0,0.0,0.0,0.0,0.0,0.0,0.0,0.0,0.0,0.0,0.0,0.0,0.0,0.0,0.0,0.0,0.0,0.0,0.0,0.0,0.0,0.0,0.0,0.0,0.0,0.0,0.0,0.0,0.0,0.0,0.0,0.0,0.0,0.0,0.0,0.0,0.0,0.0,0.0,0.0,0.0,0.0,0.0,0.0,0.0,0.0,0.0,0.0,0.0,0.0,0.0,0.0,0.0,0.0,0.0,0.0,0.0,0.0,0.0,0.0,0.0,0.0,0.0,0.0,0.0,0.0,0.0,0.0,0.0,0.0,0.0,0.0,0.0,0.0,0.0,0.0,0.0,0.0,0.0,0.0,0.0,0.0,0.0,0.0,0.0,0.0,0.0,0.0,0.0,0.0,0.0,0.0,0.0,0.0,0.0,0.0,0.0,0.0,0.0,0.0,0.0,0.0,0.0,0.0,0.0,0.0,0.0,0.0,0.0,0.0,0.0,0.0,0.0,0.0,0.0,0.0,0.0,0.0,0.0,0.0,0.0,0.0,0.0,0.0,0.0,0.0,0.0,0.0,0.0,0.0,0.0,0.0,0.0,0.0,0.0,0.0,0.0,0.0,0.0,0.0,0.0,0.0,0.0,0.0,0.0,0.0,0.0,0.0,0.0,0.0,0.0,0.0,0.0,0.0,0.0,0.0,0.0,0.0,0.0,0.0,0.0,0.0
0.5118641986231505,0.5501031925291763,0.5461284092713327,0.5068172827852788,0.4453568769596876,0.3773766907909715,0.3167059974055502,0.27259355914427613,0.2480086593821334,0.2402330790212725,0.24288918295879264,0.24851618244051304,0.2514082912181527,0.24879167139561245,0.24107554127010214,0.2309098137077004,0.22150424929632007,0.21555479174311154,0.21398339490248602,0.21585710186914422,0.2189304444566082,0.2204313101597178,0.21846022180925495,0.2122538691749893,0.2023853711148253,0.19043709659740435,0.17831220354620492,0.16807561629544482,0.1613090031677724,0.15906762809854355,0.16194374873820055,0.1700852195257743,0.18357359471015225,0.20213062071509294,0.22501387275367224,0.25084249895439176,0.2774824211606589,0.3023389259420015,0.32258201324408103,0.3356517437437287,0.33974124917058296,0.33415533904413,0.31944908649165554,0.2973164305441747,0.27026807426744875,0.2411876892980364,0.21287285514109858,0.1876527279680171,0.16713924368633684,0.15212820886744546,0.1426341294254899,0.13776165880039032,0.13691467222051062,0.13870180416846578,0.14168444572973737,0.14464632410599315,0.14658720056448085,0.1475459456370151,0.1475950946278771,0.14711017176314473,0.14665851878649644,0.14672947245554727,0.14805908060598613,0.15086845764798681,0.1550279462366168,0.16008001164290606,0.16520695614578101,0.16981915142517595,0.17311227368691648,0.17444901307189226,0.17350150449931567,0.1702074774349843,0.1651801803372691,0.15903626297272083,0.1524558709478906,0.14603429519936525,0.14004925303245636,0.1347459380591341,0.12982202759712444,0.1246772663045574,0.11856708589941484,0.11070823439441525,0.10078105956718506,0.08864887902771376,0.07458727210490028,0.05928354294970742,0.043613268592119114,0.02896454373898328,0.016379651063266026,0.006609001478478127,1.1561633854839645e-19,-0.003714440897105901,-0.004700025069554151,-0.003779717665071231,-0.001919315812428362,-3.091522552125025e-19,0.0012349374656347644,0.001741961052350957,0.0015380189280794192,0.0008482208098822492,1.350773921873823e-19,-0.0007658098712058363,-0.0011063571760349476,-0.0009917358248314675,-0.0005513347139510512,-2.3874339616168676e-19,0.00037577913464635843,0.0005753453187769988,0.0005452839809385521,0.000319651304710826,1.6822190445890474e-19,-0.0003628804570456973,-0.0005271481134578619,-0.00047297946310742404,-0.0002621012431985733,-2.3600864906018256e-19,0.00012801650827098292,0.00021006004705658083,0.0002109854775780084,0.00012982301608006468,1.2925674353834623e-19,-0.00021477095306476822,-0.0002999721922583079,-0.0002572783501775249,-0.0001353953886399829,-1.8356882895098625e-19,2.0657000049708544e-05,4.2115386006573235e-05,4.897535639362946e-05,3.347653100955382e-05,5.006935240016539e-20,-9.81023748316004e-05,-0.00013113959688473124,-0.0001066095821926828,-5.248779252676535e-05,-8.483793123367301e-20,0.0,0.0,0.0,0.0,0.0,0.0,0.0,0.0,0.0,0.0,0.0,0.0,0.0,0.0,0.0,0.0,0.0,0.0,0.0,0.0,0.0,0.0,0.0,0.0,0.0,0.0,0.0,0.0,0.0,0.0,0.0,0.0,0.0,0.0,0.0,0.0,0.0,0.0,0.0,0.0,0.0,0.0,0.0,0.0,0.0,0.0,0.0,0.0,0.0,0.0,0.0,0.0,0.0,0.0,0.0,0.0,0.0,0.0,0.0,0.0,0.0,0.0,0.0,0.0,0.0,0.0,0.0,0.0,0.0,0.0,0.0,0.0,0.0,0.0,0.0,0.0,0.0,0.0,0.0,0.0,0.0,0.0,0.0,0.0,0.0,0.0,0.0,0.0,0.0,0.0,0.0,0.0,0.0,0.0,0.0,0.0,0.0,0.0,0.0,0.0,0.0,0.0,0.0,0.0,0.0,0.0,0.0,0.0,0.0,0.0,0.0,0.0,0.0,0.0,0.0,0.0,0.0,0.0,0.0,0.0,0.0,0.0,0.0,0.0,0.0,0.0,0.0,0.0,0.0,0.0,0.0,0.0,0.0,0.0,0.0,0.0,0.0,0.0,0.0,0.0,0.0,0.0,0.0,0.0,0.0,0.0,0.0,0.0,0.0,0.0,0.0,0.0,0.0,0.0,0.0,0.0,0.0,0.0,0.0,0.0,0.0,0.0,0.0,0.0
0.9199818255236115,0.9821679484463803,0.9648607648878855,0.8804211293808106,0.753028161195566,0.6117589329654135,0.4831881830166954,0.3855636988191439,0.3261684980569686,0.30206659875213265,0.3035360404072154,0.3187398400767069,0.33770195789346036,0.3548590323982372,0.3692711898144802,0.38303643344141863,0.3988349004826382,0.41764411076857794,0.4376284290221241,0.454412879378359,0.4625368264756219,0.45738041771969523,0.43690217466241354,0.4023493627795056,0.35793185563143254,0.3095780258744449,0.26324323028046215,0.22356052587750117,0.19287352532549545,0.1711642342117274,0.15661922527326777,0.14649529338640482,0.13822874536035223,0.12995078696207873,0.1207683484915552,0.11064788506372673,0.10005757159426953,0.08969382772539132,0.08014200386805775,0.07176199296501123,0.06467654485418568,0.05882418938883546,0.054023331685616155,0.05001994740081357,0.04651910648504623,0.04321381600289045,0.03981962987983885,0.03610859477007422,0.03192513087150951,0.02716942000198186,0.021751087151595197,0.01506520126310113,0.007794709132500343,-0.0004126112350646146,-0.009885752427866526,-0.020649765091219813,-0.032544409035126794,-0.04398651966162387,-0.053704947589033936,-0.060410202873515804,-0.06305061733403482,-0.06120856269595146,-0.05465811251594288,-0.04417289640184929,-0.03109190499678533,-0.017029326793247854,-0.0037367940151848333,0.00794948672385586,0.01731218840484275,0.024198317800712243,0.02899196374753911,0.032223345046813616,0.0352479183244972,0.03880047927320421,0.04326180688933168,0.04861028954703062,0.05429616059887499,0.05994800945031564,0.06470819206674253,0.06770158464056818,0.06822861534652214,0.0658335599895542,0.06069058192696763,0.05319416948869518,0.04403978053134397,0.03411430767326107,0.024297146896552026,0.015531568333693093,0.008416111654316855,0.003242955250698139,-2.9535561558806306e-20,-0.0016078301634594276,-0.0019416263985931256,-0.0014935231979088621,-0.0007271821429967532,-1.6744212995659335e-23,0.00045475167668728974,0.0006135131668748646,0.0005190629173010795,0.00027496744848831494,-3.1927236371462957e-20,-0.00022014906187103997,-0.00031196106143236346,-0.00027523106943088413,-0.00015110603157958966,6.038817632608916e-21,0.0001321190503269672,0.0001900123016518318,0.00016962828389528012,9.400872215232245e-05,1.0826256012186547e-21,-4.426758310443319e-05,-7.56872156127314e-05,-7.908298736479839e-05,-5.0543976627085254e-05,5.1987439011858725e-21,6.132288744315633e-05,9.571208713728379e-05,9.214552990567199e-05,5.4702278886858085e-05,4.446158746832166e-20,-6.496861774418959e-05,-9.425610514798765e-05,-8.434583169326734e-05,-4.6548919858082244e-05,-5.493957277199939e-20,1.188692882104147e-05,2.423500965900835e-05,2.818253250884924e-05,1.9263839876476555e-05,2.881206499802496e-20,-5.645233789960788e-05,-7.546338045397183e-05,-6.134775195410187e-05,-3.0203739760752667e-05,-4.881940492193155e-20,0.0,0.0,0.0,0.0,0.0,0.0,0.0,0.0,0.0,0.0,0.0,0.0,0.0,0.0,0.0,0.0,0.0,0.0,0.0,0.0,0.0,0.0,0.0,0.0,0.0,0.0,0.0,0.0,0.0,0.0,0.0,0.0,0.0,0.0,0.0,0.0,0.0,0.0,0.0,0.0,0.0,0.0,0.0,0.0,0.0,0.0,0.0,0.0,0.0,0.0,0.0,0.0,0.0,0.0,0.0,0.0,0.0,0.0,0.0,0.0,0.0,0.0,0.0,0.0,0.0,0.0,0.0,0.0,0.0,0.0,0.0,0.0,0.0,0.0,0.0,0.0,0.0,0.0,0.0,0.0,0.0,0.0,0.0,0.0,0.0,0.0,0.0,0.0,0.0,0.0,0.0,0.0,0.0,0.0,0.0,0.0,0.0,0.0,0.0,0.0,0.0,0.0,0.0,0.0,0.0,0.0,0.0,0.0,0.0,0.0,0.0,0.0,0.0,0.0,0.0,0.0,0.0,0.0,0.0,0.0,0.0,0.0,0.0,0.0,0.0,0.0,0.0,0.0,0.0,0.0,0.0,0.0,0.0,0.0,0.0,0.0,0.0,0.0,0.0,0.0,0.0,0.0,0.0,0.0,0.0,0.0,0.0,0.0,0.0,0.0,0.0,0.0,0.0,0.0,0.0,0.0,0.0,0.0,0.0,0.0,0.0,0.0,0.0,0.0
0.4625368264756219,0.4931809726911023,0.48407994574437885,0.4417905804559862,0.3787317532700777,0.3095780258744449,0.24738096708497564,0.20074409241905275,0.17240137372373057,0.1597235213268116,0.15661922527326777,0.1560226744057988,0.1523976523826508,0.14302171792676,0.1282428048164169,0.11064788506372675,0.09353014518171691,0.0798223941583093,0.07089754948998934,0.06640208936165642,0.06467654485418568,0.06339044013434823,0.06089940449818464,0.05641050513328385,0.050183178690965266,0.043213816002890454,0.0365242594253867,0.031114088849629316,0.027244019443923965,0.024455539818730294,0.021751087151595194,0.0177793273720146,0.011677156989423641,0.003006866256960069,-0.008032029747764345,-0.02064976509121981,-0.03371482531438922,-0.04575163595888274,-0.05535607549008924,-0.06136915845823874,-0.06305061733403482,-0.06018982043340331,-0.05313892205499047,-0.04275693678476485,-0.030264625791269838,-0.01702932679324785,-0.0043205367534105196,0.006908279926313149,0.01615706718278705,0.023400580531956944,0.028991963747539106,0.03324515969318413,0.03714740709909169,0.04100872138789582,0.04486996108589268,0.04861028954703062,0.05195084567719107,0.05522371951019086,0.0586728864847008,0.0627811519383178,0.06822861534652212,0.07567327423575718,0.08585494957925066,0.0989753698826438,0.11469867267663776,0.13212708283932145,0.14985249537019277,0.16640395177040743,0.1802667080558649,0.1903065659342527,0.19602555033212077,0.19763977601754054,0.19613576772661728,0.19285982217775563,0.18922595144501647,0.1863433764854328,0.18469397379735966,0.18406933999604597,0.18350488812026594,0.18155533236439797,0.17666120263874485,0.16754069721069043,0.1535722709199397,0.13493355925290634,0.11263150264675938,0.08833060131937243,0.06405505269762932,0.041777815438135676,0.02312629636121897,0.009108856409207947,-1.6982621314144829e-19,-0.004590032571648257,-0.005673873520648725,-0.004478251302794868,-0.0022426253019233516,9.386486981610836e-20,0.0015749315567980607,0.002180843362165761,0.0018911952764769733,0.0010252439098260404,3.995314835578724e-20,-0.0008265413923057331,-0.0011994793315654251,-0.0010825983357206385,-0.0006072305890694502,-1.2582998660560918e-19,0.00048217977493381515,0.0007256383427117472,0.0006769552484069113,0.0003912360722822983,1.5767366080335536e-19,-0.0003788006311690631,-0.0005622542209669547,-0.0005162202383024749,-0.0002931153758844227,-2.1279332391608324e-19,0.0001798540698810902,0.0002907875318791783,0.00028855111201680876,0.00017578967140488393,1.6620133859920455e-19,-0.0002683008559077787,-0.00037783701383997247,-0.00032715213672214667,-0.00017407318005634994,-2.288011911267537e-19,3.0778275809072e-05,6.275059123767262e-05,7.297172983992874e-05,4.9878970908824556e-05,7.460174923975252e-20,-0.00014616943132236495,-0.00019539384580026314,-0.00015884490084331582,-7.820514842962042e-05,-1.2640583048349827e-19,0.0,0.0,0.0,0.0,0.0,0.0,0.0,0.0,0.0,0.0,0.0,0.0,0.0,0.0,0.0,0.0,0.0,0.0,0.0,0.0,0.0,0.0,0.0,0.0,0.0,0.0,0.0,0.0,0.0,0.0,0.0,0.0,0.0,0.0,0.0,0.0,0.0,0.0,0.0,0.0,0.0,0.0,0.0,0.0,0.0,0.0,0.0,0.0,0.0,0.0,0.0,0.0,0.0,0.0,0.0,0.0,0.0,0.0,0.0,0.0,0.0,0.0,0.0,0.0,0.0,0.0,0.0,0.0,0.0,0.0,0.0,0.0,0.0,0.0,0.0,0.0,0.0,0.0,0.0,0.0,0.0,0.0,0.0,0.0,0.0,0.0,0.0,0.0,0.0,0.0,0.0,0.0,0.0,0.0,0.0,0.0,0.0,0.0,0.0,0.0,0.0,0.0,0.0,0.0,0.0,0.0,0.0,0.0,0.0,0.0,0.0,0.0,0.0,0.0,0.0,0.0,0.0,0.0,0.0,0.0,0.0,0.0,0.0,0.0,0.0,0.0,0.0,0.0,0.0,0.0,0.0,0.0,0.0,0.0,0.0,0.0,0.0,0.0,0.0,0.0,0.0,0.0,0.0,0.0,0.0,0.0,0.0,0.0,0.0,0.0,0.0,0.0,0.0,0.0,0.0,0.0,0.0,0.0,0.0,0.0,0.0,0.0,0.0,0.0
0.6484878918916985,0.6848897149887728,0.6607856784182197,0.5849173682011262,0.4750973681836821,0.353285343736016,0.23985454976315762,0.15007887583595622,0.09117262503355471,0.06258076381945304,0.05808279558033348,0.06868496446976252,0.0863662484944814,0.10556988243636235,0.12391822336717233,0.1414848484910142,0.15906875830215358,0.17749480192289824,0.1961147728144034,0.2128614710654982,0.2248869014016949,0.22930373685160696,0.22499811804038314,0.21251393646242955,0.19411063995417138,0.1731214836680765,0.15277384561138418,0.13618656948266902,0.1252116045887644,0.12043618026037227,0.12135606593445812,0.12647441089753822,0.13453014021796614,0.14420654101010016,0.15444962158240616,0.1645049488590237,0.17377322673124604,0.18223117818650592,0.19016833236868105,0.19828879592445353,0.20765383178358923,0.21950082869600254,0.23494304530117668,0.254612315795759,0.278347757503066,0.3050379081209794,0.33268737153004463,0.35871418869320665,0.3804139697742614,0.3954760095989396,0.4024219844583695,0.4005295499425846,0.39114068110487715,0.3757989928883777,0.35657212254671933,0.3357454657777752,0.31532977937241646,0.2974980889880874,0.2835053069061675,0.27399093841637434,0.2690689470971809,0.26842764722544427,0.27156076187518985,0.2776927212821765,0.28587695989826273,0.29503685510104954,0.30396131384987374,0.31170244437697864,0.31737386155749686,0.3204684739870768,0.3210047631049182,0.31944413766354046,0.3170169794631617,0.31488015886589293,0.31399565676965335,0.31481095030889683,0.31693430122996247,0.31939921768651175,0.32033969076430047,0.31748170135804127,0.30861713751287545,0.2920430767711793,0.26721570909444925,0.23466865826295608,0.19613228028012175,0.15430856875643773,0.1123657424221533,0.07373195787558091,0.04113795100391379,0.016358714993656542,3.986706324568355e-20,-0.008601476104316073,-0.01075283264487032,-0.008570883542768366,-0.004327437340970677,-2.9573311182007417e-19,0.002898759181610637,0.004067046517764461,0.0035744401122062407,0.0019636219581185936,2.8471530899826344e-19,-0.0018001687751404878,-0.0025837157739700915,-0.0023006693350817444,-0.0012704307943350451,-5.386608088905839e-19,0.0008507693771791286,0.0012940447775466298,0.0012193175728573806,0.000711166262197136,3.2861358435659504e-19,-0.0007728736769758411,-0.0011284531902873533,-0.0010182561113603128,-0.0005678095809234127,-4.682334516566271e-19,0.00031045943693240553,0.0005003735500374962,0.0004952261445786269,0.0003010409732500392,2.812901745094017e-19,-0.00045096632461457016,-0.0006363455953383809,-0.0005522378058832265,-0.0002946045038423958,-3.8436128639682286e-19,5.376790849319368e-05,0.0001096217367240076,0.00012747748824405757,8.71357434119118e-05,1.3032504001971695e-19,-0.00025534973617744196,-0.0003413420064948893,-0.0002774930651130371,-0.00013661997476873102,-2.208238423946924e-19,0.0,0.0,0.0,0.0,0.0,0.0,0.0,0.0,0.0,0.0,0.0,0.0,0.0,0.0,0.0,0.0,0.0,0.0,0.0,0.0,0.0,0.0,0.0,0.0,0.0,0.0,0.0,0.0,0.0,0.0,0.0,0.0,0.0,0.0,0.0,0.0,0.0,0.0,0.0,0.0,0.0,0.0,0.0,0.0,0.0,0.0,0.0,0.0,0.0,0.0,0.0,0.0,0.0,0.0,0.0,0.0,0.0,0.0,0.0,0.0,0.0,0.0,0.0,0.0,0.0,0.0,0.0,0.0,0.0,0.0,0.0,0.0,0.0,0.0,0.0,0.0,0.0,0.0,0.0,0.0,0.0,0.0,0.0,0.0,0.0,0.0,0.0,0.0,0.0,0.0,0.0,0.0,0.0,0.0,0.0,0.0,0.0,0.0,0.0,0.0,0.0,0.0,0.0,0.0,0.0,0.0,0.0,0.0,0.0,0.0,0.0,0.0,0.0,0.0,0.0,0.0,0.0,0.0,0.0,0.0,0.0,0.0,0.0,0.0,0.0,0.0,0.0,0.0,0.0,0.0,0.0,0.0,0.0,0.0,0.0,0.0,0.0,0.0,0.0,0.0,0.0,0.0,0.0,0.0,0.0,0.0,0.0,0.0,0.0,0.0,0.0,0.0,0.0,0.0,0.0,0.0,0.0,0.0,0.0,0.0,0.0,0.0,0.0,0.0
0.4024219844583695,0.43697683222839856,0.44043045105374434,0.41788690119618593,0.3791402060874179,0.3357454657777752,0.29784550535800175,0.2721148795068059,0.2605741304025395,0.26111379783675215,0.2690689470971809,0.27917438509170683,0.2875261092025119,0.29239887129752207,0.29427508700625177,0.29503685510104954,0.2966385516115327,0.300533993291502,0.3067847984127326,0.3142208068383062,0.3210047631049182,0.3251611709150397,0.3259593247940724,0.3236460558127905,0.3194020745497033,0.31481095030889683,0.3108014947885829,0.3084320314123941,0.3077508309099624,0.3081388161266706,0.30861713751287545,0.30762719538447475,0.30515035691517767,0.3014654190413577,0.29732546092133666,0.29358375781868706,0.2904730444376226,0.28820632936361285,0.28620964702298607,0.2834161130953351,0.27855037812449873,0.2704876435594521,0.2585821436553824,0.2428771438989037,0.22414626947679533,0.20376080865874865,0.1834178616430203,0.16479260823345046,0.14919174118437903,0.13728423889414845,0.12897123919299855,0.12322370318916769,0.11909809744585212,0.11505493075653343,0.1097866787836531,0.10265154809105186,0.09377046958337255,0.0847140898109485,0.07739738916264745,0.07397376604006219,0.07633185698910516,0.08546944303647194,0.10167999339413003,0.12376172997747989,0.14949765891245795,0.1761800121058187,0.2011504027272187,0.22307914034885545,0.24172775265197416,0.2584508715452291,0.27602816722253226,0.29790771875941663,0.3279238719161178,0.36842326220296706,0.4196670621510901,0.4793124945796296,0.5422475738865935,0.6017746834752716,0.6498517155331243,0.6787709007208899,0.682596821936727,0.6581746326623877,0.6063861031713977,0.5313445698069184,0.4400548614365676,0.3412984109683635,0.24408714596739164,0.15684444078687598,0.08551200750839878,0.033177746252060436,-3.441293971854115e-19,-0.016504034467018272,-0.020109429324569744,-0.01563157993205789,-0.0077029575715076085,4.4677543568495485e-20,0.005092850678745136,0.006955478639356048,0.005954050945175933,0.003189082257141068,-2.581393199333943e-20,-0.0025376374737532664,-0.003643074784180994,-0.003255040960804211,-0.0018087487645418246,-2.2534267857155106e-19,0.001433422944088521,0.0021346054629387996,0.001972662638450449,0.0011306059027240472,3.028188974874911e-19,-0.0010195295007600132,-0.0015265411042416945,-0.001415023235682089,-0.0008117735381310458,-4.469275518871635e-19,0.0006110648992683947,0.0009525754990171607,0.0009160823263307414,0.0005433124422377683,4.388963884878468e-19,-0.0006383789778874986,-0.0009274797420768801,-0.0008312331615515983,-0.0004594931765698365,-5.396117098920592e-19,0.00011892341350650893,0.00024246044696681957,0.00028195364990137636,0.0001927261136870068,2.8825184127217885e-19,-0.0005647804260054474,-0.0007549774153977316,-0.0006137568570628647,-0.0003021749256757363,-4.884163408462212e-19,0.0,0.0,0.0,0.0,0.0,0.0,0.0,0.0,0.0,0.0,0.0,0.0,0.0,0.0,0.0,0.0,0.0,0.0,0.0,0.0,0.0,0.0,0.0,0.0,0.0,0.0,0.0,0.0,0.0,0.0,0.0,0.0,0.0,0.0,0.0,0.0,0.0,0.0,0.0,0.0,0.0,0.0,0.0,0.0,0.0,0.0,0.0,0.0,0.0,0.0,0.0,0.0,0.0,0.0,0.0,0.0,0.0,0.0,0.0,0.0,0.0,0.0,0.0,0.0,0.0,0.0,0.0,0.0,0.0,0.0,0.0,0.0,0.0,0.0,0.0,0.0,0.0,0.0,0.0,0.0,0.0,0.0,0.0,0.0,0.0,0.0,0.0,0.0,0.0,0.0,0.0,0.0,0.0,0.0,0.0,0.0,0.0,0.0,0.0,0.0,0.0,0.0,0.0,0.0,0.0,0.0,0.0,0.0,0.0,0.0,0.0,0.0,0.0,0.0,0.0,0.0,0.0,0.0,0.0,0.0,0.0,0.0,0.0,0.0,0.0,0.0,0.0,0.0,0.0,0.0,0.0,0.0,0.0,0.0,0.0,0.0,0.0,0.0,0.0,0.0,0.0,0.0,0.0,0.0,0.0,0.0,0.0,0.0,0.0,0.0,0.0,0.0,0.0,0.0,0.0,0.0,0.0,0.0,0.0,0.0,0.0,0.0,0.0,0.0
0.682596821936727,0.70155649961197,0.6453162110571332,0.5230174683264764,0.3551635476593482,0.16843967459755563,-0.01054768449439931,-0.16007209109851364,-0.26700825616794344,-0.32754127453272536,-0.34571747274161574,-0.3307662260185381,-0.29331807539921473,-0.24322978963615408,-0.18802630114932428,-0.13263538899813457,-0.08026803699959226,-0.03222303792479954,0.01071971069573765,0.04822251411131594,0.08044669474534662,0.10774128476809004,0.13211708940180047,0.15586394302642956,0.1811764942637626,0.20935828166011786,0.23981763054082555,0.2710277641503281,0.30002916112720573,0.32341592857566515,0.33826986857488917,0.34268967844099263,0.33706018208438504,0.32335909571510374,0.3047688893773434,0.2848409303683711,0.2665032922002681,0.251853788701553,0.241591802124702,0.235214855068031,0.23141199216185301,0.22858021465047648,0.22530624431949037,0.2206995666970081,0.21452846239244655,0.2071724921150811,0.19944484296403847,0.19235102312901187,0.18684276862945018,0.18360933117673509,0.18293299206830918,0.18427568643923606,0.1876620577296315,0.19205485896238567,0.19628163312869606,0.19942067934178578,0.20106371812675042,0.20187465434217,0.20319920027423266,0.20707615701520576,0.2159083666152623,0.23215804611125487,0.2571056012871606,0.2912204575573563,0.33345154108636843,0.3811005585258727,0.4301269419037873,0.4754804055799311,0.5122889237983416,0.5366342555426715,0.5462927504364831,0.5411027504752998,0.5230955571842607,0.4958232010454112,0.46364623781843833,0.4308079530129484,0.4004725347214804,0.37455078525802105,0.3529640861750444,0.3340822918290497,0.3153231555894137,0.2937584290370856,0.26754922014651855,0.2356520936776535,0.19843724003743768,0.15766157779470685,0.1159666844413399,0.07685436333690987,0.04328129348993058,0.017356970208851782,-1.2637818158923098e-19,-0.009259441969565175,-0.011640129950624384,-0.009322943999499074,-0.0047269332307447055,-1.7706368309573671e-19,0.0032547008297894985,0.004563996286213009,0.004005595200313057,0.002196137618509151,2.115103044423949e-19,-0.0018678515266151536,-0.002714398201991035,-0.002450249730575247,-0.0013730392848431746,-4.387112075059521e-19,0.001039030023068952,0.0015745053162919478,0.001477961137319763,0.0008587994815210322,4.139269406860944e-19,-0.0008719719437777782,-0.001286700048300917,-0.0011737983299217138,-0.0006619036154267761,-5.456012786544616e-19,0.0003552403882351382,0.0005887916530652256,0.0005961633852885693,0.0003692213539901014,3.7959307838163384e-19,-0.0006413974313488992,-0.0008916349592133804,-0.0007605334436333418,-0.000397649694378861,-5.489218305219493e-19,5.4936244669203955e-05,0.00011200373454168253,0.00013024747810076373,8.902913752197961e-05,1.331569050329207e-19,-0.000260898293721735,-0.0003487591113396941,-0.00028352278052598757,-0.00013958862397531337,-2.2562217825757903e-19,0.0,0.0,0.0,0.0,0.0,0.0,0.0,0.0,0.0,0.0,0.0,0.0,0.0,0.0,0.0,0.0,0.0,0.0,0.0,0.0,0.0,0.0,0.0,0.0,0.0,0.0,0.0,0.0,0.0,0.0,0.0,0.0,0.0,0.0,0.0,0.0,0.0,0.0,0.0,0.0,0.0,0.0,0.0,0.0,0.0,0.0,0.0,0.0,0.0,0.0,0.0,0.0,0.0,0.0,0.0,0.0,0.0,0.0,0.0,0.0,0.0,0.0,0.0,0.0,0.0,0.0,0.0,0.0,0.0,0.0,0.0,0.0,0.0,0.0,0.0,0.0,0.0,0.0,0.0,0.0,0.0,0.0,0.0,0.0,0.0,0.0,0.0,0.0,0.0,0.0,0.0,0.0,0.0,0.0,0.0,0.0,0.0,0.0,0.0,0.0,0.0,0.0,0.0,0.0,0.0,0.0,0.0,0.0,0.0,0.0,0.0,0.0,0.0,0.0,0.0,0.0,0.0,0.0,0.0,0.0,0.0,0.0,0.0,0.0,0.0,0.0,0.0,0.0,0.0,0.0,0.0,0.0,0.0,0.0,0.0,0.0,0.0,0.0,0.0,0.0,0.0,0.0,0.0,0.0,0.0,0.0,0.0,0.0,0.0,0.0,0.0,0.0,0.0,0.0,0.0,0.0,0.0,0.0,0.0,0.0,0.0,0.0,0.0,0.0
0.5462927504364831,0.5894293814791142,0.5891383798359702,0.5529179197722117,0.49472889630664113,0.4308079530129484,0.3750411744609235,0.33634373932987327,0.31675995948533864,0.3123097619390801,0.3153231555894137,0.3172572128786254,0.3120856444580008,0.29739755887902364,0.27465333572028633,0.24802953686836368,0.22237991100677917,0.20196052461551328,0.18880153267026295,0.18249762267339864,0.18073591814731366,0.18020004026727496,0.17814777817509583,0.17291356128534374,0.16430309638527052,0.1533944018562623,0.14186503696857575,0.13184982254339747,0.12513265970707702,0.1229747598090109,0.12605288556521094,0.13435800504546488,0.14773375698186444,0.1655578705759761,0.18680721109978407,0.21003900060483646,0.23337755368185045,0.2549391737743757,0.27295947222216926,0.28616539730126983,0.29402511564446193,0.29683350481944626,0.2955977230765814,0.29175418726273683,0.2868036934179728,0.2819746495962008,0.27800842387581426,0.2751139565540263,0.27308016175884875,0.271485891320538,0.26992418354793957,0.2678843671555385,0.2658907517031404,0.2640459894650285,0.26246816132454764,0.26122432036364585,0.2600391504759302,0.2590990579241248,0.2579404652323042,0.25594831365849147,0.2525244571793521,0.24708845722997777,0.23981095283925427,0.23083282108071593,0.220544284641873,0.20953361223063635,0.19837004402165997,0.18799144337228132,0.1789757873401634,0.17173794347952023,0.16654276728192055,0.16343345909648685,0.16259429418818813,0.16386325595809012,0.16687471754713143,0.17104131014898044,0.1754697904707652,0.17929067620999867,0.18133636255758645,0.18042344851953626,0.17553985301604033,0.1659701971953717,0.15169758524765203,0.1331585724574728,0.1113574702530225,0.08776992650802017,0.0640449774274259,0.042165581461446555,0.023634342908048445,0.009452475230720778,1.408411063132154e-19,-0.005129342788512953,-0.0064523010693042174,-0.0051684593909066615,-0.0026188895841092776,-3.518428157810288e-19,0.0017099669510635988,0.0024110141953567425,0.002128961471740437,0.0011746617936199445,2.2295018915240845e-19,-0.0010990439275458301,-0.0015776775367431712,-0.001404367609928194,-0.0007748550311213439,-3.796329631649489e-19,0.00048801316713250123,0.0007512974088019473,0.0007157816154428043,0.00042165721117077204,2.2134679112982173e-19,-0.0005122797509930672,-0.000737263159010894,-0.0006549225100713034,-0.00035907759772791596,-3.2946845088674554e-19,0.00017379268116200124,0.0002789113631273899,0.00027505533463471053,0.0001667009188814324,1.532216198482313e-19,-0.00024323328438400428,-0.0003442058591858303,-0.00029968489089196094,-0.0001604675075508533,-2.0714346706092092e-19,3.058291198583025e-05,6.23522844744568e-05,7.25085448253252e-05,4.956236621931682e-05,7.412821774492755e-20,-0.0001452416269475728,-0.0001941535915056348,-0.0001578366394538956,-7.770874450858274e-05,-1.2560347474152941e-19,0.0,0.0,0.0,0.0,0.0,0.0,0.0,0.0,0.0,0.0,0.0,0.0,0.0,0.0,0.0,0.0,0.0,0.0,0.0,0.0,0.0,0.0,0.0,0.0,0.0,0.0,0.0,0.0,0.0,0.0,0.0,0.0,0.0,0.0,0.0,0.0,0.0,0.0,0.0,0.0,0.0,0.0,0.0,0.0,0.0,0.0,0.0,0.0,0.0,0.0,0.0,0.0,0.0,0.0,0.0,0.0,0.0,0.0,0.0,0.0,0.0,0.0,0.0,0.0,0.0,0.0,0.0,0.0,0.0,0.0,0.0,0.0,0.0,0.0,0.0,0.0,0.0,0.0,0.0,0.0,0.0,0.0,0.0,0.0,0.0,0.0,0.0,0.0,0.0,0.0,0.0,0.0,0.0,0.0,0.0,0.0,0.0,0.0,0.0,0.0,0.0,0.0,0.0,0.0,0.0,0.0,0.0,0.0,0.0,0.0,0.0,0.0,0.0,0.0,0.0,0.0,0.0,0.0,0.0,0.0,0.0,0.0,0.0,0.0,0.0,0.0,0.0,0.0,0.0,0.0,0.0,0.0,0.0,0.0,0.0,0.0,0.0,0.0,0.0,0.0,0.0,0.0,0.0,0.0,0.0,0.0,0.0,0.0,0.0,0.0,0.0,0.0,0.0,0.0,0.0,0.0,0.0,0.0,0.0,0.0,0.0,0.0,0.0,0.0
0.39537247480216947,0.4278940374642062,0.43126134513447295,0.4118888566989541,0.3804577620104589,0.3484950610553604,0.32464509035238154,0.3127493264293727,0.31044570435718855,0.31019028219566036,0.3016176473085512,0.27442686134345196,0.22188550671020194,0.14236531804584565,0.040036334954226385,-0.07596576648668249,-0.19364716947846813,-0.2999074169183932,-0.38332282834246867,-0.4357976053024058,-0.45354918028191615,-0.4374882272517484,-0.3919652056419661,-0.3242383176189248,-0.24306219048456346,-0.15738057278253328,-0.07555170329489909,-0.0031736530676821093,0.056569641486757076,0.1032453254630624,0.1387880347168496,0.16612727383830997,0.18994348548382353,0.21426540345311937,0.24184999987636122,0.27354270625946553,0.3078172328103885,0.34201216609123347,0.3724237693940137,0.3954153960066468,0.4082973778020814,0.4099381310425736,0.40097637185603596,0.38361417489222327,0.3610767126032772,0.33689842094979805,0.31422050277869146,0.2952600070899788,0.2810489859178785,0.2714645630174865,0.2654994640975147,0.261471606200186,0.25824713927283477,0.25458974575264215,0.24979349628233563,0.2438007055463973,0.23696331947182564,0.23052954164522882,0.2254654794323813,0.2225295724145499,0.22210194699527988,0.2239419929491707,0.22779211343020314,0.23270827257929,0.2375757581805452,0.24144029273235496,0.243899520794158,0.2452524639019868,0.24686310329551356,0.251047252458849,0.26077863846943,0.2793870650379815,0.3089500835308819,0.35069894220996317,0.40390770567792145,0.4654762350558951,0.5300547372666297,0.5903011132680539,0.6383129387013942,0.6667621513955775,0.6701738316423601,0.645873690086915,0.5948058044329277,0.5211259956696106,0.4317107212890399,0.33508691582118005,0.23997217267822046,0.15450012095269264,0.0844458915882284,0.03286432606905316,-1.8252971731944878e-19,-0.01653812625759922,-0.020231617229042945,-0.01578704671398437,-0.007807600314860108,-1.7707334636922338e-19,0.005127863988075545,0.0070360510477562,0.006051747833866587,0.003256786916170127,1.0069126017559829e-19,-0.0026829047996224514,-0.0038466733302045565,-0.0034297288971615533,-0.0019004143118287447,-3.905597368485309e-19,0.0014245397342039726,0.002135226285445579,0.001985530944305711,0.0011446068662375125,3.5462234231571553e-19,-0.001116591958333509,-0.0016522014483534419,-0.001512854133637419,-0.000857091640231681,-5.389650119012588e-19,0.0005981621797398525,0.0009316067245975085,0.0008951860687408872,0.0005305371583480358,4.265903722334413e-19,-0.000618299806296527,-0.000899289726489224,-0.0008069104087999783,-0.00044660372640966794,-5.224740672309153e-19,0.00011675905474554569,0.00023804776339924802,0.0002768222057697616,0.00018921857517692183,2.830057725660613e-19,-0.0005545016471930779,-0.0007412371271301406,-0.0006025867267115989,-0.0002966754623787644,-4.795273579694372e-19,0.0,0.0,0.0,0.0,0.0,0.0,0.0,0.0,0.0,0.0,0.0,0.0,0.0,0.0,0.0,0.0,0.0,0.0,0.0,0.0,0.0,0.0,0.0,0.0,0.0,0.0,0.0,0.0,0.0,0.0,0.0,0.0,0.0,0.0,0.0,0.0,0.0,0.0,0.0,0.0,0.0,0.0,0.0,0.0,0.0,0.0,0.0,0.0,0.0,0.0,0.0,0.0,0.0,0.0,0.0,0.0,0.0,0.0,0.0,0.0,0.0,0.0,0.0,0.0,0.0,0.0,0.0,0.0,0.0,0.0,0.0,0.0,0.0,0.0,0.0,0.0,0.0,0.0,0.0,0.0,0.0,0.0,0.0,0.0,0.0,0.0,0.0,0.0,0.0,0.0,0.0,0.0,0.0,0.0,0.0,0.0,0.0,0.0,0.0,0.0,0.0,0.0,0.0,0.0,0.0,0.0,0.0,0.0,0.0,0.0,0.0,0.0,0.0,0.0,0.0,0.0,0.0,0.0,0.0,0.0,0.0,0.0,0.0,0.0,0.0,0.0,0.0,0.0,0.0,0.0,0.0,0.0,0.0,0.0,0.0,0.0,0.0,0.0,0.0,0.0,0.0,0.0,0.0,0.0,0.0,0.0,0.0,0.0,0.0,0.0,0.0,0.0,0.0,0.0,0.0,0.0,0.0,0.0,0.0,0.0,0.0,0.0,0.0,0.0
0.4082973778020814,0.44287318799427045,0.44562420742379727,0.4218299564224971,0.3816124739489719,0.33689842094979805,0.29791516435932136,0.2715327360019313,0.2595679997330139,0.25937874122965615,0.2654994640975147,0.27166820038758543,0.2733000367044535,0.26835039278631073,0.25758028934458016,0.2438007055463973,0.23044232003096224,0.220694983325631,0.2162737725025645,0.2172041877138371,0.22210194699527988,0.22869040005093177,0.234951791465959,0.23940434692349974,0.24146367834917784,0.24144029273235493,0.24017933817893258,0.2394014342385947,0.24110169791889274,0.24748857466902396,0.26077863846943,0.282662928640464,0.31460554914671957,0.35684898696545003,0.4081302541507169,0.4654762350558951,0.5242418008896356,0.5790306067277581,0.6243299076473764,0.6556016158338897,0.6701738316423601,0.667763751446054,0.6504861106206938,0.6223384481974735,0.5882942460288173,0.5532350950782781,0.5209855204614959,0.49367332281865023,0.4715409029462975,0.45321071865753626,0.4362963585141959,0.41796842867936335,0.39650286240780963,0.3707661799353523,0.34086689333856773,0.3081226266944079,0.2745599729635638,0.2430598528461999,0.21591437455760398,0.19468381662589884,0.17994889487461976,0.1711473534400636,0.16727492647817496,0.1665271054252319,0.16697352657962955,0.16699320806364798,0.16548721040590333,0.16253769930832748,0.1587696313032306,0.1554160454456925,0.15403752125267625,0.1560460509408187,0.1627691573169619,0.17456410325929078,0.19085915075594231,0.2101664530061481,0.23013098254839762,0.24830864887746384,0.2619222905536386,0.26850597169627516,0.26629538475961995,0.25437582963249167,0.23332820852740932,0.20452091176358667,0.17018670550319004,0.13314769237980997,0.09620933439954227,0.06267293493678214,0.034751414680781675,0.013752883075034718,3.0423380064518633e-19,-0.0074491763523179405,-0.009280176449274955,-0.007355348207680086,-0.003684303531008702,-6.331269714092657e-19,0.0022589053621240463,0.0031582236643155504,0.002768479346978072,0.001518022843872065,2.3336074181628007e-19,-0.001453230963833511,-0.0020658741614243033,-0.0018206028891568481,-0.000994272728212371,-4.566004939082929e-19,0.0006236013616747059,0.0009441239898713644,0.0008860724940813062,0.000515075033646581,2.0343967227018299e-19,-0.0005498321533128308,-0.0008038802142000603,-0.000726648572232134,-0.0004060729806439555,-3.05038086122506e-19,0.0002464650125073324,0.0003880845175289803,0.0003765296291152163,0.00022504507559356927,1.9079704437903163e-19,-0.0002873976359641239,-0.00041309764101196363,-0.00036595995551256285,-0.00019977776019090067,-2.4368078786247535e-19,4.639452622529007e-05,9.458892268326968e-05,0.00010999605224037507,7.518651266481436e-05,1.124531092328452e-19,-0.000220332729386431,-0.00029453257744115063,-0.00023943946579868593,-0.00011788479745513478,-1.9054149276508983e-19,0.0,0.0,0.0,0.0,0.0,0.0,0.0,0.0,0.0,0.0,0.0,0.0,0.0,0.0,0.0,0.0,0.0,0.0,0.0,0.0,0.0,0.0,0.0,0.0,0.0,0.0,0.0,0.0,0.0,0.0,0.0,0.0,0.0,0.0,0.0,0.0,0.0,0.0,0.0,0.0,0.0,0.0,0.0,0.0,0.0,0.0,0.0,0.0,0.0,0.0,0.0,0.0,0.0,0.0,0.0,0.0,0.0,0.0,0.0,0.0,0.0,0.0,0.0,0.0,0.0,0.0,0.0,0.0,0.0,0.0,0.0,0.0,0.0,0.0,0.0,0.0,0.0,0.0,0.0,0.0,0.0,0.0,0.0,0.0,0.0,0.0,0.0,0.0,0.0,0.0,0.0,0.0,0.0,0.0,0.0,0.0,0.0,0.0,0.0,0.0,0.0,0.0,0.0,0.0,0.0,0.0,0.0,0.0,0.0,0.0,0.0,0.0,0.0,0.0,0.0,0.0,0.0,0.0,0.0,0.0,0.0,0.0,0.0,0.0,0.0,0.0,0.0,0.0,0.0,0.0,0.0,0.0,0.0,0.0,0.0,0.0,0.0,0.0,0.0,0.0,0.0,0.0,0.0,0.0,0.0,0.0,0.0,0.0,0.0,0.0,0.0,0.0,0.0,0.0,0.0,0.0,0.0,0.0,0.0,0.0,0.0,0.0,0.0,0.0
0.6701738316423601,0.7251488170933392,0.7282970419858685,0.6889422927436981,0.6240867467729702,0.5532350950782781,0.49276842574041174,0.4526958529653042,0.4345247623500876,0.43243401418590305,0.4362963585141959,0.4352830781404278,0.4220396823740441,0.3940824099122187,0.3540400975491286,0.3081226266944079,0.26346041414606614,0.22642834869939607,0.2004842791844891,0.18581919628724095,0.17994889487461976,0.17876830600236,0.178654620770072,0.17703911979476197,0.1729826222179902,0.16699320806364798,0.160388112542182,0.15477677468600576,0.1514322379564072,0.1511002022031546,0.15403752125267625,0.16030232956375942,0.16955343242747656,0.18137712982129423,0.19518691256124035,0.2101664530061481,0.22532969158659966,0.23945251254051342,0.25142133031385444,0.26045381185041544,0.26629538475961995,0.26927257219981515,0.27017311326198257,0.26999126345109026,0.2696294590559777,0.2696627653995798,0.2702451016279785,0.2711788966508441,0.27210676448837856,0.27274001320535396,0.2730301460395396,0.27287279560601324,0.273344382252133,0.27478793837808996,0.27728920269691015,0.28061947518369185,0.28397006169926536,0.28714669465422754,0.2893139381288156,0.28976878488702507,0.2882088043278442,0.284660940877021,0.28031839370437844,0.27620239570060234,0.27325670341462804,0.2720107902244865,0.27212118768682625,0.27280743388783124,0.27208438547287817,0.26733475835811465,0.25581277612112885,0.23515389093596223,0.20430013960017276,0.16344544070935363,0.11437241010041833,0.060329243306383326,0.005524990798272116,-0.0451831687437055,-0.0874637786600718,-0.11803584743362538,-0.1351542895083622,-0.13889976627631728,-0.13077664203450384,-0.11373293207327646,-0.09143030127825971,-0.0675771447541811,-0.04543894797257309,-0.027009126364217123,-0.013383649093994168,-0.004624792319588714,3.2848650122641434e-19,0.0015317971183435725,0.0014834768372458257,0.0008636571499022472,0.0002887053225732973,-4.977515663657509e-19,-0.00016382973835683996,-9.002626558164695e-05,3.620184749385247e-05,7.849527594140562e-05,3.382112668175933e-19,-0.00028634845006529283,-0.0004268571710193932,-0.00038818563157447944,-0.0002157357233955443,-4.365478345360496e-19,2.5085997332266463e-05,7.375556956202602e-05,9.950769338596581e-05,7.344914318820213e-05,2.1473825118825979e-19,-0.00023557976470747473,-0.000316218571195381,-0.0002577435319445875,-0.00012695935129745104,-2.841442579421827e-19,-6.690086537167433e-05,-7.833151376827625e-05,-5.3143114316355064e-05,-1.9918088877731192e-05,4.4204398983406654e-20,-0.00013048066780665474,-0.00015974621051687628,-0.00011457151979128114,-4.645888596656008e-05,-1.1530382777582925e-19,-2.354685656575067e-05,-4.8007210685077e-05,-5.5826871737533996e-05,-3.815980404240694e-05,-5.707391472477404e-20,0.0001118266226151167,0.0001494856596071267,0.0001215239644858852,5.983068785915321e-05,9.670652046701737e-20,0.0,0.0,0.0,0.0,0.0,0.0,0.0,0.0,0.0,0.0,0.0,0.0,0.0,0.0,0.0,0.0,0.0,0.0,0.0,0.0,0.0,0.0,0.0,0.0,0.0,0.0,0.0,0.0,0.0,0.0,0.0,0.0,0.0,0.0,0.0,0.0,0.0,0.0,0.0,0.0,0.0,0.0,0.0,0.0,0.0,0.0,0.0,0.0,0.0,0.0,0.0,0.0,0.0,0.0,0.0,0.0,0.0,0.0,0.0,0.0,0.0,0.0,0.0,0.0,0.0,0.0,0.0,0.0,0.0,0.0,0.0,0.0,0.0,0.0,0.0,0.0,0.0,0.0,0.0,0.0,0.0,0.0,0.0,0.0,0.0,0.0,0.0,0.0,0.0,0.0,0.0,0.0,0.0,0.0,0.0,0.0,0.0,0.0,0.0,0.0,0.0,0.0,0.0,0.0,0.0,0.0,0.0,0.0,0.0,0.0,0.0,0.0,0.0,0.0,0.0,0.0,0.0,0.0,0.0,0.0,0.0,0.0,0.0,0.0,0.0,0.0,0.0,0.0,0.0,0.0,0.0,0.0,0.0,0.0,0.0,0.0,0.0,0.0,0.0,0.0,0.0,0.0,0.0,0.0,0.0,0.0,0.0,0.0,0.0,0.0,0.0,0.0,0.0,0.0,0.0,0.0,0.0,0.0,0.0,0.0,0.0,0.0,0.0,0.0
0.39366241189467366,0.4252787179601925,0.42521214289423515,0.39854002383185977,0.3551495823882757,0.3068168402492491,0.2637095593834961,0.23308014771235433,0.2173288705350132,0.21454517337623308,0.21997126860382454,0.22768157228646463,0.23339242394058307,0.23488807209885637,0.23237981813195185,0.22782765496730245,0.22354005254293924,0.22182191523270312,0.22366683942866844,0.22873376392063444,0.2356840413307803,0.2426168097847111,0.248299638488335,0.25214208591508197,0.2543685641552752,0.25577228870115437,0.25714890329047513,0.25946127732698226,0.26325297716434093,0.2687287683907051,0.27586053607152844,0.28437389829251364,0.29428433180442154,0.3055372473511665,0.3179838873602722,0.3312562810964373,0.34464541552719563,0.3574176466849546,0.3688574678950461,0.3785661465568841,0.3866520261213462,0.39376297022129136,0.4009212175817105,0.4091950062948513,0.419306780169847,0.43130908242068294,0.4444439666939232,0.45724494164805846,0.46786216200329017,0.4745190391297844,0.4759661387200197,0.47159719320820676,0.4623210773161763,0.44939490034096136,0.43448009019735756,0.4192598594879278,0.4049060933593694,0.3924160435627295,0.3817262331832261,0.37212538361390285,0.3625535802558359,0.3518454054221028,0.33947416915997153,0.3251702500369215,0.3091762156132636,0.29216810395545456,0.27495705688651,0.25871771772864777,0.2442028988567517,0.23185089967271155,0.2217826276550732,0.21374239459124622,0.20765301824139948,0.20308944735085716,0.1995708422221666,0.19660794134561738,0.1935757847166633,0.19019428763440022,0.1858419108207841,0.1798188231459719,0.17143325503616152,0.1599814523557234,0.14542736009953067,0.12780951165193402,0.10759496862840334,0.08571662751808076,0.06333375398656178,0.04230821058487287,0.02409346637678486,0.009796981489633351,2.8867313912234246e-19,-0.0055324358824392125,-0.007062699241897572,-0.005734431585646913,-0.002941586128510267,-5.636918666320746e-19,0.0019058884519218364,0.0027278226839801472,0.002443169594014939,0.0013659598152707796,3.7430663365737793e-19,-0.0013871634576607325,-0.0019844580578397067,-0.0017576990180313097,-0.0009636071458759806,-6.028065104088462e-19,0.0005455679225285334,0.0008489337082717746,0.0008164114522080314,0.00048484425678884486,2.9305212332930823e-19,-0.0006317407195910571,-0.0009021478885075465,-0.0007943568646245043,-0.00043122224051752017,-4.343546228589171e-19,0.00018002974793794807,0.00029339175909991124,0.0002930473865239633,0.00017949770195387798,1.746094990750941e-19,-0.0002864721525932898,-0.00040156005860171454,-0.00034584614020294926,-0.000182892085889784,-2.4461091083644357e-19,2.986745209212539e-05,6.089360850393389e-05,7.081227222062827e-05,4.840289895591618e-05,7.239405433979179e-20,-0.00014184382888878834,-0.00018961154174904535,-0.0001541441923337935,-7.589081787975786e-05,-1.2266509370282483e-19,0.0,0.0,0.0,0.0,0.0,0.0,0.0,0.0,0.0,0.0,0.0,0.0,0.0,0.0,0.0,0.0,0.0,0.0,0.0,0.0,0.0,0.0,0.0,0.0,0.0,0.0,0.0,0.0,0.0,0.0,0.0,0.0,0.0,0.0,0.0,0.0,0.0,0.0,0.0,0.0,0.0,0.0,0.0,0.0,0.0,0.0,0.0,0.0,0.0,0.0,0.0,0.0,0.0,0.0,0.0,0.0,0.0,0.0,0.0,0.0,0.0,0.0,0.0,0.0,0.0,0.0,0.0,0.0,0.0,0.0,0.0,0.0,0.0,0.0,0.0,0.0,0.0,0.0,0.0,0.0,0.0,0.0,0.0,0.0,0.0,0.0,0.0,0.0,0.0,0.0,0.0,0.0,0.0,0.0,0.0,0.0,0.0,0.0,0.0,0.0,0.0,0.0,0.0,0.0,0.0,0.0,0.0,0.0,0.0,0.0,0.0,0.0,0.0,0.0,0.0,0.0,0.0,0.0,0.0,0.0,0.0,0.0,0.0,0.0,0.0,0.0,0.0,0.0,0.0,0.0,0.0,0.0,0.0,0.0,0.0,0.0,0.0,0.0,0.0,0.0,0.0,0.0,0.0,0.0,0.0,0.0,0.0,0.0,0.0,0.0,0.0,0.0,0.0,0.0,0.0,0.0,0.0,0.0,0.0,0.0,0.0,0.0,0.0,0.0
0.4759661387200197,0.5180431398643012,0.524711461091616,0.502392157800751,0.4627842933829867,0.4192598594879278,0.3829409705217113,0.36055254264037684,0.3529387319835777,0.3559450633037231,0.3625535802558359,0.3653598406523534,0.3595288233020497,0.3436252556050175,0.3197060894034597,0.29216810395545456,0.2658292337503779,0.24480352615288012,0.23101928187308157,0.22407897010756628,0.2217826276550732,0.22096317565869897,0.21900958874899518,0.2142883592767087,0.20652089414787025,0.19660794134561738,0.18602179900317753,0.17671282493482676,0.17038025935760756,0.16833353677019938,0.17143325503616152,0.17997932277513948,0.19411539431536906,0.21347812770998537,0.23716212912831325,0.26362796748930745,0.29065693528769837,0.3157418054800122,0.33629446392313544,0.3501207393464633,0.3558226799424533,0.35305444384350143,0.3425625075016733,0.32600600250197487,0.3056155033503425,0.2837870001527358,0.2627117546677293,0.24411562375950405,0.229137220559711,0.21833079084627877,0.21175132036301825,0.2088278093706698,0.20941799631403882,0.21267327360069577,0.21759754011893004,0.2231772616147966,0.22826888529690179,0.23249844281116924,0.2352243516680615,0.23599181297320723,0.2346032028665749,0.23095917368721547,0.22574526094109845,0.21941480630982982,0.2124487857082853,0.20529840977180075,0.19818596018813517,0.19165114206377126,0.18579280922946317,0.18059139255859197,0.1759936166770266,0.1718671808218529,0.16846497607467095,0.16582691896217963,0.16393862533029832,0.16267692177253268,0.16165324245522583,0.16056871443238238,0.1587178725087214,0.15525801606637485,0.14936022686803874,0.1402950554156775,0.127930245906974,0.11239735227021955,0.09429962983754857,0.07468011343401937,0.05475887813776578,0.036249649516033974,0.020437974979842635,0.008224044729302243,1.513530702285305e-19,-0.004567627507550163,-0.005773124178186711,-0.004641302635103636,-0.0023578460373814064,-3.72931701535949e-19,0.0015280060249653424,0.002158295294123525,0.0019084625248416472,0.001054132157405685,1.9849981510517187e-19,-0.0009718797842143928,-0.0014003648370634059,-0.001251463382388403,-0.0006933460720765249,-3.3284603408825797e-19,0.0004469507793993788,0.0006891874756302383,0.0006574751359290977,0.00038772272166045585,2.12863098387603e-19,-0.00047280715650380883,-0.000680396072845976,-0.0006042855365885678,-0.00033120748283934243,-3.116414381842631e-19,0.00015384746654545714,0.00024949457703665073,0.00024819747767965876,0.0001515206617067438,1.4485014920311508e-19,-0.0002353284456495074,-0.00033079629870745326,-0.00028582120174320196,-0.00015171479510081427,-2.0078501109610505e-19,2.602184400867343e-05,5.305320242004742e-05,6.169478052367016e-05,4.217074433779744e-05,6.307289899971634e-20,-0.0001235806113474998,-0.00016519795349194183,-0.00013429723149402723,-6.611943390639504e-05,-1.0687124980727058e-19,0.0,0.0,0.0,0.0,0.0,0.0,0.0,0.0,0.0,0.0,0.0,0.0,0.0,0.0,0.0,0.0,0.0,0.0,0.0,0.0,0.0,0.0,0.0,0.0,0.0,0.0,0.0,0.0,0.0,0.0,0.0,0.0,0.0,0.0,0.0,0.0,0.0,0.0,0.0,0.0,0.0,0.0,0.0,0.0,0.0,0.0,0.0,0.0,0.0,0.0,0.0,0.0,0.0,0.0,0.0,0.0,0.0,0.0,0.0,0.0,0.0,0.0,0.0,0.0,0.0,0.0,0.0,0.0,0.0,0.0,0.0,0.0,0.0,0.0,0.0,0.0,0.0,0.0,0.0,0.0,0.0,0.0,0.0,0.0,0.0,0.0,0.0,0.0,0.0,0.0,0.0,0.0,0.0,0.0,0.0,0.0,0.0,0.0,0.0,0.0,0.0,0.0,0.0,0.0,0.0,0.0,0.0,0.0,0.0,0.0,0.0,0.0,0.0,0.0,0.0,0.0,0.0,0.0,0.0,0.0,0.0,0.0,0.0,0.0,0.0,0.0,0.0,0.0,0.0,0.0,0.0,0.0,0.0,0.0,0.0,0.0,0.0,0.0,0.0,0.0,0.0,0.0,0.0,0.0,0.0,0.0,0.0,0.0,0.0,0.0,0.0,0.0,0.0,0.0,0.0,0.0,0.0,0.0,0.0,0.0,0.0,0.0,0.0,0.0
0.6147202923147526,0.6396023781982576,0.601487008069006,0.5086539335011812,0.37885259641164853,0.23463449427438013,0.09782658982944972,-0.014354020084767442,-0.09236040247643927,-0.13452828623528734,-0.14545130376599236,-0.13346643063036942,-0.1070889593097501,-0.07342700282387404,-0.03713465366301817,-0.0006440334861037799,0.03464584778583707,0.0680932682140782,0.098562272632699,0.12446538352528295,0.14416323679378476,0.15631645247547452,0.16123316714288718,0.16037844809806645,0.1561856704628785,0.15136243685004036,0.1478287410593014,0.1470484836367712,0.14918356097400692,0.15345093744521857,0.15856163690629602,0.1629154953734142,0.16594385916011198,0.16756585156622508,0.16825549671839313,0.16873996924746829,0.1695017826552653,0.1710075803364201,0.17327751477855244,0.17604597973497155,0.17891830158864053,0.1815351552936304,0.18368124809180664,0.18531357934134954,0.1865249201795966,0.18748217423678307,0.18837928597142983,0.1894246434795692,0.19085613274948965,0.19295742477873054,0.1960460468849256,0.20010219074621582,0.20589575505557353,0.21331097054083809,0.22192243639795153,0.2310973644597378,0.24001612819993517,0.2482847061380289,0.25545771637182824,0.2613619558270156,0.26614868203454994,0.2703301787621173,0.27436194916325324,0.2788260104932746,0.2840863680076695,0.29013679132988895,0.2965767928376957,0.3027362851796784,0.3079218594413559,0.31170084880161897,0.3141249006252281,0.31572849225479277,0.3176889028732554,0.32114647154694587,0.3269366019468698,0.33520342320014723,0.3450594005299993,0.3548382446674495,0.3619158662322476,0.3633087340493422,0.35628194577506644,0.33887810819033676,0.31070013738389923,0.27272066938352446,0.22736031146205277,0.17814097288753322,0.12903618149222898,0.08414235664711675,0.046619006399865055,0.01839935828182663,-1.0128338158334453e-19,-0.009496001285109006,-0.011780031217914759,-0.009321124699557284,-0.004674078460379476,-1.474218165491436e-19,0.0031643662899636747,0.004398394520102156,0.003829593858278838,0.0020845907891642625,1.8269034270734452e-19,-0.0017639141499310841,-0.0025467501119248205,-0.0022847020271401734,-0.001272727089060937,-3.8641859070241177e-19,0.0009278548826250638,0.0014074284592095207,0.0013229258606130157,0.0007699539657788218,3.339243787505179e-19,-0.0008215302473768052,-0.0012020845361492014,-0.0010873069139492502,-0.0006079182376813755,-4.804301852865799e-19,0.00034857257185571004,0.0005576004330323471,0.0005483915284322325,0.0003315952052392046,3.008929900091872e-19,-0.0004739032063938081,-0.0006721823596620975,-0.0005867648411633055,-0.00031511208500704187,-4.0332736765822026e-19,6.207216881276274e-05,0.0001265524201734976,0.00014716592837368326,0.00010059354596942197,1.5045327429200533e-19,-0.0002947875856526385,-0.0003940610532157852,-0.00032035087219819546,-0.0001577204391000913,-2.5492929160042283e-19,0.0,0.0,0.0,0.0,0.0,0.0,0.0,0.0,0.0,0.0,0.0,0.0,0.0,0.0,0.0,0.0,0.0,0.0,0.0,0.0,0.0,0.0,0.0,0.0,0.0,0.0,0.0,0.0,0.0,0.0,0.0,0.0,0.0,0.0,0.0,0.0,0.0,0.0,0.0,0.0,0.0,0.0,0.0,0.0,0.0,0.0,0.0,0.0,0.0,0.0,0.0,0.0,0.0,0.0,0.0,0.0,0.0,0.0,0.0,0.0,0.0,0.0,0.0,0.0,0.0,0.0,0.0,0.0,0.0,0.0,0.0,0.0,0.0,0.0,0.0,0.0,0.0,0.0,0.0,0.0,0.0,0.0,0.0,0.0,0.0,0.0,0.0,0.0,0.0,0.0,0.0,0.0,0.0,0.0,0.0,0.0,0.0,0.0,0.0,0.0,0.0,0.0,0.0,0.0,0.0,0.0,0.0,0.0,0.0,0.0,0.0,0.0,0.0,0.0,0.0,0.0,0.0,0.0,0.0,0.0,0.0,0.0,0.0,0.0,0.0,0.0,0.0,0.0,0.0,0.0,0.0,0.0,0.0,0.0,0.0,0.0,0.0,0.0,0.0,0.0,0.0,0.0,0.0,0.0,0.0,0.0,0.0,0.0,0.0,0.0,0.0,0.0,0.0,0.0,0.0,0.0,0.0,0.0,0.0,0.0,0.0,0.0,0.0,0.0
0.5903706530932681,0.6151731412913934,0.5800300052359963,0.49292378693840205,0.37085406629095935,0.23534115282592047,0.10717608840976911,0.0025063197780470082,-0.06993970977423448,-0.10904699979606437,-0.11968834744142723,-0.11014291831559779,-0.08887528070817398,-0.06274020958751857,-0.03597074623703861,-0.010358572992008413,0.013691716358038453,0.03663184001879309,0.058654774476705696,0.07956056174275268,0.09897120145741035,0.11653894517791262,0.1328673585630895,0.14903559986770445,0.16632429085488143,0.1856049170057928,0.2065008965533772,0.22796247786495033,0.24780136692599056,0.2633656692655316,0.27223863255417524,0.27254338805454204,0.26440843846903084,0.24921225380855888,0.22942633228205875,0.20799555120603347,0.18749042758640316,0.17010683518801817,0.15700161935076473,0.1483907238391689,0.14375246985789172,0.1421357937059926,0.14246873805873125,0.14379300800664357,0.14539440032605602,0.1468373796775607,0.14793350185277504,0.1486764274639906,0.14916752503864497,0.14954491996789843,0.14992228949722972,0.15004010496833597,0.15041352005368433,0.15082599891056828,0.15098663717865585,0.15069389560980723,0.149845538535005,0.1489594303725326,0.14853260711667501,0.14917099530640934,0.15146550172238477,0.15590790223593368,0.16252068154685587,0.17108341880958258,0.18101469269445195,0.19146568901268102,0.2015255008226698,0.2104700459325142,0.2180571699354323,0.2246968037408423,0.23146587630297724,0.23986863499415792,0.2516554490174123,0.26807603832701504,0.2894911627917977,0.31503042173466156,0.3423928339405691,0.36840489707152135,0.38901773591847866,0.4001765793753267,0.3985949671663459,0.38228676099005565,0.3515258054194267,0.3082235704544555,0.2559300267832891,0.19929748358317295,0.1432429346954318,0.09257844384004299,0.05079785932274542,0.019844426506366405,-1.6955583262701596e-19,-0.010002984223881975,-0.012279894073981595,-0.00961879526478579,-0.004776787006175214,-3.673623398308719e-20,0.003197853598600583,0.004403308791038427,0.0037996927370054084,0.0020509872821711135,8.134930203181849e-20,-0.001689162835099945,-0.0024298671773128368,-0.002173487253401156,-0.001208107799839187,-2.646946457110442e-19,0.0009136202766491701,0.001372433001107812,0.0012786509647881392,0.0007383019633665591,2.5515546123311654e-19,-0.0007259999865117123,-0.001073695707291475,-0.0009824314434046834,-0.0005560752830988331,-3.726870970579207e-19,0.0003690693967372204,0.000581210533362954,0.000563967083284623,0.0003371050385145905,2.859680417798913e-19,-0.00043092594548580843,-0.0006193264416963092,-0.0005485838039468675,-0.00029942887447964106,-3.6538919901104463e-19,6.944402988493643e-05,0.00014158213280816487,0.00016464375779834503,0.00011254031148168854,1.6832151793723578e-19,-0.00032979736811711004,-0.0004408608250591681,-0.0003583966207093901,-0.0001764517511764474,-2.8520539370626043e-19,0.0,0.0,0.0,0.0,0.0,0.0,0.0,0.0,0.0,0.0,0.0,0.0,0.0,0.0,0.0,0.0,0.0,0.0,0.0,0.0,0.0,0.0,0.0,0.0,0.0,0.0,0.0,0.0,0.0,0.0,0.0,0.0,0.0,0.0,0.0,0.0,0.0,0.0,0.0,0.0,0.0,0.0,0.0,0.0,0.0,0.0,0.0,0.0,0.0,0.0,0.0,0.0,0.0,0.0,0.0,0.0,0.0,0.0,0.0,0.0,0.0,0.0,0.0,0.0,0.0,0.0,0.0,0.0,0.0,0.0,0.0,0.0,0.0,0.0,0.0,0.0,0.0,0.0,0.0,0.0,0.0,0.0,0.0,0.0,0.0,0.0,0.0,0.0,0.0,0.0,0.0,0.0,0.0,0.0,0.0,0.0,0.0,0.0,0.0,0.0,0.0,0.0,0.0,0.0,0.0,0.0,0.0,0.0,0.0,0.0,0.0,0.0,0.0,0.0,0.0,0.0,0.0,0.0,0.0,0.0,0.0,0.0,0.0,0.0,0.0,0.0,0.0,0.0,0.0,0.0,0.0,0.0,0.0,0.0,0.0,0.0,0.0,0.0,0.0,0.0,0.0,0.0,0.0,0.0,0.0,0.0,0.0,0.0,0.0,0.0,0.0,0.0,0.0,0.0,0.0,0.0,0.0,0.0,0.0,0.0,0.0,0.0,0.0,0.0
0.3985949671663459,0.4277403145611416,0.4237525413350626,0.3920299557244864,0.34290303781640985,0.2886120987503873,0.2397512790645605,0.20383864450222947,0.1834217740940552,0.1766217735704523,0.17862923033442873,0.18316971158240483,0.1860874305439306,0.18521174940188456,0.18080959566626345,0.17482409126253828,0.16942741488710922,0.16653430586770887,0.16660218603416074,0.1687020532722417,0.1710189521906478,0.17176271294975995,0.16955958848573788,0.16414911368444585,0.1563216940545361,0.14754860862060695,0.13943383625316302,0.13309496939043042,0.12886787997676089,0.12624133724072745,0.12407826505056613,0.12093436766633331,0.11570030969710092,0.107770998588222,0.09724984380915633,0.08492913810780527,0.07208773614317056,0.06034393303679554,0.05128124380240591,0.046181624906274,0.04578001116504444,0.050098974666306244,0.058403936809804165,0.06931521673367445,0.08109294141182244,0.09207205040082059,0.10117481497987872,0.10838340538126483,0.115033798388892,0.12380869714772517,0.13836408963659674,0.16240623373541332,0.19953449647700272,0.25123470449640295,0.3165017440271194,0.39151116429308663,0.4696525030447117,0.5428088560262674,0.601762324403462,0.6378971789195571,0.6446582389495764,0.6186426155658429,0.5606272313709603,0.47514038005360965,0.37002927915745865,0.25534257263405435,0.14179973427320502,0.03963229099052154,-0.04317475085364699,-0.10160664649640964,-0.13397309368146768,-0.14182480246719179,-0.12900729343535358,-0.10120898280154826,-0.06478863471719198,-0.025821910021502748,0.010561149108158929,0.0409075770509336,0.06318856623440187,0.07681257358645638,0.08232927363846218,0.08098192774506466,0.07456875955996217,0.06480617448112944,0.053241915507643636,0.04116463681923109,0.02954445183105059,0.0192204581855387,0.010704468325706479,0.004277523582956054,1.9458532217894954e-19,-0.00230429547000286,-0.0029364054982489347,-0.002391938105872563,-0.0012360066001819306,-3.032418558621455e-19,0.0008675399728444366,0.001246294630635563,0.0011193425263947244,0.0006268995979437629,3.144528205224958e-19,-0.0005956314610246053,-0.0008627112290597681,-0.0007736441397835439,-0.00042930962251067333,-3.712963429227816e-19,0.00014564466659059468,0.0002737768986014039,0.0003038659641020646,0.00020174205961322438,2.2588121132915066e-19,-0.0005482740511114406,-0.0007344908998198523,-0.0005991646263285306,-0.00029656118229205963,-4.247569005769854e-19,4.456036150912474e-05,5.547874319568964e-05,4.139971280749306e-05,1.830379896303793e-05,-1.7697897427964273e-20,6.139924055774111e-05,7.313664197414204e-05,5.014005504564795e-05,1.8625430593241542e-05,5.459928341620362e-20,1.4343574329598794e-05,2.9243605952043944e-05,3.4006954691396575e-05,2.324505541352453e-05,3.476659127939445e-20,-6.811921875979644e-05,-9.105923178309255e-05,-7.402635730011499e-05,-3.6445880413058396e-05,-5.890880426447738e-20,0.0,0.0,0.0,0.0,0.0,0.0,0.0,0.0,0.0,0.0,0.0,0.0,0.0,0.0,0.0,0.0,0.0,0.0,0.0,0.0,0.0,0.0,0.0,0.0,0.0,0.0,0.0,0.0,0.0,0.0,0.0,0.0,0.0,0.0,0.0,0.0,0.0,0.0,0.0,0.0,0.0,0.0,0.0,0.0,0.0,0.0,0.0,0.0,0.0,0.0,0.0,0.0,0.0,0.0,0.0,0.0,0.0,0.0,0.0,0.0,0.0,0.0,0.0,0.0,0.0,0.0,0.0,0.0,0.0,0.0,0.0,0.0,0.0,0.0,0.0,0.0,0.0,0.0,0.0,0.0,0.0,0.0,0.0,0.0,0.0,0.0,0.0,0.0,0.0,0.0,0.0,0.0,0.0,0.0,0.0,0.0,0.0,0.0,0.0,0.0,0.0,0.0,0.0,0.0,0.0,0.0,0.0,0.0,0.0,0.0,0.0,0.0,0.0,0.0,0.0,0.0,0.0,0.0,0.0,0.0,0.0,0.0,0.0,0.0,0.0,0.0,0.0,0.0,0.0,0.0,0.0,0.0,0.0,0.0,0.0,0.0,0.0,0.0,0.0,0.0,0.0,0.0,0.0,0.0,0.0,0.0,0.0,0.0,0.0,0.0,0.0,0.0,0.0,0.0,0.0,0.0,0.0,0.0,0.0,0.0,0.0,0.0,0.0,0.0
0.6446582389495764,0.6712733207930228,0.6323921284305475,0.5368554843015512,0.403327850696562,0.25534257263405435,0.11545209010839035,0.0012066366427712963,-0.07804583579430414,-0.1212812626470506,-0.13397309368146768,-0.12531775533416165,-0.10439754546122969,-0.07843658180141296,-0.05170260459089143,-0.02582191002150274,-0.0011414513841885015,0.022725242990762683,0.045450391802224765,0.06587092613117762,0.08232927363846218,0.09310048586672712,0.09778292340282176,0.09706088847407499,0.0926990890114326,0.08701938457563234,0.08205514113272216,0.07956863464373656,0.0803890158412862,0.08457924055132468,0.09170949551280248,0.10106400618815099,0.11224416966835304,0.12495377949822481,0.1389592025721555,0.15390395189418557,0.1691105851129802,0.18376535402364308,0.19693454422078327,0.20784204899259817,0.21609840827556864,0.2218193971077939,0.22558249767913818,0.2282355609840059,0.23062955216826464,0.233373588375185,0.2366970239707658,0.24045812605031136,0.24428175291026155,0.24776220771679913,0.25064876847480133,0.2526138493898076,0.2545118825902179,0.25660229349443325,0.2590470102897959,0.26185820953044625,0.2647493940014374,0.2676704308752224,0.2702310080317685,0.2720809466191615,0.2730676505860912,0.2734019516405475,0.2733825003392651,0.27361195352047746,0.27464494671430806,0.2767363748576039,0.2796741573072391,0.2826873996718044,0.28463586299536386,0.2842413841799719,0.28040509912911643,0.2724549549481943,0.260487997584632,0.24517610444228716,0.22770133134425688,0.20949210513772087,0.19185621550817855,0.17585533957067892,0.161883335045546,0.149705800105226,0.13857911114632535,0.1274417823970258,0.11539082813970525,0.10172441052156889,0.08623378800496176,0.06928955557316267,0.051704275935062424,0.03485026831958163,0.019995348261126825,0.008177987791421409,9.955008026538183e-20,-0.00459464017581193,-0.005882325298280058,-0.004790499404871712,-0.0024655633407784667,-3.1082607556001676e-19,0.0016774366758783932,0.002393403923860211,0.002135578778853154,0.0011891054889838202,2.5727356488572614e-19,-0.001115474248589572,-0.0016139669594982648,-0.0014477189951465795,-0.0008047379258069151,-4.1892835145235595e-19,0.000520931790323309,0.0008057323168266803,0.0007705129524898141,0.0004552237019439895,2.761959408751349e-19,-0.0005548594719934497,-0.0007993061841474239,-0.0007105128615408505,-0.00038969582936321896,-3.874818179736068e-19,0.0001631464761883602,0.0002730851844954367,0.00027865767178051357,0.00017365016071139506,1.838507556153362e-19,-0.0003152429340675554,-0.0004364523594579513,-0.00037049404691717866,-0.00019260872042598494,-2.7009091274628007e-19,2.4143535991655345e-05,4.922371764560769e-05,5.7241529600055463e-05,3.912677684852556e-05,5.852017276677706e-20,-0.00011466031911284341,-0.00015327363942966874,-0.00012460339248344476,-6.134680277596145e-05,-9.91570722403451e-20,0.0,0.0,0.0,0.0,0.0,0.0,0.0,0.0,0.0,0.0,0.0,0.0,0.0,0.0,0.0,0.0,0.0,0.0,0.0,0.0,0.0,0.0,0.0,0.0,0.0,0.0,0.0,0.0,0.0,0.0,0.0,0.0,0.0,0.0,0.0,0.0,0.0,0.0,0.0,0.0,0.0,0.0,0.0,0.0,0.0,0.0,0.0,0.0,0.0,0.0,0.0,0.0,0.0,0.0,0.0,0.0,0.0,0.0,0.0,0.0,0.0,0.0,0.0,0.0,0.0,0.0,0.0,0.0,0.0,0.0,0.0,0.0,0.0,0.0,0.0,0.0,0.0,0.0,0.0,0.0,0.0,0.0,0.0,0.0,0.0,0.0,0.0,0.0,0.0,0.0,0.0,0.0,0.0,0.0,0.0,0.0,0.0,0.0,0.0,0.0,0.0,0.0,0.0,0.0,0.0,0.0,0.0,0.0,0.0,0.0,0.0,0.0,0.0,0.0,0.0,0.0,0.0,0.0,0.0,0.0,0.0,0.0,0.0,0.0,0.0,0.0,0.0,0.0,0.0,0.0,0.0,0.0,0.0,0.0,0.0,0.0,0.0,0.0,0.0,0.0,0.0,0.0,0.0,0.0,0.0,0.0,0.0,0.0,0.0,0.0,0.0,0.0,0.0,0.0,0.0,0.0,0.0,0.0,0.0,0.0,0.0,0.0,0.0,0.0
0.4954161901986742,0.5116191817110071,0.4740829742253075,0.38907027511272807,0.27099073362218057,0.13878646663497093,0.01137077505558655,-0.09515653980172575,-0.1705576476608702,-0.21092838247645077,-0.21784325692873244,-0.19704761623636716,-0.155011726194523,-0.09843434487961339,-0.03317371840056903,0.03580140615590836,0.10360642327714038,0.16639964111367642,0.2203300151904419,0.26208774418724484,0.2894460692405491,0.3014034548622533,0.29965409736874316,0.2875043170359577,0.26941909011784665,0.25002544235673385,0.23277536223291934,0.22022864057280978,0.21305577065668982,0.21043639973403552,0.21060481547291862,0.21127034153058225,0.21102702189122335,0.2091291781289468,0.20568876470958758,0.2014401175528651,0.19722057229318873,0.19397779465032766,0.19218806224266954,0.1918027753414328,0.19227541963281156,0.19271303755523692,0.1921041115138797,0.18957729040063118,0.18465429361595131,0.17746559348025476,0.1688955053728411,0.16061828615198387,0.15498787443000966,0.15475963991241518,0.16265576732769785,0.18057636489473378,0.21004617443286924,0.2505312118532877,0.2997847741554191,0.35407729018483003,0.40865020714149747,0.45872505814966913,0.4999556377211983,0.5292948685474818,0.5454988130419621,0.5493803090522682,0.5431157465111567,0.5301971572808056,0.5143995340493334,0.49894071160760106,0.48583700483406955,0.47571035961835845,0.4678357803216069,0.4606475555485062,0.45238261017324,0.44154436496312305,0.4278826685435596,0.4117487157314814,0.39418105927508756,0.37651070556331706,0.35973970784199727,0.34459934715492335,0.33066213287640295,0.3166247790554761,0.300638800953394,0.2807058336435356,0.25563367015704386,0.22492878378051168,0.18923476570981443,0.150319400476697,0.11069099964445672,0.07351518423527437,0.04152735212571623,0.016717183723500503,-5.088449292553326e-20,-0.008983910597177739,-0.011352498164656988,-0.009142573999805628,-0.004661780944193204,-2.697942679722983e-19,0.0032615934157105286,0.004595737077560806,0.004051114426313396,0.0022297373421367155,3.430138788344591e-19,-0.0018958408520760427,-0.0027651519682772123,-0.002504276586709906,-0.0014073697513509054,-5.546168763533604e-19,0.0009933461774729053,0.0015361089223194643,0.001468974161999449,0.0008680211343522972,5.057459423341895e-19,-0.0010712616912911623,-0.0015400298706072972,-0.001366043691889658,-0.0007476010927832389,-7.289023772704295e-19,0.0003267681860820099,0.0005370514352309149,0.0005401183996232924,0.00033269509069394306,3.3300184679889588e-19,-0.0005548762305013173,-0.0007743821701272671,-0.0006635514584588648,-0.00034882098775957586,-4.743670516657055e-19,5.2377906390539274e-05,0.00010678780754927897,0.0001241819541296373,8.488311968238261e-05,1.269558913075467e-19,-0.00024874846266419306,-0.00033251767019376176,-0.0002703193446766549,-0.00013308809009039777,-2.1511512851969174e-19,0.0,0.0,0.0,0.0,0.0,0.0,0.0,0.0,0.0,0.0,0.0,0.0,0.0,0.0,0.0,0.0,0.0,0.0,0.0,0.0,0.0,0.0,0.0,0.0,0.0,0.0,0.0,0.0,0.0,0.0,0.0,0.0,0.0,0.0,0.0,0.0,0.0,0.0,0.0,0.0,0.0,0.0,0.0,0.0,0.0,0.0,0.0,0.0,0.0,0.0,0.0,0.0,0.0,0.0,0.0,0.0,0.0,0.0,0.0,0.0,0.0,0.0,0.0,0.0,0.0,0.0,0.0,0.0,0.0,0.0,0.0,0.0,0.0,0.0,0.0,0.0,0.0,0.0,0.0,0.0,0.0,0.0,0.0,0.0,0.0,0.0,0.0,0.0,0.0,0.0,0.0,0.0,0.0,0.0,0.0,0.0,0.0,0.0,0.0,0.0,0.0,0.0,0.0,0.0,0.0,0.0,0.0,0.0,0.0,0.0,0.0,0.0,0.0,0.0,0.0,0.0,0.0,0.0,0.0,0.0,0.0,0.0,0.0,0.0,0.0,0.0,0.0,0.0,0.0,0.0,0.0,0.0,0.0,0.0,0.0,0.0,0.0,0.0,0.0,0.0,0.0,0.0,0.0,0.0,0.0,0.0,0.0,0.0,0.0,0.0,0.0,0.0,0.0,0.0,0.0,0.0,0.0,0.0,0.0,0.0,0.0,0.0,0.0,0.0
0.5454988130419621,0.5954563038261947,0.6059061541461916,0.5842039254074369,0.5435640573004508,0.49894071160760106,0.4626116840703241,0.44176040026168045,0.4369337254832502,0.4431453551347561,0.45238261017324,0.4564540207326509,0.45025797729569145,0.4326372986522972,0.406327919386526,0.37651070556331706,0.3485473390518967,0.3266941988767261,0.31250862391221235,0.30484558631468345,0.300638800953394,0.2960050954934743,0.2880965955762677,0.2755499258164338,0.25880164496288277,0.2396840708036891,0.22047929206334246,0.20363634942466888,0.19078097558913082,0.1825626912909324,0.17872934065398413,0.17825065746145283,0.18017473402286924,0.18353345488100686,0.18757242086318174,0.19175226672122533,0.19560183544304263,0.1989128771637313,0.20153755797422312,0.2034528789569845,0.2047751927884665,0.20573995670906708,0.20663405375898916,0.20769832916187597,0.2090402800644827,0.21059883049639874,0.21218326813682917,0.21357598500996552,0.21465881809090176,0.21550932115392343,0.21642246820433103,0.21756110242606355,0.21989455090151433,0.22362878994503818,0.2286344856061907,0.23447226532562343,0.24022463414617468,0.2456106439044759,0.24984187745107445,0.252263975722361,0.25252206244691583,0.2504064000585364,0.24671763460032053,0.241979991010729,0.2367366613397407,0.23145398613105908,0.2262588683850747,0.22165720544844475,0.21758808207933142,0.21387829631337194,0.2103859098152023,0.20695253795359056,0.20402616971383708,0.201824005021915,0.20050749997088227,0.20006528668469759,0.20008035930981038,0.20014277080446904,0.19925353499043483,0.19618993148679303,0.18974466355419287,0.17890305722054503,0.16343215045955356,0.14356678731682998,0.12021501668129882,0.09487233177709643,0.06931131681236347,0.04566186330912462,0.0255926497940972,0.010227891514049254,5.702651119205724e-20,-0.005473838887038472,-0.0068762869310563975,-0.005504212065063246,-0.0027890354452230646,-2.537128273258696e-19,0.0018714055319791444,0.0026321507718828074,0.0023180287185762226,0.0012754761581410569,2.057627852918814e-19,-0.001148534622023804,-0.0016563448494652478,-0.0014822157429684058,-0.0008226463878562656,-3.5749796744698225e-19,0.0005489877978938178,0.0008428487744173729,0.0008009426799007575,0.000470710884135321,2.4496760819800156e-19,-0.00055506353966455,-0.0008019978525564088,-0.0007154810648396536,-0.00039409264654709437,-3.5672528080831207e-19,0.00019314660254907113,0.00031226730080555405,0.0003098561563616767,0.00018876419783756535,1.7844375503063876e-19,-0.0002880410326027935,-0.0004056455896839388,-0.00035123953631636517,-0.00018689537524366846,-2.456336261849522e-19,3.305770311160395e-05,6.739787595902826e-05,7.837598816622153e-05,5.3572988365067355e-05,8.012672617766162e-20,-0.00015699468334813148,-0.0002098646390840294,-0.00017060889328058878,-8.39969917295785e-05,-1.3576739781074847e-19,0.0,0.0,0.0,0.0,0.0,0.0,0.0,0.0,0.0,0.0,0.0,0.0,0.0,0.0,0.0,0.0,0.0,0.0,0.0,0.0,0.0,0.0,0.0,0.0,0.0,0.0,0.0,0.0,0.0,0.0,0.0,0.0,0.0,0.0,0.0,0.0,0.0,0.0,0.0,0.0,0.0,0.0,0.0,0.0,0.0,0.0,0.0,0.0,0.0,0.0,0.0,0.0,0.0,0.0,0.0,0.0,0.0,0.0,0.0,0.0,0.0,0.0,0.0,0.0,0.0,0.0,0.0,0.0,0.0,0.0,0.0,0.0,0.0,0.0,0.0,0.0,0.0,0.0,0.0,0.0,0.0,0.0,0.0,0.0,0.0,0.0,0.0,0.0,0.0,0.0,0.0,0.0,0.0,0.0,0.0,0.0,0.0,0.0,0.0,0.0,0.0,0.0,0.0,0.0,0.0,0.0,0.0,0.0,0.0,0.0,0.0,0.0,0.0,0.0,0.0,0.0,0.0,0.0,0.0,0.0,0.0,0.0,0.0,0.0,0.0,0.0,0.0,0.0,0.0,0.0,0.0,0.0,0.0,0.0,0.0,0.0,0.0,0.0,0.0,0.0,0.0,0.0,0.0,0.0,0.0,0.0,0.0,0.0,0.0,0.0,0.0,0.0,0.0,0.0,0.0,0.0,0.0,0.0,0.0,0.0,0.0,0.0,0.0,0.0
0.6465196844737829,0.6685140442841189,0.6212773132678617,0.5132174533574615,0.3632045004301681,0.19576662305608714,0.03525337470187261,-0.09828440389426263,-0.1926074360139177,-0.24381453744305173,-0.25498643836160867,-0.2338860744387088,-0.18936260356367718,-0.12982208541565302,-0.06203538022914761,0.008848433660866562,0.07837410504338649,0.1429744257142733,0.1989922714619876,0.24305579744227274,0.27268330568334176,0.2866555237789373,0.28639379460559977,0.27514209113300225,0.25747216686651814,0.23823065540235203,0.22115446816087422,0.20901220682314914,0.2026589490237845,0.20144218798390437,0.2037780051213623,0.2075513771758344,0.21155069442794402,0.2151078785350442,0.21821679965091595,0.22124432152837323,0.22442377180113268,0.2280120272260207,0.23186536983542583,0.23558959494624634,0.23871063793538416,0.2408584889474597,0.24188747021467394,0.24189885561241511,0.24117999598360798,0.24010603465403527,0.23905502523308458,0.23836748529264148,0.23835027742600173,0.2392986502657363,0.2415014313726864,0.24487354560586239,0.2501614404269089,0.2571930253902739,0.2654865274246625,0.2743553118965635,0.2829525416441352,0.2908152731468186,0.297500605744109,0.3028830727066626,0.3072091924204406,0.3111819570576881,0.31530331738823353,0.32030151526324485,0.3266259693967997,0.33423170097902843,0.34250854768898586,0.3504197478911199,0.3567615208142665,0.3605319364095263,0.36125420953761633,0.3590127166094314,0.354954932951695,0.3503358104068507,0.3463928454397502,0.34394054935488955,0.34291210403553657,0.3426650757927381,0.3414353177461831,0.3368864049127044,0.3266268891721628,0.30867617951977494,0.28235482191909445,0.24804888738470116,0.20744452058839152,0.1633134445860814,0.11895604435699172,0.0780608100319744,0.04354546828486565,0.017309244251568302,-3.7731865601293776e-20,-0.009099429163815379,-0.011365298520334861,-0.00904981391808964,-0.004564171230636911,-2.4222147918943915e-19,0.0030918878264386603,0.004322513193944725,0.0037841911573013726,0.002070471867085113,2.384750398026208e-19,-0.0017910417574961103,-0.0025885136160616728,-0.002323295386597939,-0.0012942472685521416,-4.574001112754208e-19,0.0009220724571101088,0.001404467066841537,0.001325023533089613,0.0007736722281640371,3.6742627311461287e-19,-0.0008494650270484219,-0.0012387356293304297,-0.0011162318773433166,-0.0006215103178608618,-5.223969429577375e-19,0.0003323253990341888,0.0005372163265823402,0.0005330134413231548,0.0003246837154930015,3.0679149282892185e-19,-0.000495086040521407,-0.0006972787424636068,-0.0006038111836367508,-0.0003213216801430845,-4.2218703261041363e-19,5.6905604238172516e-05,0.00011601885475435937,0.000134916601716262,9.222066226036824e-05,1.3793032605359407e-19,-0.0002702509998333801,-0.00036126146014998423,-0.00029368653132860577,-0.00014459260985021707,-2.3371030292643165e-19,0.0,0.0,0.0,0.0,0.0,0.0,0.0,0.0,0.0,0.0,0.0,0.0,0.0,0.0,0.0,0.0,0.0,0.0,0.0,0.0,0.0,0.0,0.0,0.0,0.0,0.0,0.0,0.0,0.0,0.0,0.0,0.0,0.0,0.0,0.0,0.0,0.0,0.0,0.0,0.0,0.0,0.0,0.0,0.0,0.0,0.0,0.0,0.0,0.0,0.0,0.0,0.0,0.0,0.0,0.0,0.0,0.0,0.0,0.0,0.0,0.0,0.0,0.0,0.0,0.0,0.0,0.0,0.0,0.0,0.0,0.0,0.0,0.0,0.0,0.0,0.0,0.0,0.0,0.0,0.0,0.0,0.0,0.0,0.0,0.0,0.0,0.0,0.0,0.0,0.0,0.0,0.0,0.0,0.0,0.0,0.0,0.0,0.0,0.0,0.0,0.0,0.0,0.0,0.0,0.0,0.0,0.0,0.0,0.0,0.0,0.0,0.0,0.0,0.0,0.0,0.0,0.0,0.0,0.0,0.0,0.0,0.0,0.0,0.0,0.0,0.0,0.0,0.0,0.0,0.0,0.0,0.0,0.0,0.0,0.0,0.0,0.0,0.0,0.0,0.0,0.0,0.0,0.0,0.0,0.0,0.0,0.0,0.0,0.0,0.0,0.0,0.0,0.0,0.0,0.0,0.0,0.0,0.0,0.0,0.0,0.0,0.0,0.0,0.0
0.4229209458632843,0.4562506982289617,0.4555859561729334,0.4265478363584855,0.3798506033276627,0.32812465531229007,0.28235687323482744,0.2499207215219801,0.2330183095233301,0.22925586554326916,0.2333283647612958,0.23905725116877366,0.24193955822433158,0.2399052863268884,0.23351929019252204,0.2251532308000097,0.21736210127691535,0.21257738709590204,0.21161622535794028,0.21371780449317015,0.2169780968387236,0.21867848540505044,0.21741932145783685,0.21263959671647567,0.20494516103642058,0.19577368001889114,0.18675221570561365,0.17944496477822897,0.17481752888273464,0.1732261087580625,0.17456926319905872,0.17879193776361407,0.18530136613503342,0.1936399830306354,0.20332477485033779,0.2137909583137264,0.2244850834376792,0.23450406804693846,0.24300296617103884,0.24929372985243325,0.25301265342839413,0.25421203064894254,0.2533368832341704,0.2510928078613535,0.24825193149601305,0.2454638243397078,0.24313033137542392,0.24137314342521385,0.2400849157265267,0.23902539973710188,0.23791499525102147,0.23627421289492526,0.23427483658460788,0.23164576223463967,0.22812193362651462,0.22357348412957398,0.218001665985134,0.212352399582707,0.20778554919021353,0.20601980463760847,0.2092319730081264,0.2196347194535944,0.239444908910171,0.26967538490142506,0.3097850887447425,0.3572977232607317,0.407605682347307,0.45471805644068536,0.49137579461444153,0.5102938200519145,0.505363473513337,0.47267798972553426,0.4118076535619845,0.3256171830232114,0.22030105701522532,0.10467376631669946,-0.011094596764976542,-0.11651731745503399,-0.20273663059383407,-0.2635255001943651,-0.29601594087993804,-0.3009635501643425,-0.2820184375816616,-0.24532842025653884,-0.1982268075600843,-0.14800797043996902,-0.10097654470126212,-0.06130387257622777,-0.03128697007111262,-0.011256801935375486,3.371878265169188e-19,0.004499399777836085,0.004915897814782168,0.003393879552938815,0.001470115900057755,-5.170488163982754e-19,-0.0008655474437578251,-0.0009951367233940293,-0.000695391537951633,-0.000291547038628737,3.7813579059608354e-19,-1.2154642129166143e-05,-5.6206434003955655e-05,-7.66292199741881e-05,-5.2954806530476975e-05,-4.665496005528173e-19,-6.387422705368857e-05,-5.711023644155034e-05,-2.090277287127365e-05,4.276028055497701e-06,2.661800907911563e-19,-0.0001338148777901729,-0.00017577213928047716,-0.00013815620544075594,-6.411418517919152e-05,-2.928541218318137e-19,-0.0001560949817841124,-0.00019106987470158317,-0.00013907955167327853,-5.913088447997961e-05,7.362497109503217e-20,-0.00024033928410260993,-0.00028913424463607846,-0.00020155445903873828,-7.744255788595341e-05,-2.1324286890882132e-19,-5.157250225968138e-05,-0.00010514575372826205,-0.00012227243414828718,-8.357788967332968e-05,-1.2500371707336775e-19,0.00024492350948869757,0.0003274046154038192,0.0002661627005521255,0.00013104162231584464,2.1180734810120812e-19,0.0,0.0,0.0,0.0,0.0,0.0,0.0,0.0,0.0,0.0,0.0,0.0,0.0,0.0,0.0,0.0,0.0,0.0,0.0,0.0,0.0,0.0,0.0,0.0,0.0,0.0,0.0,0.0,0.0,0.0,0.0,0.0,0.0,0.0,0.0,0.0,0.0,0.0,0.0,0.0,0.0,0.0,0.0,0.0,0.0,0.0,0.0,0.0,0.0,0.0,0.0,0.0,0.0,0.0,0.0,0.0,0.0,0.0,0.0,0.0,0.0,0.0,0.0,0.0,0.0,0.0,0.0,0.0,0.0,0.0,0.0,0.0,0.0,0.0,0.0,0.0,0.0,0.0,0.0,0.0,0.0,0.0,0.0,0.0,0.0,0.0,0.0,0.0,0.0,0.0,0.0,0.0,0.0,0.0,0.0,0.0,0.0,0.0,0.0,0.0,0.0,0.0,0.0,0.0,0.0,0.0,0.0,0.0,0.0,0.0,0.0,0.0,0.0,0.0,0.0,0.0,0.0,0.0,0.0,0.0,0.0,0.0,0.0,0.0,0.0,0.0,0.0,0.0,0.0,0.0,0.0,0.0,0.0,0.0,0.0,0.0,0.0,0.0,0.0,0.0,0.0,0.0,0.0,0.0,0.0,0.0,0.0,0.0,0.0,0.0,0.0,0.0,0.0,0.0,0.0,0.0,0.0,0.0,0.0,0.0,0.0,0.0,0.0,0.0
0.505363473513337,0.5183019754082955,0.4743443390320222,0.3799015046242576,0.2500181770407409,0.10467376631669947,-0.03584423170527871,-0.15421915099391378,-0.23913969891415301,-0.2859788444290765,-0.29601594087993804,-0.27496873537700095,-0.22995767297742892,-0.16852654908746614,-0.09749262858315189,-0.02270770612932648,0.050408618292004014,0.11763124153544402,0.1751480616572666,0.2200161895008556,0.2506005286212851,0.26660878048839326,0.2702459471476544,0.2650813903511705,0.25547442690344335,0.2455699934813244,0.2380343618961284,0.23452012439672903,0.23483600252619366,0.23752660042659712,0.24053945834136373,0.2416193797402861,0.23986703859365113,0.2352399817023813,0.22861058080043942,0.2213474170661185,0.21462123069549524,0.20944712628472664,0.20605580425937395,0.20396427930403757,0.20215537579087323,0.19938605940966436,0.19453182129825744,0.1868869808121442,0.176369140560689,0.16360554189522958,0.1499002533355389,0.13709224216239607,0.12731994960315474,0.12271455962437372,0.12505570799958593,0.13517896970307602,0.1537164729920891,0.17967260962859755,0.21100328395090043,0.24494450344199575,0.27841760810292127,0.3087385843366369,0.33379994629823057,0.35249249470876887,0.3648332988844055,0.37201040681471303,0.3754726003479129,0.37722368213223123,0.3790225951717675,0.3819465730712235,0.38619344250630633,0.391111322691136,0.3955832639318244,0.39847025744295955,0.39905984725804133,0.3972242880853978,0.39394615819269835,0.3904306780326309,0.38791845430480826,0.3872075541152371,0.3881202513571835,0.38978203081382146,0.39006288515564996,0.38618975303752207,0.3753552609724328,0.35526551185915245,0.3251848074792976,0.28564512059950214,0.23870509969468545,0.1876776304862164,0.13647831379775138,0.08937655235089007,0.0497392760332558,0.019718827682669107,-1.3933624751016097e-19,-0.010270626477060323,-0.01279309969567824,-0.010162121075416707,-0.005114595054458691,-1.5487577836105767e-19,0.0035082115437043773,0.0048864494548313785,0.004261509847616439,0.002322643899993964,2.1192753705804995e-19,-0.001920533184535245,-0.002788731441322011,-0.002516698226188224,-0.0014105387837110147,-4.1646274370760413e-19,0.0010484186901494764,0.0015980424855038733,0.001508665876633097,0.0008814544848689556,4.196239005622913e-19,-0.0009762876007002475,-0.001421916787066507,-0.0012796198922128141,-0.0007115016701711449,-6.00706139938329e-19,0.0003791009118064444,0.0006116470879909065,0.0006058863416060468,0.0003685796764784381,3.45766651091499e-19,-0.0005556345093881507,-0.0007835087591416866,-0.0006794256280069599,-0.00036213638412971164,-4.736598285399259e-19,6.53951607712084e-05,0.00013332731917576853,0.00015504435772288312,0.0001059787540380532,1.585076895018598e-19,-0.0003105688414925658,-0.00041515684761154163,-0.0003375006414515748,-0.00016616389710770612,-2.6857676038012337e-19,0.0,0.0,0.0,0.0,0.0,0.0,0.0,0.0,0.0,0.0,0.0,0.0,0.0,0.0,0.0,0.0,0.0,0.0,0.0,0.0,0.0,0.0,0.0,0.0,0.0,0.0,0.0,0.0,0.0,0.0,0.0,0.0,0.0,0.0,0.0,0.0,0.0,0.0,0.0,0.0,0.0,0.0,0.0,0.0,0.0,0.0,0.0,0.0,0.0,0.0,0.0,0.0,0.0,0.0,0.0,0.0,0.0,0.0,0.0,0.0,0.0,0.0,0.0,0.0,0.0,0.0,0.0,0.0,0.0,0.0,0.0,0.0,0.0,0.0,0.0,0.0,0.0,0.0,0.0,0.0,0.0,0.0,0.0,0.0,0.0,0.0,0.0,0.0,0.0,0.0,0.0,0.0,0.0,0.0,0.0,0.0,0.0,0.0,0.0,0.0,0.0,0.0,0.0,0.0,0.0,0.0,0.0,0.0,0.0,0.0,0.0,0.0,0.0,0.0,0.0,0.0,0.0,0.0,0.0,0.0,0.0,0.0,0.0,0.0,0.0,0.0,0.0,0.0,0.0,0.0,0.0,0.0,0.0,0.0,0.0,0.0,0.0,0.0,0.0,0.0,0.0,0.0,0.0,0.0,0.0,0.0,0.0,0.0,0.0,0.0,0.0,0.0,0.0,0.0,0.0,0.0,0.0,0.0,0.0,0.0,0.0,0.0,0.0,0.0
0.39905984725804133,0.4373984769995836,0.44810733583935775,0.4367260744218443,0.4128813487417723,0.3872075541152371,0.3680349206861271,0.35978049051095945,0.36178542303158157,0.36927465494945905,0.3753552609724328,0.37326397596828936,0.35898086243984273,0.33193480812011317,0.2950154040691834,0.2534525748317252,0.21298529484645012,0.17872095012837488,0.1536555209663237,0.13840303991617925,0.13154988869101747,0.13033757744652663,0.13205643829870992,0.13448466378889196,0.13635164744033376,0.13731818011507255,0.1372627029583564,0.1371554769113997,0.1377697610447004,0.13967147684794023,0.14308647153912765,0.1471866866071756,0.15223768368614699,0.15810720994296287,0.16465711973820135,0.1716765477917731,0.17847434396854858,0.18492515234826104,0.19075961881936437,0.19584975006006514,0.20026662404441856,0.20427967787436452,0.20828617034987443,0.21268733628360226,0.21774950982308947,0.2234952858712055,0.22965975700975122,0.23572510895103105,0.24102247997055964,0.24487185123485558,0.24672394769799247,0.2460676321058087,0.24328307934315985,0.23862199755532842,0.23257252005893422,0.2258268448995688,0.2189896748078477,0.21319632560937168,0.20893931147404154,0.20630479320139272,0.2049297421011451,0.20384354764981247,0.20233670475844612,0.199219501769207,0.19352277697111508,0.1849198434796462,0.1739772816705094,0.16289477311376538,0.15485773788429696,0.15401124679254666,0.1649099448581474,0.19163941456407743,0.2371222054028289,0.30186599307288403,0.3834426296855068,0.47630381112573206,0.5720918608434594,0.6608612470396147,0.7321205371527244,0.7765812614758435,0.7876976773933166,0.7627343666787555,0.7035545826520169,0.6160132046448512,0.5091671752467117,0.3938488386966583,0.28091510125345004,0.18000204816252263,0.09785955332474572,0.037862359974841824,-3.391110669089795e-19,-0.01867424895826162,-0.022700946836977966,-0.01761247881410683,-0.008666220898524313,4.39450582254519e-20,0.0057220654083832215,0.007810951249390664,0.006684679799381393,0.003580172540606271,3.516608708714324e-20,-0.002901621879907574,-0.0041508584349390365,-0.003694106405866704,-0.002043930813190138,-3.3149022915487354e-19,0.0015477892008659965,0.00231246637310256,0.0021441561296105006,0.0012329443298932635,3.2624534826872855e-19,-0.001180916763105843,-0.0017507980884627142,-0.0016067443180756442,-0.0009125798702537269,-5.223563772461273e-19,0.0006783880446535866,0.0010446796542967042,0.0009936795809782368,0.0005835942553616656,4.416029176282483e-19,-0.0006095673209343196,-0.0009003775773599922,-0.0008210934878682802,-0.0004622376369859888,-5.127784373894413e-19,0.00013723429936426685,0.0002797925873631046,0.00032536664107186454,0.00022240055512354488,3.326345780957782e-19,-0.0006517408454077691,-0.000871222861697307,-0.000708258279640004,-0.0003487014288257834,-5.636188228857193e-19,0.0,0.0,0.0,0.0,0.0,0.0,0.0,0.0,0.0,0.0,0.0,0.0,0.0,0.0,0.0,0.0,0.0,0.0,0.0,0.0,0.0,0.0,0.0,0.0,0.0,0.0,0.0,0.0,0.0,0.0,0.0,0.0,0.0,0.0,0.0,0.0,0.0,0.0,0.0,0.0,0.0,0.0,0.0,0.0,0.0,0.0,0.0,0.0,0.0,0.0,0.0,0.0,0.0,0.0,0.0,0.0,0.0,0.0,0.0,0.0,0.0,0.0,0.0,0.0,0.0,0.0,0.0,0.0,0.0,0.0,0.0,0.0,0.0,0.0,0.0,0.0,0.0,0.0,0.0,0.0,0.0,0.0,0.0,0.0,0.0,0.0,0.0,0.0,0.0,0.0,0.0,0.0,0.0,0.0,0.0,0.0,0.0,0.0,0.0,0.0,0.0,0.0,0.0,0.0,0.0,0.0,0.0,0.0,0.0,0.0,0.0,0.0,0.0,0.0,0.0,0.0,0.0,0.0,0.0,0.0,0.0,0.0,0.0,0.0,0.0,0.0,0.0,0.0,0.0,0.0,0.0,0.0,0.0,0.0,0.0,0.0,0.0,0.0,0.0,0.0,0.0,0.0,0.0,0.0,0.0,0.0,0.0,0.0,0.0,0.0,0.0,0.0,0.0,0.0,0.0,0.0,0.0,0.0,0.0,0.0,0.0,0.0,0.0,0.0
0.7876976773933166,0.8244271929598367,0.7835497731978883,0.6758053142838949,0.5235499589173598,0.3547389630148043,0.1959559243539827,0.06750550000122899,-0.02016102856764936,-0.06643978709770514,-0.07821975136370822,-0.0664414710901751,-0.04157939060582641,-0.011622652126579243,0.01903483457330599,0.0490100449119237,0.07812621516874158,0.10674407491166811,0.13404809910531476,0.1580593227843235,0.1762398411875556,0.1861342637091044,0.18730486979590535,0.180932296444438,0.16972581468739445,0.1570988621798078,0.14588902071291282,0.13832987136543123,0.13507335671388276,0.13545120267381264,0.1379578831720601,0.14070455867425033,0.1425195070829539,0.14284218660105527,0.1418236685684474,0.1400909499386689,0.138333743986121,0.13730797329982175,0.13749007709641503,0.13911301137557772,0.14222401670527773,0.14675195065439267,0.1525401417907302,0.1593406224183468,0.16680011326297242,0.17447912459164652,0.18192868188764175,0.18881463060591558,0.1950458352236086,0.20084762160399075,0.2067342324780153,0.21296522107230487,0.22088906943186792,0.2306930583374465,0.242063410418617,0.25428264810523565,0.26624441497298856,0.27740322527521394,0.28710435026142106,0.2951314606881185,0.30183106373245605,0.3081105737914786,0.31506280774134315,0.32381189703168617,0.3350352269805119,0.34862936390373794,0.36353755421409517,0.37794964613340654,0.38952119781459704,0.39593122720322116,0.39542766407501984,0.387165629599939,0.37175152198173145,0.3506978737559695,0.326250735496259,0.3008922136404704,0.2767162968994287,0.2552855865893719,0.23697322676408986,0.22112921752305936,0.20635676320592106,0.19088383037006768,0.17332756962661788,0.1527592437431975,0.12909995486062886,0.10317838160296053,0.07649399509053942,0.051154735103696114,0.02908971582003245,0.011783758325658878,-2.213741756849995e-20,-0.006404949941978081,-0.008130589423382656,-0.006574246884392796,-0.00336404715531792,-2.1218142701428715e-19,0.002343774306621009,0.003316566135137651,0.0029357655635539335,0.0016223874210488957,2.587620111273297e-19,-0.0014347141785483837,-0.0020850847142117627,-0.0018805721022916973,-0.0010520448359226451,-4.439337410592332e-19,0.0007392131680095076,0.0011348932079558323,0.0010780856387007987,0.0006332006292056583,3.565828378405697e-19,-0.0007262448736866994,-0.0010541729053253688,-0.0009449000237803859,-0.0005229719131018189,-4.909277928026234e-19,0.00023908585687497667,0.00039879104826065666,0.00040580913623177047,0.0002523350813722902,2.6442900514052967e-19,-0.0004511223824681732,-0.0006254504520627775,-0.0005318090923067823,-0.00027701920050961134,-3.863616736790761e-19,3.595189706710538e-05,7.329854378690848e-05,8.523778707709355e-05,5.826329060962666e-05,8.714180178030109e-20,-0.0001707395301107167,-0.00022823823775360225,-0.0001855456608479082,-9.13509081503089e-05,-1.4765380083068804e-19,0.0,0.0,0.0,0.0,0.0,0.0,0.0,0.0,0.0,0.0,0.0,0.0,0.0,0.0,0.0,0.0,0.0,0.0,0.0,0.0,0.0,0.0,0.0,0.0,0.0,0.0,0.0,0.0,0.0,0.0,0.0,0.0,0.0,0.0,0.0,0.0,0.0,0.0,0.0,0.0,0.0,0.0,0.0,0.0,0.0,0.0,0.0,0.0,0.0,0.0,0.0,0.0,0.0,0.0,0.0,0.0,0.0,0.0,0.0,0.0,0.0,0.0,0.0,0.0,0.0,0.0,0.0,0.0,0.0,0.0,0.0,0.0,0.0,0.0,0.0,0.0,0.0,0.0,0.0,0.0,0.0,0.0,0.0,0.0,0.0,0.0,0.0,0.0,0.0,0.0,0.0,0.0,0.0,0.0,0.0,0.0,0.0,0.0,0.0,0.0,0.0,0.0,0.0,0.0,0.0,0.0,0.0,0.0,0.0,0.0,0.0,0.0,0.0,0.0,0.0,0.0,0.0,0.0,0.0,0.0,0.0,0.0,0.0,0.0,0.0,0.0,0.0,0.0,0.0,0.0,0.0,0.0,0.0,0.0,0.0,0.0,0.0,0.0,0.0,0.0,0.0,0.0,0.0,0.0,0.0,0.0,0.0,0.0,0.0,0.0,0.0,0.0,0.0,0.0,0.0,0.0,0.0,0.0,0.0,0.0,0.0,0.0,0.0,0.0
0.39542766407501984,0.4259593158176446,0.42440867055632203,0.39604151907086826,0.3509109185793273,0.3008922136404704,0.2564581244402915,0.22456336278727485,0.2074069286489209,0.20292348604253121,0.20635676320592106,0.21223623666686375,0.21643973329778143,0.2170561217615206,0.21448119855028996,0.21063289518639122,0.2076351985781666,0.20706631819637303,0.20905967509310955,0.21236947101315698,0.21490902716686144,0.21440471939257857,0.20962424383716277,0.2004500845190374,0.1879454199043264,0.1739425362861666,0.16004634178429672,0.1482531177506453,0.139693524728421,0.1347190228306933,0.13297604540547178,0.13299760268275565,0.1343720444204879,0.13653739899270095,0.13918718091981133,0.14216444664542122,0.14497921251142828,0.1476215706226418,0.1498039007344376,0.15116619201622025,0.15135284788537068,0.150109896765851,0.14736622570957908,0.14327325987755274,0.13819322305155263,0.13264004053457157,0.12718591855516032,0.12235113849137846,0.11849686310844515,0.11574225429329701,0.11392723318377246,0.11243504774015144,0.11107060824449941,0.10919773512681638,0.10632926689751837,0.1023482788303748,0.09747606711557437,0.09284144567932172,0.08952664387814654,0.08858653740383486,0.09076932447697715,0.09617107974026867,0.1045216250209216,0.11470817304179416,0.12524239279667446,0.13471490270181322,0.14221203894922171,0.14819605732001456,0.15422753809044532,0.1631384967188984,0.1786604809266493,0.20459928616457823,0.24431450909794672,0.2991830843197664,0.3680342395379011,0.44681089632338805,0.528688879532315,0.6051991302744981,0.6670243193149462,0.7056726812250501,0.7149613117201268,0.6920860480670215,0.6384363581207085,0.5591006991277674,0.4621793817533928,0.3574806558600634,0.2549049714134607,0.1632452504380632,0.08867468775809749,0.034269880216623694,-3.995065503291832e-19,-0.01683599028380292,-0.020429916623101098,-0.0158212864822102,-0.007770381214473578,1.5256093656168035e-19,0.0051465972281295735,0.007006181464616165,0.00597870328324902,0.0031926793770725367,-5.355757913246106e-20,-0.002519018749659282,-0.0036096198264836676,-0.003219873927736105,-0.0017866684460918058,-1.852127702365894e-19,0.0014121732890474345,0.0021013811375243975,0.0019408753400022086,0.001111960964162796,2.6958636515315083e-19,-0.0010104767219694206,-0.0015102064195441824,-0.0013974963697608467,-0.0008004712931723177,-4.205005301577348e-19,0.0006207940561375625,0.0009585066683331003,0.000913892576732171,0.0005378867272122644,4.1306230445601746e-19,-0.0005772563114512927,-0.0008492874794627458,-0.0007713292594396107,-0.0004323826833549237,-4.861630607276593e-19,0.00012456202106773083,0.00025395641121182095,0.00029532213584851905,0.00020186398561515312,3.0191894822622262e-19,-0.000591558796106051,-0.0007907737421049228,-0.0006428573844774855,-0.00031650217857311135,-5.115740016576399e-19,0.0,0.0,0.0,0.0,0.0,0.0,0.0,0.0,0.0,0.0,0.0,0.0,0.0,0.0,0.0,0.0,0.0,0.0,0.0,0.0,0.0,0.0,0.0,0.0,0.0,0.0,0.0,0.0,0.0,0.0,0.0,0.0,0.0,0.0,0.0,0.0,0.0,0.0,0.0,0.0,0.0,0.0,0.0,0.0,0.0,0.0,0.0,0.0,0.0,0.0,0.0,0.0,0.0,0.0,0.0,0.0,0.0,0.0,0.0,0.0,0.0,0.0,0.0,0.0,0.0,0.0,0.0,0.0,0.0,0.0,0.0,0.0,0.0,0.0,0.0,0.0,0.0,0.0,0.0,0.0,0.0,0.0,0.0,0.0,0.0,0.0,0.0,0.0,0.0,0.0,0.0,0.0,0.0,0.0,0.0,0.0,0.0,0.0,0.0,0.0,0.0,0.0,0.0,0.0,0.0,0.0,0.0,0.0,0.0,0.0,0.0,0.0,0.0,0.0,0.0,0.0,0.0,0.0,0.0,0.0,0.0,0.0,0.0,0.0,0.0,0.0,0.0,0.0,0.0,0.0,0.0,0.0,0.0,0.0,0.0,0.0,0.0,0.0,0.0,0.0,0.0,0.0,0.0,0.0,0.0,0.0,0.0,0.0,0.0,0.0,0.0,0.0,0.0,0.0,0.0,0.0,0.0,0.0,0.0,0.0,0.0,0.0,0.0,0.0
0.7149613117201268,0.7464938983134621,0.7066077885834713,0.6051097078788595,0.46250073486934745,0.30448876493654203,0.1556296296493338,0.03471874618942128,-0.04847467239442068,-0.09327481590491273,-0.10598378184704269,-0.09667675812059222,-0.07522398489803972,-0.04923363643065021,-0.0229764257037444,0.0021767494183576623,0.02615344931031117,0.04963593502074673,0.07240143693345485,0.09323429181334596,0.11033728068375798,0.12168499391588536,0.1269992789962017,0.12713520930287878,0.12408941587311205,0.12033080155652388,0.1174771377572378,0.11719757935174491,0.11979391691646404,0.12459431902876693,0.13032432242928976,0.13498158494840118,0.13807536556053956,0.1394725638812749,0.1396626094315976,0.1394576357769904,0.1393290211404966,0.14004478012380242,0.14187540902086485,0.14479437248381838,0.14859094912469106,0.15300298126399786,0.15781288097454874,0.1628824356512892,0.16813521488796296,0.17351475529187535,0.17894697841301163,0.18432152316010048,0.18948983499258032,0.19426844076728705,0.1984385614590596,0.20137785093211358,0.20349031912927432,0.20441677965063335,0.20386753511718106,0.20185921822138075,0.19874838063339215,0.19590917352959022,0.1948737284638445,0.19742037583965807,0.2052798749837018,0.21982612759973935,0.24150686380853897,0.26985572225498666,0.30331419534470144,0.3394009559746019,0.37514451844012736,0.40771778107801926,0.4351170767330803,0.4567182571679013,0.473522036965502,0.4879187136357177,0.5032956205503244,0.5228237946592711,0.5485403615259516,0.5804988588041612,0.616262855368766,0.6512595405648511,0.6791676973065002,0.6931972822144828,0.6874756806428204,0.6582650210049785,0.6051073920581111,0.530777517804925,0.4410434152245437,0.3437378403214102,0.24738580559500345,0.1600835923255436,0.08793061433537848,0.03437905538685517,-3.931241388356941e-19,-0.01729430978256024,-0.0212384709612643,-0.016643958917998615,-0.008270781523635962,5.954487907745466e-20,0.005588661564234095,0.007694969093660332,0.006638906107271147,0.0035825409222609086,1.0375106281399273e-19,-0.002916064323492909,-0.00420297366159916,-0.003767736765698023,-0.0020992436560816445,-4.130988274413996e-19,0.0016272956295264544,0.0024402403034389387,0.0022695415491599553,0.0013082418197297207,4.515341454945131e-19,-0.001250493974158988,-0.0018576859319064647,-0.0017075950582907838,-0.0009710325730480588,-6.3998919950709415e-19,0.0006494965449306456,0.0010288336630854544,0.0010033919685868056,0.0006023996485724215,5.245993805023414e-19,-0.0008047157785406542,-0.0011503623371930337,-0.0010129770469675167,-0.0005493314700486143,-6.833690753160511e-19,0.00011977341824239156,0.0002441934322731545,0.00028396891275541823,0.00019410362299767954,2.9031212042986373e-19,-0.000568817192380406,-0.0007603736141751682,-0.0006181436823296593,-0.00030433472003679594,-4.919072951550545e-19,0.0,0.0,0.0,0.0,0.0,0.0,0.0,0.0,0.0,0.0,0.0,0.0,0.0,0.0,0.0,0.0,0.0,0.0,0.0,0.0,0.0,0.0,0.0,0.0,0.0,0.0,0.0,0.0,0.0,0.0,0.0,0.0,0.0,0.0,0.0,0.0,0.0,0.0,0.0,0.0,0.0,0.0,0.0,0.0,0.0,0.0,0.0,0.0,0.0,0.0,0.0,0.0,0.0,0.0,0.0,0.0,0.0,0.0,0.0,0.0,0.0,0.0,0.0,0.0,0.0,0.0,0.0,0.0,0.0,0.0,0.0,0.0,0.0,0.0,0.0,0.0,0.0,0.0,0.0,0.0,0.0,0.0,0.0,0.0,0.0,0.0,0.0,0.0,0.0,0.0,0.0,0.0,0.0,0.0,0.0,0.0,0.0,0.0,0.0,0.0,0.0,0.0,0.0,0.0,0.0,0.0,0.0,0.0,0.0,0.0,0.0,0.0,0.0,0.0,0.0,0.0,0.0,0.0,0.0,0.0,0.0,0.0,0.0,0.0,0.0,0.0,0.0,0.0,0.0,0.0,0.0,0.0,0.0,0.0,0.0,0.0,0.0,0.0,0.0,0.0,0.0,0.0,0.0,0.0,0.0,0.0,0.0,0.0,0.0,0.0,0.0,0.0,0.0,0.0,0.0,0.0,0.0,0.0,0.0,0.0,0.0,0.0,0.0,0.0
0.6874756806428204,0.7161749945856171,0.6751661552302163,0.573831216621622,0.432001714971858,0.2746975394654771,0.12595422712805857,0.004466748225521691,-0.0797232790545323,-0.12536797289874038,-0.1380806017118662,-0.12739492882929324,-0.1028064160141444,-0.07192809056936811,-0.03938628947108526,-0.007176724396515316,0.023821632210525034,0.05358229777594914,0.08128625810555139,0.10532539374494139,0.12372715291883553,0.1344469470093743,0.13742115325237078,0.13382949193445473,0.12609128921456608,0.1171634661062823,0.10938921304094283,0.10473593785924762,0.10381363254112247,0.10615193599563763,0.11059977929372904,0.11568541998731621,0.12050615894714214,0.1246076348866658,0.12804430515044013,0.13117684555604947,0.13434388125766505,0.13790334911480712,0.14199543288921665,0.14662570104411182,0.1517539118183699,0.15736709354799155,0.16349453185363583,0.1701629496521557,0.1773259661899773,0.18481580361723615,0.19235235076795468,0.1996134212696616,0.2063368291136014,0.2124062390653704,0.21787769541610236,0.22257705253446483,0.22735552893205094,0.23220873204615347,0.23692510869585184,0.2412228880069295,0.24480318925878441,0.24809307643611384,0.2516866374866778,0.2566714913136074,0.26456808059775666,0.2771621436322626,0.2958321259552858,0.32141937749701366,0.3536360701954464,0.39076770562939783,0.42967418959944453,0.4661210301847482,0.4954512430728546,0.5134100987064305,0.516967330661039,0.5048710232274598,0.47815341047618254,0.43964993966329946,0.39357635457991347,0.34473650672564293,0.29758737542507546,0.2557063877326063,0.22099596733534943,0.1936710746936371,0.17250568279024697,0.1552952063991858,0.13972514626926416,0.1237096659404415,0.10596733840117337,0.08625284139512349,0.06524585198740515,0.04452918468282974,0.025821697313387255,0.010652295370594204,-2.8088544833069225e-20,-0.005986734619431305,-0.0077010558752681115,-0.006300541504922921,-0.00325772721108482,-2.2587046979632154e-19,0.002302894994151747,0.0032850080206064045,0.002928703390402595,0.0016287949054304253,2.794229187562802e-19,-0.0014598934867337552,-0.0021291551813196943,-0.0019263481491325453,-0.0010806714315335537,-4.788436452488921e-19,0.0007738250480710737,0.0011864330363808278,0.0011253260952140483,0.0006598753219050932,3.912854277559613e-19,-0.0007292086677418747,-0.0010647015543679833,-0.0009601311544224843,-0.0005347167785668579,-5.125840332244711e-19,0.0002323419197065497,0.0003995848057293989,0.00041623659513983125,0.00026357205304492875,2.9976861282325154e-19,-0.0005313520365692571,-0.0007290228046517209,-0.0006121774512335994,-0.00031409566391859335,-4.563609688518001e-19,3.0054292647422904e-05,6.127453807207544e-05,7.125524955337058e-05,4.870569092126485e-05,7.284692675995548e-20,-0.00014273115532270568,-0.0001907976866415501,-0.0001551084656304475,-7.636556485552594e-05,-1.2343244453517442e-19,0.0,0.0,0.0,0.0,0.0,0.0,0.0,0.0,0.0,0.0,0.0,0.0,0.0,0.0,0.0,0.0,0.0,0.0,0.0,0.0,0.0,0.0,0.0,0.0,0.0,0.0,0.0,0.0,0.0,0.0,0.0,0.0,0.0,0.0,0.0,0.0,0.0,0.0,0.0,0.0,0.0,0.0,0.0,0.0,0.0,0.0,0.0,0.0,0.0,0.0,0.0,0.0,0.0,0.0,0.0,0.0,0.0,0.0,0.0,0.0,0.0,0.0,0.0,0.0,0.0,0.0,0.0,0.0,0.0,0.0,0.0,0.0,0.0,0.0,0.0,0.0,0.0,0.0,0.0,0.0,0.0,0.0,0.0,0.0,0.0,0.0,0.0,0.0,0.0,0.0,0.0,0.0,0.0,0.0,0.0,0.0,0.0,0.0,0.0,0.0,0.0,0.0,0.0,0.0,0.0,0.0,0.0,0.0,0.0,0.0,0.0,0.0,0.0,0.0,0.0,0.0,0.0,0.0,0.0,0.0,0.0,0.0,0.0,0.0,0.0,0.0,0.0,0.0,0.0,0.0,0.0,0.0,0.0,0.0,0.0,0.0,0.0,0.0,0.0,0.0,0.0,0.0,0.0,0.0,0.0,0.0,0.0,0.0,0.0,0.0,0.0,0.0,0.0,0.0,0.0,0.0,0.0,0.0,0.0,0.0,0.0,0.0,0.0,0.0
0.516967330661039,0.5515071177320404,0.5414489022937488,0.4939798678687113,0.4229221953956561,0.34473650672564293,0.27407117702520084,0.22091451809364948,0.18867974000223,0.17474746651571302,0.17250568279024697,0.1739966469592871,0.17295933597366056,0.166125193259066,0.15361645445999203,0.13807741424819267,0.12299159301506099,0.1115081109059768,0.10505713129153807,0.10311862222569633,0.10364914570613841,0.10384711028561534,0.10149068916703097,0.0953680291813291,0.0856019425915571,0.07346197016800701,0.060790530710298496,0.04978853142355353,0.04235392438815848,0.039899497642210166,0.043274794629875615,0.052691816241761266,0.06801808855058379,0.08857380812234646,0.1131554155342342,0.14004421658996044,0.16707387963384007,0.1920089875630807,0.21279423366673958,0.2279437830747135,0.23681363855004528,0.23969537028090354,0.23769696364842516,0.23244325201024155,0.22568337021680673,0.2189164328429661,0.21313270766777972,0.2087237159788103,0.20555870291091435,0.20317684821287454,0.20101922713588696,0.19836119959560095,0.19545087188152663,0.19219688043136418,0.18863982000595772,0.1849258798379026,0.18106985107920306,0.17756499474306206,0.1744380164237693,0.1715827553240514,0.16883253253991823,0.1659521598022593,0.1630355224920871,0.16007472146508733,0.15710837000754105,0.15419224090868,0.15128753404972545,0.14850131150470747,0.14572292684857543,0.1427892053367925,0.1395519492774418,0.13588898192132381,0.13194460473395497,0.1278542732397618,0.12379942909995993,0.11994262357566839,0.11631426250414523,0.1128956761108151,0.10940381396791563,0.10539129646445784,0.10033329787389497,0.09372528361458006,0.08529449919037363,0.07499094063180559,0.06308564772130477,0.050166648936947486,0.03699359265376579,0.024643281007809655,0.013985188780725862,0.00566438253637734,1.253946184976717e-19,-0.0031793403639453653,-0.004040997060598831,-0.003266319718615315,-0.0016679629797119446,-2.8232676417927487e-19,0.0010832097561255258,0.0015398385334473548,0.0013700143110774005,0.0007611450746825249,1.678507359045837e-19,-0.0007329447085565389,-0.0010531469560775635,-0.0009378214230713637,-0.0005173752173970806,-2.792122766453467e-19,0.00031978860858267893,0.0004936552562646945,0.00047136330450143907,0.00027816749345718197,1.5780803205748717e-19,-0.00033971758284296574,-0.0004889270490642712,-0.0004342518123213383,-0.00023800314994581442,-2.2807567314460467e-19,0.00010706335112180515,0.0001751745441470993,0.00017553716822206282,0.00010780625850175944,1.0630999449765185e-19,-0.00017572920076810327,-0.00024580275097424025,-0.00021117815746384412,-0.00011135636974010885,-1.5013854063839364e-19,1.7480272231087176e-05,3.5638689584192916e-05,4.1443702392169874e-05,2.8328357166639462e-05,4.236945869598711e-20,-8.30157435467851e-05,-0.00011097235069486671,-9.021467370315731e-05,-4.44159800536781e-05,-7.179116667077624e-20,0.0,0.0,0.0,0.0,0.0,0.0,0.0,0.0,0.0,0.0,0.0,0.0,0.0,0.0,0.0,0.0,0.0,0.0,0.0,0.0,0.0,0.0,0.0,0.0,0.0,0.0,0.0,0.0,0.0,0.0,0.0,0.0,0.0,0.0,0.0,0.0,0.0,0.0,0.0,0.0,0.0,0.0,0.0,0.0,0.0,0.0,0.0,0.0,0.0,0.0,0.0,0.0,0.0,0.0,0.0,0.0,0.0,0.0,0.0,0.0,0.0,0.0,0.0,0.0,0.0,0.0,0.0,0.0,0.0,0.0,0.0,0.0,0.0,0.0,0.0,0.0,0.0,0.0,0.0,0.0,0.0,0.0,0.0,0.0,0.0,0.0,0.0,0.0,0.0,0.0,0.0,0.0,0.0,0.0,0.0,0.0,0.0,0.0,0.0,0.0,0.0,0.0,0.0,0.0,0.0,0.0,0.0,0.0,0.0,0.0,0.0,0.0,0.0,0.0,0.0,0.0,0.0,0.0,0.0,0.0,0.0,0.0,0.0,0.0,0.0,0.0,0.0,0.0,0.0,0.0,0.0,0.0,0.0,0.0,0.0,0.0,0.0,0.0,0.0,0.0,0.0,0.0,0.0,0.0,0.0,0.0,0.0,0.0,0.0,0.0,0.0,0.0,0.0,0.0,0.0,0.0,0.0,0.0,0.0,0.0,0.0,0.0,0.0,0.0
1.0006505165814363,1.038855881962127,0.97360507438091,0.8186331756737499,0.603191358245394,0.3643492856759633,0.13786070543211515,-0.048160755177410204,-0.1783261229085436,-0.250276061267546,-0.2719519452295098,-0.25728185849316026,-0.22053058841486886,-0.17339054847964397,-0.1232640340587593,-0.07363859732328103,-0.025983441202276546,0.0193293563292901,0.06107749751178595,0.09705934746128816,0.12467475058294772,0.1416376437330831,0.14787390940952977,0.14515782353580953,0.13690740767173917,0.12720894625796386,0.1194077665886425,0.11592442490685782,0.11731063521047914,0.12256743915108233,0.12974314193298,0.13651990581568813,0.1413605762324983,0.14348892384560438,0.14301621232658798,0.1407446128411561,0.13781902667664794,0.13577592385806153,0.1362547505901342,0.14099568932128156,0.15174608374933216,0.17004726546777948,0.19689106363899284,0.2323196821065161,0.2751040910134166,0.32264440824700946,0.37118392681897355,0.41633455343519904,0.4538102196033263,0.48019333961102256,0.49354273274468685,0.49318014822790945,0.4816022250706374,0.4615045845159094,0.43619888850123073,0.4090952334358708,0.38303559976359797,0.36065958137729287,0.3432965143651209,0.33137103693696174,0.3246477341270548,0.32266793039206443,0.3244526212610359,0.3293177819610441,0.3365741156221744,0.3453803091075363,0.3546502568559777,0.3628836705802699,0.3684823901586897,0.3699329209375524,0.3661128840880179,0.35649766700558017,0.341552207044214,0.3223739305328449,0.30060053683331445,0.27807334570091,0.2563807433482122,0.23676201045885428,0.21956357856268385,0.20433977981723697,0.1900338073138022,0.1752337482590645,0.15881201806151868,0.1399423949771832,0.11847244155980735,0.0950169036569011,0.07079150967087258,0.0476333379111097,0.027278932356827875,0.011135047198840826,1.4063815525863888e-19,-0.006157611198606866,-0.007876679049814442,-0.006415364234526138,-0.003305019985963201,-3.7954967705112255e-19,0.0022531374812884922,0.003225428842770047,0.002888283707196927,0.0016141334104273282,3.887669258939799e-19,-0.0016023821996861143,-0.0023014450548750984,-0.0020474821715503553,-0.0011279503220208548,-6.498701106609767e-19,0.0006904953038275805,0.0010641658956728225,0.0010144023626773632,0.0005976359739844374,3.490215485726093e-19,-0.0007086106684601684,-0.001024219892276451,-0.0009138180461965998,-0.0005032445782142795,-4.864884778931079e-19,0.0002205161468814505,0.00036794396443355897,0.00037452053767488024,0.00023292967694532628,2.4434178776714797e-19,-0.00041706315965900104,-0.0005781489546319469,-0.0004915084011909627,-0.00025597614664748456,-3.572053686195764e-19,3.3108078328396295e-05,6.75005806932718e-05,7.849542197509385e-05,5.3654625945694025e-05,8.024882786114633e-20,-0.000157233920816694,-0.00021018444281192968,-0.00017086887686011036,-8.412499114484336e-05,-1.359742879287631e-19,0.0,0.0,0.0,0.0,0.0,0.0,0.0,0.0,0.0,0.0,0.0,0.0,0.0,0.0,0.0,0.0,0.0,0.0,0.0,0.0,0.0,0.0,0.0,0.0,0.0,0.0,0.0,0.0,0.0,0.0,0.0,0.0,0.0,0.0,0.0,0.0,0.0,0.0,0.0,0.0,0.0,0.0,0.0,0.0,0.0,0.0,0.0,0.0,0.0,0.0,0.0,0.0,0.0,0.0,0.0,0.0,0.0,0.0,0.0,0.0,0.0,0.0,0.0,0.0,0.0,0.0,0.0,0.0,0.0,0.0,0.0,0.0,0.0,0.0,0.0,0.0,0.0,0.0,0.0,0.0,0.0,0.0,0.0,0.0,0.0,0.0,0.0,0.0,0.0,0.0,0.0,0.0,0.0,0.0,0.0,0.0,0.0,0.0,0.0,0.0,0.0,0.0,0.0,0.0,0.0,0.0,0.0,0.0,0.0,0.0,0.0,0.0,0.0,0.0,0.0,0.0,0.0,0.0,0.0,0.0,0.0,0.0,0.0,0.0,0.0,0.0,0.0,0.0,0.0,0.0,0.0,0.0,0.0,0.0,0.0,0.0,0.0,0.0,0.0,0.0,0.0,0.0,0.0,0.0,0.0,0.0,0.0,0.0,0.0,0.0,0.0,0.0,0.0,0.0,0.0,0.0,0.0,0.0,0.0,0.0,0.0,0.0,0.0,0.0
0.49354273274468685,0.5351957081996879,0.5386478592304063,0.5103398545188782,0.46242085536048355,0.4090952334358708,0.3625878259703178,0.33096120347507324,0.3164644954949755,0.31630571387611617,0.3246477341270548,0.33496356558130763,0.342716719756344,0.3461258662595301,0.3461540099149773,0.3453803091075363,0.34623875286469286,0.35018280900872667,0.35658721568638235,0.36301892602871033,0.3661128840880179,0.3625821392233251,0.35086251270372665,0.33124505124770554,0.30587669541707124,0.27807334570091,0.2511574099169235,0.22807060686746292,0.21035236986050698,0.19806613745997279,0.1900338073138022,0.18417601768802258,0.17862844708909134,0.17187317625560633,0.16314929622008173,0.15254051818026226,0.14079948290293073,0.129407423880608,0.12013301554935044,0.11480838983917928,0.11504722904672235,0.12197014954933658,0.13596536506342208,0.1565283212553017,0.18222875788248188,0.21083845214730776,0.23961855855834663,0.26572259707045287,0.28663546302510007,0.3005542728891677,0.30662967524789314,0.30476900649715466,0.29648812624772386,0.2833801915604496,0.267298615186899,0.25011533895753635,0.23330576702466072,0.2186088487676128,0.20689040710811207,0.19854661350465697,0.19360100266717953,0.19164196105546394,0.19254450294704736,0.19568049378991334,0.2002784127031171,0.20550040260213348,0.21034588032234938,0.21442068471273462,0.21713478924330606,0.21813438165465152,0.21739980253708746,0.21508145682717092,0.2121510146542437,0.20929581741128897,0.2070795730325059,0.20578220724778554,0.20513261519423745,0.20480622804270215,0.20375588497823433,0.20065194947882548,0.19416461195848364,0.18317147232246875,0.16739204608864927,0.14705236718976786,0.12309567368900375,0.09708230597924182,0.07088044503860509,0.04665018750630939,0.026112320874501438,0.010418547324572144,4.481672071565111e-20,-0.00550565265155621,-0.006905681223891701,-0.00552289224605116,-0.002797847791935846,-2.1055526632811433e-19,0.0018800808616001516,0.002648044161853153,0.002336063722234766,0.001287902652539685,2.1635324163788023e-19,-0.0012092790550586904,-0.0017337423021531878,-0.0015414057401826357,-0.0008494749420935462,-3.950718767372273e-19,0.0005522286587070647,0.0008421092842106569,0.0007953152628323947,0.00046481964568134346,2.2430615883785104e-19,-0.000515644237038588,-0.0007509309234594451,-0.0006756846176832502,-0.00037562946752722737,-3.1972542910344053e-19,0.0001980139490104524,0.0003202919026251492,0.00031794685210556313,0.00019375793163346094,1.8349280260551447e-19,-0.0002964991129415461,-0.00041743196812599605,-0.00036132139158804634,-0.00019218439833249354,-2.528674590889589e-19,3.3827755556720053e-05,6.896785494403724e-05,8.020169339208183e-05,5.4820927780078316e-05,8.199321342887672e-20,-0.00016065174746339458,-0.00021475326603807065,-0.00017458308940019655,-8.595363368517341e-05,-1.3892998948562282e-19,0.0,0.0,0.0,0.0,0.0,0.0,0.0,0.0,0.0,0.0,0.0,0.0,0.0,0.0,0.0,0.0,0.0,0.0,0.0,0.0,0.0,0.0,0.0,0.0,0.0,0.0,0.0,0.0,0.0,0.0,0.0,0.0,0.0,0.0,0.0,0.0,0.0,0.0,0.0,0.0,0.0,0.0,0.0,0.0,0.0,0.0,0.0,0.0,0.0,0.0,0.0,0.0,0.0,0.0,0.0,0.0,0.0,0.0,0.0,0.0,0.0,0.0,0.0,0.0,0.0,0.0,0.0,0.0,0.0,0.0,0.0,0.0,0.0,0.0,0.0,0.0,0.0,0.0,0.0,0.0,0.0,0.0,0.0,0.0,0.0,0.0,0.0,0.0,0.0,0.0,0.0,0.0,0.0,0.0,0.0,0.0,0.0,0.0,0.0,0.0,0.0,0.0,0.0,0.0,0.0,0.0,0.0,0.0,0.0,0.0,0.0,0.0,0.0,0.0,0.0,0.0,0.0,0.0,0.0,0.0,0.0,0.0,0.0,0.0,0.0,0.0,0.0,0.0,0.0,0.0,0.0,0.0,0.0,0.0,0.0,0.0,0.0,0.0,0.0,0.0,0.0,0.0,0.0,0.0,0.0,0.0,0.0,0.0,0.0,0.0,0.0,0.0,0.0,0.0,0.0,0.0,0.0,0.0,0.0,0.0,0.0,0.0,0.0,0.0
