0.604063839467612,0.650254392961285,0.6474424345325133,0.6039498478452553,0.5354415680260011,0.46025535033421333,0.3937824137941182,0.3466601018547423,0.32160538320228244,0.314419629748341,0.31644686120081467,0.31721792431767065,0.30967491126448476,0.29058022195193206,0.2612650872111182,0.22648406893034534,0.19191393045816454,0.16345454684302893,0.1446235966136071,0.13619969608465446,0.13652127665987593,0.14219259293756215,0.15000334837097007,0.1573605671949929,0.1629483151966891,0.16673582852977167,0.16947073858072306,0.17261936503279612,0.17758106125746478,0.18546655208315316,0.19695038039966742,0.2121847909958349,0.2309574604664696,0.252610119567175,0.2761233693960633,0.3002458082290085,0.32370558908012736,0.3455986706139275,0.3656639242054109,0.3845012553992185,0.4035412360583496,0.4247312206063009,0.4499661931470612,0.4804475558604076,0.5161449038481627,0.5555702176099443,0.5959550185871302,0.6339220682842905,0.6662982783649282,0.6909927292330967,0.707599199161539,0.7171771705608581,0.7231933964174756,0.7290186749579358,0.7375059219826451,0.7500789129584451,0.7658641410623384,0.7826354450004196,0.7960051252607894,0.8008515788654705,0.7925586267553512,0.7679747661315331,0.7269198129352805,0.6714932568052194,0.6060068600693841,0.5361239905350211,0.46753635742216443,0.405490940983979,0.35318265647286373,0.3116079290285282,0.27968935431469083,0.25465984626720223,0.23347574066891297,0.21309542618603314,0.19137694799421304,0.1674773331844456,0.1416551696841865,0.11567416456442317,0.09151986169224197,0.07100859323429756,0.055265312054200336,0.044166319595876656,0.03719986924296884,0.03287211554798827,0.029442385458927363,0.0254342846974188,0.019811617899237063,0.012981671084080056,0.005782102857210377,-0.0004746333760469836,-0.004396742659362731,-0.00512234363166633,-0.001863284154153121,0.004959762442230287,0.014224404492526722,0.024441139770421318,0.0338929131581099,0.04196203299127424,0.047953370298202125,0.05165382516584658,0.053279022200205355,0.05300296517224586,0.05198850711589901,0.05052843787276544,0.04868043399144599,0.04642189350896743,0.04352038818417146,0.04093127820772138,0.03905879576216872,0.03841224875550596,0.039564764817729484,0.04271366999876276,0.04881631842932449,0.057606865444914966,0.06831088021430808,0.07983941583833493,0.09054075524056879,0.10020383993600958,0.108328798773479,0.11484776639153771,0.12011406685894037,0.12407969729708705,0.1282939377212582,0.13368417961606593,0.14085402090739205,0.14984414158243117,0.1595333231395344,0.16907545544455135,0.1767989842825578,0.18085537623896047,0.179574216305922,0.17160515664237572,0.15686042180784515,0.13608568020441822,0.11094189390873478,0.08372833647877206,0.05685211636334467,0.03267715538164509,0.01282823579136848,-0.002003995077036571,-0.01211754334837786,-0.018621580228400332,-0.02308587229213176,-0.027080812111344842,-0.03176385786997156,-0.037606078310323365,-0.04435032543047375,-0.05114235003132342,-0.056955029460196906,-0.060999060339569165,-0.06309461327226887,-0.0638847791057364,-0.06464912285004684,-0.06708072346075024,-0.07265878399097278,-0.08199026439559234,-0.09427381458798718,-0.1069177697862939,-0.1157616691657007,-0.11556156283540603,-0.10088591551891576,-0.06724823282757171,-0.012135298298041268,0.0640358560823528,0.15756908546929108,0.26170133005389123,0.3673773174999076,0.4647047645582111,0.5442949502072526,0.5988426105816186,0.6242885756266983,0.6203359328443865,0.5905661194738056,0.541344460900272,0.4806725301572079,0.41672531660682405,0.35640460519690176,0.30462826930261305,0.2634758012447027,0.23245928205078958,0.2091620575869497,0.19008619537095947,0.1720051978293881,0.15232997946107063,0.12979305234367383,0.10458102879347485,0.07805267543548611,0.052400933333830335,0.02982519302231775,0.012058364969981188,-3.5740894617853296e-19,-0.006404001643622596,-0.008075886905995207,-0.00648767289914743,-0.0032997058523706307,1.873434202669426e-19,0.002383029722898805,0.0033323869143356173,0.00291438221502433,0.001591600351586649,9.558125447204169e-22,-0.0012431244429875693,-0.0018308480349341297,-0.0016771286109671744,-0.0009546846374571265,-1.3414725932260292e-19,0.0008627057632235638,0.001285594477465758,0.0011873003686214897,0.0006793128286941429,2.951688179554347e-19,-0.000533748508095144,-0.0008222508566575709,-0.0007828437989763014,-0.0004604219722107606,-3.185180108034312e-19,0.0002812721514473069,0.0004835950258764918,0.0005036387752857686,0.0003188648318050298,3.6239872409866923e-19,-0.0006421668042463598,-0.0008811361196769912,-0.0007399855076724752,-0.0003797185568492659,-5.515237632469932e-19,3.6440641188028775e-05,7.429499279991132e-05,8.639654282332549e-05,5.905534452260806e-05,8.83264414455543e-20,-0.00017306062992347693,-0.0002313409974400737,-0.00018806804098081168,-9.259276805038982e-05,-1.496610642291477e-19,0.0,0.0,0.0,0.0,0.0,0.0,0.0,0.0,0.0,0.0,0.0,0.0,0.0,0.0,0.0,0.0,0.0,0.0,0.0,0.0,0.0,0.0,0.0,0.0,0.0,0.0,0.0,0.0,0.0,0.0,0.0,0.0,0.0,0.0,0.0,0.0,0.0,0.0,0.0,0.0,0.0,0.0,0.0,0.0,0.0,0.0,0.0,0.0,0.0,0.0,0.0,0.0,0.0,0.0,0.0,0.0,0.0,0.0,0.0,0.0,0.0,0.0,0.0,0.0
0.7925586267553512,0.8454238690578162,0.8305160712524502,0.7591569804672694,0.6526618419960195,0.5361239905350211,0.43174109768626584,0.3539500988338709,0.3070088420391872,0.2859049867131077,0.27968935431469083,0.27583425918203397,0.26463667936932966,0.24149716371670063,0.2074019957591132,0.16747733318444563,0.12834130270570332,0.0959287648112642,0.07341767779899952,0.06075260233000939,0.05526531205420033,0.052875725053191124,0.0500626401352704,0.044600811438021984,0.03604396808554343,0.025434284697418808,0.014514674587894093,0.00516453590197823,-0.0013338749185299189,-0.0044693468123851105,-0.004396742659362736,-0.001643951711252378,0.0031432672297466145,0.0093966075774109,0.016644442922305613,0.02444113977042132,0.03232002700824964,0.03967597390924839,0.04590845664906472,0.05052856021985152,0.053279022200205355,0.054244195352006766,0.05364773734039074,0.051877304616270964,0.0493445303730584,0.04642189350896743,0.04352038818417146,0.04093127820772138,0.03905879576216872,0.03841224875550596,0.039564764817729484,0.04271366999876276,0.04881631842932449,0.057606865444914966,0.06831088021430808,0.07983941583833493,0.09054075524056879,0.10020383993600958,0.108328798773479,0.11484776639153771,0.12011406685894037,0.12407969729708705,0.1282939377212582,0.13368417961606593,0.14085402090739205,0.14984414158243117,0.1595333231395344,0.16907545544455135,0.1767989842825578,0.18085537623896047,0.179574216305922,0.17160515664237572,0.15686042180784515,0.13608568020441822,0.11094189390873478,0.08372833647877206,0.05678368643859789,0.03253816524059446,0.012657265127255122,-0.0021318941142038036,-0.01211754334837786,-0.018577935861062937,-0.02302202163674834,-0.02702590500711405,-0.031736926713395,-0.037606078310323365,-0.04452916943272077,-0.051482493852861855,-0.05735192108748341,-0.061283409155520774,-0.06309461327226887,-0.06371404207339328,-0.06437188534202512,-0.06680499632518484,-0.07249096999546252,-0.08199026439559234,-0.09471326862223658,-0.10773215450621695,-0.11669144418524557,-0.11621565489807734,-0.10088591551891576,-0.06676722709064768,-0.011329441762305034,0.06486887243943411,0.15810077850687512,0.26170133005389123,0.3663261489950419,0.46277032526558615,0.5420947449037873,0.5972955272809757,0.6242885756266983,0.6217365085326476,0.5930427033998593,0.5440756528161549,0.48255606826258296,0.41672531660682405,0.35325203263867266,0.29851756470322277,0.2560200901722194,0.2266962714350582,0.2091620575869497,0.19947549334186357,0.1946732567078193,0.1914718721676907,0.1875502967358251,0.18187077918071506,0.1739907198886603,0.16563499069694151,0.15860626907543798,0.15458005662954086,0.15457950077448043,0.15828308820870823,0.16523130309763537,0.17420691515177575,0.18384431093580023,0.19301528298635012,0.20093087946289967,0.20779946373757674,0.21439448630541189,0.22188095527737262,0.23145106519821979,0.24399097048079857,0.2596907089540701,0.2781158036991932,0.29825410973993316,0.3187959211254917,0.33856423553770254,0.3567438225567417,0.3733718114999938,0.38932688514707287,0.40614077705276364,0.4256418330413292,0.4492244359822754,0.4775994510202322,0.5103580668085921,0.5459226486762727,0.5817130415253914,0.6152631474371576,0.6442910100983412,0.6676406843832408,0.6857045202997817,0.7000696141356717,0.7142325510172028,0.7311036238387394,0.7526360203157901,0.7790769618115732,0.8083993166949118,0.8372996007184561,0.8608242327133726,0.8738737029370149,0.8724494033233646,0.8545630118271105,0.8211561793754855,0.7754168639863133,0.722237933040503,0.6670843003589069,0.6146545201066514,0.5682038113975145,0.5285052573189251,0.49406123278602365,0.46171919739444905,0.427587900514369,0.3884513141759921,0.3423144917476547,0.2891243180060401,0.23085959869722453,0.17102863792136436,0.11427295025563983,0.0649170494736521,0.026267730692201417,-1.075685301965771e-19,-0.014200013149463949,-0.018009506298323732,-0.01455305090110387,-0.007444201232060774,-3.8838382358644595e-19,0.005221357131500369,0.007381903022339237,0.006528426242949272,0.0036045849406800175,5.575124402393333e-19,-0.003155425115637097,-0.004590902567855933,-0.004145829736239882,-0.0023225005803299073,-9.535339052134349e-19,0.0016456259080695913,0.002527568934726925,0.002402009016831432,0.0014113058236313496,7.964094099108426e-19,-0.0016261381547615916,-0.002358930998867752,-0.0021129969886755787,-0.001168643120791413,-1.0996859295656114e-18,0.0005328048413070882,0.0008879137881558641,0.0009029042705205447,0.0005611185178002742,5.864554065332725e-19,-0.0009991903314457886,-0.0013858153138748396,-0.001178841853751357,-0.0006143745858731075,-8.5566692290083825e-19,8.044166229757691e-05,0.00016400404949994964,0.00019071787144500695,0.00013036296634965082,1.9497806688001165e-19,-0.00038202633914914734,-0.000510678566154661,-0.00041515476534796056,-0.00020439585956446337,-3.3037247412024225e-19,0.0,0.0,0.0,0.0,0.0,0.0,0.0,0.0,0.0,0.0,0.0,0.0,0.0,0.0,0.0,0.0,0.0,0.0,0.0,0.0,0.0,0.0,0.0,0.0,0.0,0.0,0.0,0.0,0.0,0.0,0.0,0.0,0.0,0.0,0.0,0.0,0.0,0.0,0.0,0.0,0.0,0.0,0.0,0.0,0.0,0.0,0.0,0.0,0.0,0.0,0.0,0.0,0.0,0.0,0.0,0.0,0.0,0.0,0.0,0.0,0.0,0.0,0.0,0.0
0.6242885756266983,0.666604388923968,0.6549259617557245,0.5977526404650132,0.5117035874571638,0.41672531660682405,0.33021129431102925,0.26497063118876224,0.22569201819045145,0.20968895907879703,0.2091620575869497,0.21368051072156768,0.21563689292814417,0.21061448439670774,0.19836158047833044,0.18187077918071506,0.16499683034148135,0.15231720965313908,0.14642325786817686,0.1476965149179805,0.15457950077448043,0.16401379047979356,0.17368285892940463,0.18189866971906934,0.188163303072741,0.19301528298635012,0.19733299657616077,0.20253066143722415,0.20963315516071687,0.21922564001318653,0.23145106519821979,0.24604248450231983,0.26264544449613947,0.28073379808201515,0.2996801305281347,0.3187959211254917,0.3373766880729034,0.3550601504875136,0.3719002470406382,0.38853349213945126,0.40614077705276364,0.426144092757557,0.44991853895700396,0.47818812098649327,0.5106642445607614,0.5459226486762727,0.5815762229605329,0.6150156820880015,0.6440145219403441,0.6674498555111402,0.6857045202997817,0.7002360554708249,0.7145169105065989,0.731404289396387,0.7528329399030406,0.7790769618115732,0.8080976180702844,0.8367523715706567,0.8602086689462255,0.8734440843982988,0.8724494033233646,0.8550337562067875,0.8220152862565194,0.7763971379517047,0.7229388015472068,0.6670843003589069,0.6135798402333247,0.5660662566340174,0.5258136494877296,0.49190133958346594,0.46171919739444905,0.43167498541018967,0.3987731876766179,0.3609048168752409,0.31760562166797274,0.2701822031559834,0.22120436931821613,0.17448729860939158,0.13357047683160694,0.10117256469907292,0.07864520891751771,0.06555326091463264,0.06054345962400142,0.06100770731480325,0.06399941939153819,0.06690984299843027,0.0676945548253389,0.06615045806946987,0.06273117691716247,0.05860155925767748,0.05517447707934281,0.05324199630742474,0.053946599453170485,0.057183758192903035,0.062187683613517945,0.06783536901907335,0.07254005500461454,0.0762164442329825,0.07859670164025012,0.07985747503919204,0.08049626095880388,0.08054672920598221,0.08132306468826242,0.08301749830794344,0.08545490116031496,0.0882321654411129,0.0903742955199574,0.09238485015298471,0.09403701762183374,0.09522038659560103,0.09596806992342188,0.09593703429177666,0.09616019077113012,0.09664725567486047,0.09725535349490097,0.0978144839305743,0.09787483962244027,0.09810679628120732,0.0985173593812309,0.09906263946357824,0.09966089793772673,0.09996839828808748,0.10028135425032293,0.10037894778960428,0.10003387224560628,0.09913892270767043,0.09766708251636681,0.09625866615587167,0.0954877271624085,0.09604224981953283,0.09861694747761411,0.10371900960208011,0.11171245880701966,0.12246957991426093,0.13540886482495532,0.14955297335181372,0.16364412898288197,0.1765251804850324,0.18720969947587945,0.19517409236554825,0.20048899922601332,0.20377693902920208,0.2061510429472119,0.20877846327298163,0.21258852351334484,0.21796841799987374,0.2245428942753083,0.23129847435742223,0.23658793841762923,0.23853341527162436,0.23544783677373415,0.22619105473246018,0.21060685780777166,0.18940870801916468,0.16415164877982963,0.1369586698284053,0.11009024593389224,0.08570939262042536,0.06530999866107359,0.04959855942704002,0.038469502883076434,0.03109227328289395,0.02635550589948681,0.022928421476838493,0.01965302011581263,0.015776512577153325,0.01101286242104493,0.005713704071385066,0.00047835942007858225,-0.0039547062465864515,-0.006916477728769788,-0.008032185242098895,-0.007125093527944599,-0.004483345212160073,-0.0006820642480344501,0.0035660166121295822,0.007522415565589862,0.010751813355345507,0.012940324752417444,0.01400316711254317,0.014048510953028953,0.013253149217125015,0.011973800535988925,0.01042557542581766,0.008748775592294634,0.007024255476514476,0.0052304275087153955,0.0035712570806177286,0.002106123446577104,0.0008959596050703732,1.9586349561074625e-19,-0.0006452536324444524,-0.0008513915713112959,-0.000707264922623732,-0.0003676217431309947,-2.6898027526208444e-19,0.00015379866649746152,0.000239515252472342,0.00023221637406063884,0.00013952377732794226,1.1261034247660602e-19,-0.0002524127238895254,-0.00034411787941715613,-0.00028732855311863764,-0.0001466724235456108,-1.850136429492134e-19,2.5540016066421146e-05,4.126828985902937e-05,4.1038415011266396e-05,2.5098390671938602e-05,1.5865378783364698e-20,-4.3946262375413675e-05,-6.074639021907106e-05,-5.1539742675820875e-05,-2.6816581170915302e-05,-2.9286475886959865e-20,1.0381567830335169e-05,1.5130299325792057e-05,1.3650382218504981e-05,7.625118083861532e-06,3.713194495423668e-21,-2.715372716685298e-06,-5.1552408552080794e-06,-5.780634633447277e-06,-3.880144338882724e-06,-2.091954148544029e-21,2.4475602925860753e-06,4.990073401199335e-06,5.802882186950972e-06,3.966492125446186e-06,5.9325051321705894e-21,-1.1623734166065829e-05,-1.55381744371609e-05,-1.2631717071990012e-05,-6.219055841838932e-06,-1.0052086522390061e-20,0.0,0.0,0.0,0.0,0.0,0.0,0.0,0.0,0.0,0.0,0.0,0.0,0.0,0.0,0.0,0.0,0.0,0.0,0.0,0.0,0.0,0.0,0.0,0.0,0.0,0.0,0.0,0.0,0.0,0.0,0.0,0.0,0.0,0.0,0.0,0.0,0.0,0.0,0.0,0.0,0.0,0.0,0.0,0.0,0.0,0.0,0.0,0.0,0.0,0.0,0.0,0.0,0.0,0.0,0.0,0.0,0.0,0.0,0.0,0.0,0.0,0.0,0.0,0.0
0.8724494033233646,0.937993238031973,0.9332580264464029,0.8707297763140995,0.7732334798223958,0.6670843003589069,0.5748480736239241,0.5102417560677683,0.4757609934403773,0.46402027587402517,0.46171919739444905,0.45466998675261316,0.43262407490339094,0.3917654397793726,0.33502072358181173,0.2701822031559834,0.2067401569568767,0.1530346327218783,0.11390306851092714,0.09003034497573185,0.0786452089175177,0.07502186408049304,0.07452171769524742,0.073747638931355,0.07116649669809279,0.06690984299843028,0.061947192635412054,0.057675574571735305,0.05502316647363166,0.05427848145982076,0.0551744770793428,0.05698351601644146,0.05933073045274416,0.06195397904049499,0.06478874344882822,0.06783536901907335,0.07082486144218585,0.07373306043531425,0.07638416453958088,0.07864510253636062,0.08049626095880388,0.0818359453413124,0.08304644074898174,0.08441851223629683,0.08614467150633896,0.0882321654411129,0.0903742955199574,0.09238485015298471,0.09403701762183374,0.09522038659560103,0.09596806992342188,0.09593703429177666,0.09616019077113012,0.09664725567486047,0.09725535349490097,0.0978144839305743,0.09787483962244027,0.09810679628120732,0.0985173593812309,0.09906263946357824,0.09966089793772673,0.09996839828808748,0.10028135425032293,0.10037894778960428,0.10003387224560628,0.09913892270767043,0.09766708251636681,0.09625866615587167,0.0954877271624085,0.09604224981953283,0.09861694747761411,0.10371900960208011,0.11171245880701966,0.12246957991426093,0.13540886482495532,0.14955297335181372,0.16367968623385332,0.17659740191953155,0.18729853848651865,0.1952405506903291,0.20048899922601332,0.2037542607385472,0.2061178651556747,0.20874993268943257,0.2125745296664002,0.21796841799987374,0.2244312638252877,0.2310597290538228,0.23628307937721654,0.2382988331394677,0.23544783677373415,0.22623280513819316,0.21065367245471509,0.1894295721301416,0.16414495650837196,0.1369586698284053,0.10987480110331456,0.08530024898001853,0.06483362602371717,0.0492581932977432,0.038469502883076434,0.03129479316127452,0.026680772863085678,0.02324693246940399,0.019842649326738848,0.01577651257715332,0.01056540221938125,0.004903707590122633,-0.0004245440235608952,-0.00457426218615916,-0.006916477728769788,-0.007601384693729517,-0.006448077657007818,-0.0038446349263457583,-0.00032663839536898297,0.0035660166121295814,0.00691388087730357,0.009831784173485805,0.01219144493036208,0.013764652565929044,0.014048510953028955,0.011655026478667965,0.0061041351557353275,-0.0032646699471861446,-0.016578554104466098,-0.03313669840736102,-0.05196912183364369,-0.06971163843726443,-0.08275173000630245,-0.08733557657225563,-0.08032190776775101,-0.060766469719267205,-0.027697258535179254,0.017472208437771003,0.07170745504569066,0.13075189720015032,0.18921426996722182,0.24282829386247898,0.2876641430054388,0.3210457419184628,0.34182570216805164,0.35028473811989297,0.3483832781577387,0.33876596934478326,0.32452321787692245,0.3087429101694011,0.29405206322382893,0.2826081755843591,0.2756029364060111,0.27339840820329653,0.2756601181707505,0.28154040080345616,0.2899795589545974,0.2998180113004278,0.31001501282614535,0.31979750445978183,0.3287632642551699,0.33697987934706003,0.3449529056748593,0.3535700799601541,0.36393489074881313,0.3771125957783558,0.393809572719952,0.4141130120194706,0.43733243126753774,0.4620595835078858,0.4864753628028477,0.5088732877003717,0.5282503514132866,0.5448118627329748,0.5601842762669584,0.577197171333145,0.5992520573314554,0.6292906187146395,0.668709679102363,0.7164581850565431,0.7686270811927409,0.8186146967387076,0.8581240778896643,0.8785681016778526,0.8727320938461279,0.8363370712781537,0.7689130388481752,0.6743068557689893,0.560094663838673,0.43636604692306397,0.31400509946112776,0.20320679493490548,0.11165221018398142,0.04367851967385015,-3.915464757964927e-19,-0.02209149392702804,-0.02715609381572573,-0.021297803872380013,-0.010588982641368386,-8.484699535269859e-20,0.007112503300689056,0.009800686282295322,0.008462179148723256,0.004569868732783092,1.8212418021529904e-19,-0.0037361676000230333,-0.005384618181037356,-0.004826050070536891,-0.0026880304719538086,-5.779690680883281e-19,0.002050047291130468,0.0030832748067744116,0.002875702648765254,0.0016620433235456315,5.975164787950311e-19,-0.0016483805855756085,-0.0024352621063904525,-0.00222569396522148,-0.001258216082837279,-8.658719343342421e-19,0.0008173860526548282,0.0012915351916421656,0.0012568689967937191,0.0007531714120646875,6.486767995536155e-19,-0.000987692067479084,-0.0014150739464812582,-0.0012491368038524825,-0.000679238480028605,-8.382256593504723e-19,0.00015204916920413813,0.000309997068190035,0.00036049098287304314,0.0002464093874033294,3.6854351632447124e-19,-0.0007220982986011201,-0.0009652740818176209,-0.0007847169658029027,-0.00038634483360842345,-6.244632294155312e-19,0.0,0.0,0.0,0.0,0.0,0.0,0.0,0.0,0.0,0.0,0.0,0.0,0.0,0.0,0.0,0.0,0.0,0.0,0.0,0.0,0.0,0.0,0.0,0.0,0.0,0.0,0.0,0.0,0.0,0.0,0.0,0.0,0.0,0.0,0.0,0.0,0.0,0.0,0.0,0.0,0.0,0.0,0.0,0.0,0.0,0.0,0.0,0.0,0.0,0.0,0.0,0.0,0.0,0.0,0.0,0.0,0.0,0.0,0.0,0.0,0.0,0.0,0.0,0.0
0.8727320938461279,0.9560431296873743,0.9793326006928993,0.9549858046191623,0.9041375388444814,0.8498811858849089,0.8104014659271817,0.7944997122218936,0.8000151676008361,0.8159464471597161,0.8270302779236899,0.8190759386162776,0.7837133790823628,0.7204527731650743,0.636290216345982,0.5430205888202393,0.45333886749425495,0.37747291202882033,0.3206669032708961,0.2826967859257738,0.25901089971678887,0.24283214222574398,0.2277636493557601,0.20940964887225086,0.1862119297319933,0.1592135055847494,0.1310246097690356,0.10487605139072008,0.08341508054053126,0.06816593703795701,0.05941611145270992,0.05636774672427671,0.05779926244861411,0.06224584030307529,0.06830612322913614,0.07477123916376918,0.08055533899812092,0.08509809981868101,0.08811701991986588,0.08967634395250895,0.09012636687482843,0.08981730297179269,0.08940269882876992,0.0893134953986619,0.08972633450520093,0.09053457222814183,0.09129868773364724,0.09177994656058802,0.09180973478554674,0.09144484768618275,0.09094277758145523,0.09010199509004126,0.09012743159415101,0.09104186009575149,0.09257967324918494,0.09433724885634694,0.09544514045689956,0.09650607936990105,0.09732100405183693,0.0977454219092882,0.09773172013123863,0.09689599135841657,0.09612441506340423,0.09538658143140546,0.09455581906302027,0.09352826599150184,0.09204666353202108,0.09076173629018255,0.08981788108150784,0.08931971201480104,0.08932481185176504,0.08972756452816523,0.09067538282861214,0.09196612847396822,0.09332440731833873,0.09449489656874792,0.09526818683910403,0.09583850077901135,0.09645045816770986,0.09753648056423606,0.09966498128573081,0.10339427559799963,0.10926149096598545,0.1174561114522529,0.12776087984159343,0.13951069928784515,0.1518223231931124,0.16326398343085008,0.17238478096608448,0.17797393558129831,0.1793564172899595,0.17695907877375167,0.1712023912137218,0.16307542008834006,0.15373906891755043,0.14428387113335794,0.13557608529018733,0.1280131899936851,0.12148045867969849,0.11546215369047672,0.10921132497675638,0.10167580824624504,0.09257873304255607,0.08179143016212143,0.06958568129224839,0.056563655648939656,0.04325308471272173,0.030734411639300952,0.01975158366778722,0.010774333777160137,0.003915986321122928,-0.001303355385237541,-0.005148451499630409,-0.008203783979358531,-0.011039599808357049,-0.014090617275868335,-0.017865836502075627,-0.02201967773133264,-0.02616436231596229,-0.029733223670975105,-0.03209722087285959,-0.03302583004935053,-0.031715031989809954,-0.02778092771040662,-0.021128234390556444,-0.012110239396812557,-0.0021576851524295125,0.007458425694360448,0.014410878007730242,0.015692564332300103,0.007876742079234481,-0.012936352899969144,-0.04870205879898319,-0.10004263549015169,-0.16524528035017955,-0.2399914780906997,-0.3178901029067624,-0.3901654534586975,-0.4477331775131374,-0.4823230522943609,-0.4878596982606338,-0.4616454300946058,-0.4045753081219111,-0.3215209449372873,-0.22042773970326915,-0.11107069670719552,-0.0036361727576466303,0.09301749518008462,0.17214556316567073,0.22994660872658815,0.2657183048462428,0.2814411573773121,0.28124652803565925,0.2701888828152699,0.2534176582049662,0.23543318219613243,0.2195964361169292,0.20808874815348266,0.20187706372067943,0.20104910433339337,0.20514805954602208,0.21344950361051468,0.22513282250748887,0.239319305939537,0.25506049676628356,0.27133697158466125,0.28714609985428746,0.30166178450053294,0.31453064871097447,0.32610012749870854,0.3375258836233005,0.3506648775883338,0.367619629366361,0.39020872285941055,0.4192370047543224,0.4539001474153629,0.4914960541706841,0.527541539637891,0.5564073872927462,0.5722761522547051,0.5702744112074253,0.5475076097931104,0.5037756592766028,0.4417442744295171,0.36658622261224744,0.28513720560371264,0.2048827444626525,0.13229789608146378,0.07247152147448085,0.02824061067601738,-5.152527383894083e-19,-0.01377420183932531,-0.01685595610841774,-0.01318756154283085,-0.006555203066832202,4.2237991687325585e-19,0.00458571914093045,0.006320022624532733,0.005458920502544776,0.002949542075815704,1.3386914876342825e-19,-0.0024595177194430395,-0.0035336617631042087,-0.0031561762740840785,-0.0017514018311181236,-4.119297530380688e-19,0.0013103634043465599,0.0019674194019683802,0.0018320865955000348,0.0010573740435274844,3.6317982041461417e-19,-0.0010329586782390522,-0.001529169782626856,-0.001400622642746859,-0.0007936131366943176,-5.281295654537304e-19,0.000529140758686251,0.0008338054683384426,0.0008095033266343815,0.0004840971687531839,4.1182562403286347e-19,-0.000621797103670902,-0.0008931173874807761,-0.0007905882460560254,-0.00043121402056491985,-5.273208558711368e-19,9.93543735286948e-05,0.00020256318838810677,0.0002355577209238696,0.00016101272006411552,2.4081953472116416e-19,-0.00047184489372203726,-0.0006307446609834263,-0.000512762173859768,-0.00025245155307410935,-4.0804664224759944e-19,0.0,0.0,0.0,0.0,0.0,0.0,0.0,0.0,0.0,0.0,0.0,0.0,0.0,0.0,0.0,0.0,0.0,0.0,0.0,0.0,0.0,0.0,0.0,0.0,0.0,0.0,0.0,0.0,0.0,0.0,0.0,0.0,0.0,0.0,0.0,0.0,0.0,0.0,0.0,0.0,0.0,0.0,0.0,0.0,0.0,0.0,0.0,0.0,0.0,0.0,0.0,0.0,0.0,0.0,0.0,0.0,0.0,0.0,0.0,0.0,0.0,0.0,0.0,0.0
0.8293988003843978,0.9065578611059515,0.9256139359239361,0.8984176641006625,0.845294827574813,0.788559099814603,0.745926305636529,0.7261554465719693,0.7274760707197245,0.7395345667124704,0.7477193992448083,0.7382692772591668,0.7028144032329193,0.6404762032972461,0.557608267715718,0.4653524258974717,0.3759996539161172,0.29979698148631245,0.24248744507948483,0.20472317295000642,0.18298545255013512,0.17139824569510329,0.16411821773149218,0.15675976176260759,0.14719472085506302,0.1353971576568826,0.12253782449377155,0.11041497581350905,0.10036316015676466,0.09291819519701364,0.08780886276363008,0.08405585261712731,0.0808678326467781,0.07755263132304248,0.07375759402423618,0.06945642539449723,0.06466141363693836,0.059897566441212094,0.05568890419312797,0.05259181446849575,0.0511039880253644,0.0513463622373464,0.05358859689332937,0.05769978346414135,0.0632424573777683,0.06952196607197687,0.07558956596473763,0.08079147335578325,0.08464488192213866,0.08698569244572982,0.08793994411858935,0.08734625665216454,0.08637522201790004,0.08519112679089433,0.08377978413278264,0.08209343531399647,0.07977117065481737,0.07779766579379963,0.0764176118458978,0.07584591612068381,0.07624692650940361,0.07732162726886288,0.07968557037386093,0.08296563301785603,0.08659827381256803,0.09003752070282753,0.09271416191211956,0.0950625704951634,0.09734841310954366,0.10006120726269274,0.10382811489625142,0.10916464291607839,0.11668741142572407,0.12646561060485104,0.13812308828215863,0.15087776313497595,0.1637005516303824,0.17554767761735138,0.18546264170979895,0.19290588103317996,0.19792741137370043,0.20132101947449293,0.2040977879731333,0.20736378988099757,0.211957470292257,0.21816179367788507,0.22545635419005342,0.23281758328787056,0.23861274339759758,0.2410163199605392,0.2383961759820697,0.22936667876173344,0.21398710250217154,0.19307688292571729,0.16828747499124835,0.14178144680896898,0.11553317778530393,0.09175747738270668,0.07185333795945341,0.05640667775400497,0.04516671763586829,0.036952967007221206,0.0307022442474713,0.025137750420888064,0.019267203471734475,0.012581381917373244,0.004812284133448345,-0.0032293449090998513,-0.010640339232495619,-0.016474272989832953,-0.0200039538011218,-0.021253486600283557,-0.01996949978521918,-0.01646540707613363,-0.011273622741325916,-0.0050586477779280825,0.0009535837250543222,0.006376934971343387,0.010404686523994875,0.0120116110907398,0.009886658245265642,0.0019330440106760836,-0.01268577027517942,-0.034579319540761,-0.06331635116816955,-0.09713452364946955,-0.1336230612210239,-0.16770407177196067,-0.1940797631191735,-0.20758282289531216,-0.2041557055442047,-0.1826000995385633,-0.14233206406676366,-0.08575680916041968,-0.01732365258455037,0.05709898152822154,0.13053575576503507,0.19739570591820033,0.25279454985008665,0.2935329855589096,0.3183536686006478,0.32776921327103375,0.3242246644443285,0.3109986936879153,0.2918873750598091,0.2706953322100939,0.2507299703159485,0.23476491146795697,0.2244945297317487,0.22063750391665662,0.22303699581954,0.23082061900485787,0.24271779853761666,0.25718697997354983,0.27270263355188623,0.28798735324336194,0.30220546913182617,0.3151317783232132,0.3271744505649465,0.33932175954531907,0.35293771066718377,0.36944078123899654,0.3898628481504996,0.41452832813751667,0.442809943718583,0.47315405584068276,0.5034071554327753,0.5313855093013812,0.555585777175867,0.5757899165889704,0.5933704010141816,0.6111284805895787,0.6326568037025585,0.661267587131527,0.698812602775122,0.7446723506843288,0.7952823647763845,0.844111119894866,0.8828110330023401,0.9025967323627166,0.895974300354476,0.8584536097935657,0.7892573616533167,0.6922021078974847,0.5749977884566466,0.447987150177238,0.32239736977335787,0.2086417539968354,0.11463078027094181,0.04483676836854811,-4.529275723231836e-19,-0.02264816612580084,-0.027831463870904086,-0.021821069426963456,-0.01084641071808972,-2.583584202604586e-20,0.0073063222069993695,0.010061646348260907,0.008681729151161818,0.00468517947636294,1.5563548973830299e-19,-0.003794783595624792,-0.005474698331224603,-0.004912708641166191,-0.0027400181352480162,-5.468826987212001e-19,0.0021161049282670367,0.00318090706022078,0.0029652058880214657,0.0017129190048109678,6.133186627610598e-19,-0.0016861333447624662,-0.0024938844870083694,-0.0022819681242968372,-0.0012915922481451557,-8.832830655666213e-19,0.0008423369183870807,0.0013324194618024674,0.0012978869635058054,0.0007783872389521438,6.736662178909742e-19,-0.0010291104022849612,-0.0014729641446066823,-0.0012988285163225864,-0.0007054144106493137,-8.736198285418245e-19,0.00015609847392775763,0.00031825276994164884,0.0003700914157291424,0.0002529716507920681,3.783584006104116e-19,-0.0007413288939851522,-0.000990980824705796,-0.000805615193218166,-0.00039663379452721775,-6.410936517837323e-19,0.0,0.0,0.0,0.0,0.0,0.0,0.0,0.0,0.0,0.0,0.0,0.0,0.0,0.0,0.0,0.0,0.0,0.0,0.0,0.0,0.0,0.0,0.0,0.0,0.0,0.0,0.0,0.0,0.0,0.0,0.0,0.0,0.0,0.0,0.0,0.0,0.0,0.0,0.0,0.0,0.0,0.0,0.0,0.0,0.0,0.0,0.0,0.0,0.0,0.0,0.0,0.0,0.0,0.0,0.0,0.0,0.0,0.0,0.0,0.0,0.0,0.0,0.0,0.0
0.895974300354476,0.9797668641149715,1.000692324702558,0.9713520249167295,0.9135498154042963,0.8513557476151222,0.8040122848315809,0.7813610034155047,0.7820403905946866,0.7955361595307708,0.8067371948757686,0.8012709086633791,0.7704125123332504,0.7131539393896693,0.6359032750522798,0.5498642604197372,0.46716936859275476,0.3976525705901247,0.3463172640449926,0.31289641163752263,0.29299132596370575,0.2801091773932535,0.26826606607015446,0.25344797888647563,0.23435081798240887,0.21205513305125445,0.1889302162513182,0.16777670503293063,0.1506590213171602,0.13850360740135526,0.1311189401388032,0.12743732847998365,0.12628987513334444,0.12653792129078656,0.12732126317686035,0.12807641265569453,0.12833584365791165,0.1280524179384142,0.12726679883228678,0.12616336545075513,0.12503388517258585,0.12404506232759882,0.12360171229431315,0.12387984751988311,0.12483481897681639,0.12619334473169477,0.12733076354062275,0.12802923726327162,0.12815474502419325,0.12782572583729268,0.12735280429080373,0.12638353024059945,0.12626998924801475,0.12707006965759218,0.1285482304580081,0.13031514056932628,0.1313786547553792,0.13239680431171352,0.1331548614256502,0.13347931582806638,0.13327747684784882,0.13206107929055394,0.13070096957296562,0.12917629208813325,0.12741274897118687,0.12538990302549322,0.12287743803423903,0.1206661156405725,0.1189704181392083,0.11791239683662022,0.11750232920313762,0.11744854653408747,0.1178614223103718,0.11845853543297434,0.11894366546938127,0.11911472170145976,0.11881963271433973,0.11845903687944837,0.11837323064493915,0.11898756553779581,0.1207271141997819,0.12384588938857712,0.12858275724885923,0.13476361324836705,0.14193584753655553,0.14946550743586015,0.15650879045238542,0.1628118413184513,0.1682639655854782,0.17316653430423062,0.1782039006719384,0.18398610634479826,0.1917822408229651,0.20235556861555987,0.21593120596587445,0.2319883546167987,0.24885570951883113,0.2648937334740025,0.277828214393825,0.28540061316842996,0.28577280856165904,0.27750960692836035,0.26097079856631944,0.23734429025797213,0.20876662841060883,0.17796249159262215,0.14733280950619065,0.11982416234602482,0.09734835800277715,0.08083574891456752,0.07015217462358522,0.06373060502742324,0.06044971961415122,0.05873088981367135,0.05728005009591739,0.05532035710550761,0.052028898224645494,0.0482706429601049,0.044762852085769717,0.04211704193398053,0.040488539587430004,0.03867940302130283,0.03639349606929006,0.03274709863096415,0.027117068129522685,0.019467461511410024,0.009715711703687357,0.00021788403943528946,-0.006520562706542584,-0.007834310632837875,-0.001553616564609959,0.012489619032421372,0.03495550979891846,0.06471499252852854,0.09965752407069493,0.1370534073752193,0.17348748773557127,0.20688432251508557,0.2354897110854268,0.2584227650330029,0.2756604313150485,0.2877798701166263,0.2960576496445564,0.30174220591081813,0.3060143352749669,0.3098729963817528,0.3139797770756533,0.3191362737029952,0.3257281795921651,0.3339980468593076,0.34408556144845714,0.3558734733872332,0.3695072009492664,0.3846094265726381,0.40056756239006813,0.41665035910073506,0.43210473288537143,0.446729593056402,0.46060980854864786,0.47438806519732435,0.48921515675301297,0.506466811122169,0.5274732191249576,0.5528739382839044,0.5823242277906688,0.6143906243476763,0.6467586624430698,0.6769072984796913,0.7027320768555654,0.7233473647416131,0.7395660919423398,0.7538759118436253,0.7699498171734158,0.7914910757702699,0.8209892971887961,0.8585542672238674,0.9012043932255749,0.9429224640083057,0.9754187320288987,0.9896283833306824,0.9775424425053951,0.9339718020663047,0.8578261182903075,0.7526150415800694,0.6260397908601794,0.48877122125269756,0.35261155235008973,0.22882961550204198,0.12609847017470377,0.049476003025433646,-4.788252081967982e-19,-0.025110753047001666,-0.0309576750375897,-0.024353123179771535,-0.01214620371756886,-6.507592227240171e-20,0.008235953744966051,0.011381734446046891,0.00985441599293467,0.00533551116309498,2.804643667327543e-19,-0.004392922384905403,-0.006340226065250414,-0.005689470110548489,-0.0031721641217019383,-7.552467146415597e-19,0.002402919216130183,0.003622878677231097,0.0033864815066042483,0.0019611090117502682,7.566610696472541e-19,-0.001981171645926181,-0.0029201318104062762,-0.0026620909663688536,-0.0015008290037220257,-1.0844126044642077e-18,0.0009350811116838175,0.0014864621556339398,0.0014541189333145566,0.0008752756804129317,7.739205690769451e-19,-0.0011990655741769556,-0.001709010808974805,-0.0014999520698935863,-0.0008104392072959656,-1.0191073613049043e-18,0.00017030944237388752,0.00034722601969697535,0.00040378397721788865,0.00027600180641572435,4.1280357587132555e-19,-0.0008088183527578437,-0.0010811982168190046,-0.0008789571792253111,-0.0004327427339477511,-6.99457846046959e-19,0.0,0.0,0.0,0.0,0.0,0.0,0.0,0.0,0.0,0.0,0.0,0.0,0.0,0.0,0.0,0.0,0.0,0.0,0.0,0.0,0.0,0.0,0.0,0.0,0.0,0.0,0.0,0.0,0.0,0.0,0.0,0.0,0.0,0.0,0.0,0.0,0.0,0.0,0.0,0.0,0.0,0.0,0.0,0.0,0.0,0.0,0.0,0.0,0.0,0.0,0.0,0.0,0.0,0.0,0.0,0.0,0.0,0.0,0.0,0.0,0.0,0.0,0.0,0.0
0.9775424425053951,1.0605623824498742,1.0701554609301127,1.0201471653241907,0.9351547456203197,0.8429778502058303,0.7666310677187984,0.7191539230956507,0.7011819852951797,0.7028357887471235,0.7084132579062654,0.7020495817003332,0.6732645495098789,0.6193699832395942,0.5455199189489788,0.46223516985876084,0.3814715743902108,0.31340387389915,0.26360381246098047,0.23243946685612915,0.21605708181125616,0.20826687057657448,0.20321677059555526,0.19674378023572062,0.1871614585427057,0.174990712946198,0.1619178920252346,0.15014325210842047,0.1412502034141629,0.1359071193514408,0.13392434408113982,0.1344510988964223,0.13673895547859166,0.14010793850263553,0.14408501974071852,0.1483267836393384,0.15231737187766342,0.15589176457161755,0.15884007006185108,0.16108610105967924,0.16272922319753702,0.16376266097057515,0.16473234765392922,0.16601862500077416,0.16782943697554903,0.17011076959341714,0.17234632470906505,0.1743295005530603,0.17582947392932843,0.1768211909230881,0.17749231598929727,0.17747097746902268,0.17816807061041162,0.17971148636935522,0.18195290104825204,0.18457302809613074,0.18662532909590257,0.18869184727361304,0.19043193937465144,0.19150466902294744,0.1916537402029642,0.19030206066802527,0.18823367147765202,0.18554104590465856,0.18235366077229231,0.17887900299135706,0.17511205974637126,0.17184681956047979,0.1692807065903472,0.1674234182266046,0.16610426577974993,0.16489041024119366,0.16361413899365337,0.16187895088901919,0.15938479222285346,0.15605387859352968,0.151974409998029,0.1479552272205501,0.1448986868951839,0.14388537948236205,0.1460034914073094,0.15195860420762763,0.1624376312998331,0.1773455112008182,0.19590393937996758,0.21668905564319943,0.23789222373823127,0.25738107314092434,0.2730621943424755,0.28332280423884904,0.28737461987908947,0.2857924521155377,0.27943621178550004,0.26978049225229855,0.25847415600611584,0.24701588650380982,0.23648430257455338,0.2275066910590001,0.21997819390483822,0.21330964097713262,0.2066571531285301,0.19878675870020276,0.18954002432820188,0.17882900374271518,0.1669711542264764,0.15457239992823718,0.1419488113667774,0.13014387051929133,0.11962282931634198,0.11049470449356066,0.10248764672794426,0.09463840682550896,0.08664865257794224,0.07794703514805545,0.06819601324341823,0.05740964840436269,0.045583227079567266,0.033949527246019226,0.0236862131762949,0.016081832748523837,0.012331650080781114,0.012905407511657311,0.01878046130198322,0.030091450688261,0.04636121210151907,0.06636851913277031,0.08749460979511144,0.10731546722866969,0.12222798816018804,0.1280459591160114,0.12040538818475949,0.09478085030176903,0.04923216621001436,-0.016364762237252913,-0.0992561014818297,-0.19362343718780423,-0.29133736217500783,-0.38164511973448034,-0.45373814291427195,-0.49801823142768725,-0.5076522625603679,-0.4799053729065902,-0.4161393648831954,-0.32237073120802356,-0.20806652021018165,-0.084639261607922,0.036183728534519156,0.1445231248085362,0.2330053455830345,0.2977307574521335,0.33837373934452386,0.3575704051808532,0.3603761437088014,0.35257185992681533,0.3397567917401075,0.3265136555526142,0.31586532737335815,0.3095091456675067,0.307672289999878,0.3097179925400271,0.3146535717607045,0.32147708640907413,0.32958564242167515,0.3385191725062371,0.3479444760985614,0.3575292871353934,0.36686535043755397,0.37566775931922997,0.38383226180780283,0.39173660878250083,0.4004050025100822,0.4114579490897437,0.4268199955360505,0.4481265008311851,0.4760554255612836,0.5097220009024176,0.5463171704311853,0.5813406640053641,0.6090064926189022,0.623278358824966,0.6190389992947529,0.5931224809237863,0.5453108726423853,0.4782620460478957,0.39728837426482744,0.30951949964737646,0.22283359155515658,0.14422253636409227,0.07921117973498992,0.030955745510997168,-5.162035079014953e-19,-0.015209615648921856,-0.018674462206485283,-0.014658037431287928,-0.007309045503885031,3.839616833726202e-19,0.005121820306230908,0.007081121592226958,0.00613497364446847,0.00332444730313846,2.168180493636467e-19,-0.002805782859871292,-0.004034209191130206,-0.003604859147262201,-0.002000686457988758,-5.416299410590598e-19,0.001466491253329526,0.0022109057299292464,0.002066706753203357,0.0011969479766733605,4.491338405901419e-19,-0.0012178099351341292,-0.0017926511722376314,-0.0016321353453002353,-0.0009189954780873298,-6.561411858903815e-19,0.0005803144941368653,0.0009171877442260721,0.0008927756415595517,0.0005350971312332461,4.614060921858377e-19,-0.0007031131169441636,-0.0010071126156737191,-0.0008887784425164096,-0.00048314625808146446,-5.967525513210197e-19,0.00010785023973728584,0.00021988451694375348,0.000255700436440986,0.00017478103723991617,2.614121918407348e-19,-0.0005121927007273473,-0.0006846801050024117,-0.0005566088478532454,-0.00027403887271484163,-4.429390134263998e-19,0.0,0.0,0.0,0.0,0.0,0.0,0.0,0.0,0.0,0.0,0.0,0.0,0.0,0.0,0.0,0.0,0.0,0.0,0.0,0.0,0.0,0.0,0.0,0.0,0.0,0.0,0.0,0.0,0.0,0.0,0.0,0.0,0.0,0.0,0.0,0.0,0.0,0.0,0.0,0.0,0.0,0.0,0.0,0.0,0.0,0.0,0.0,0.0,0.0,0.0,0.0,0.0,0.0,0.0,0.0,0.0,0.0,0.0,0.0,0.0,0.0,0.0,0.0,0.0
0.9513490081220931,1.0412167775067827,1.0650495738435573,1.0363541526059559,0.9782899189101845,0.9162534683773061,0.8702807028045519,0.8503029330583245,0.8541960322736158,0.8700584318361878,0.8811579286325192,0.8716909432857766,0.8322017489887193,0.7617968552891906,0.6678693045504256,0.5632709262329813,0.46205089635455365,0.3759780464407992,0.3115655499770742,0.2694357365065782,0.2453839238334434,0.23242536632617675,0.22373646828663873,0.21420969051328212,0.20144041766987228,0.18557321675958202,0.16821304706594165,0.15191849480209446,0.1387808658254166,0.12999644856037024,0.12576250968572067,0.12523875201243118,0.12766025385594382,0.13206313491385543,0.137582680246198,0.1434753737819958,0.1488642284992172,0.15343013966287822,0.15694277876201693,0.159434257780136,0.16118823787827088,0.16244781730072996,0.16387193132661032,0.16589909018265464,0.1687097757463727,0.1721570756389741,0.17566047049928604,0.1788095823314957,0.18119536898442914,0.18262075551817264,0.18312591339967726,0.18232819235127715,0.18149413992545188,0.18074331528083537,0.18001215534133613,0.17918186661402527,0.1776578720519963,0.17644902682664104,0.17562826868763884,0.17522346005785597,0.17523781982837328,0.1751500465042413,0.17573748604993972,0.17670712131146937,0.17763782283746313,0.17817060321563735,0.17778332365665092,0.17730842008961084,0.1772384373458757,0.1782501900021249,0.1811033866029014,0.18618481641172874,0.1943235910827516,0.20560213104444994,0.21957987540481408,0.23529170638755953,0.2512412364249539,0.26601328486741593,0.2780364844104522,0.28607193603730763,0.2894800261722177,0.2884385394307655,0.2837313623884617,0.276550021675443,0.2682455520311669,0.2600285775144575,0.2525904137328292,0.24639460878181177,0.24117339861425305,0.23621301049908053,0.23057712885669743,0.22303801441018703,0.21337262852617173,0.20153955112115454,0.18799029755548924,0.173558678123228,0.15889739062458594,0.14534725917496605,0.13366093423711115,0.12413504317946182,0.1165402273897586,0.10980466398621762,0.10337952662766363,0.09639151526008062,0.08822724919954353,0.07873485871287521,0.06790176888724468,0.05715237915133972,0.04799125702320167,0.04208322345527915,0.04092949003599183,0.04509644619730542,0.05545600109826159,0.07176933158127856,0.09302916749886603,0.11750002980576425,0.14223330052464292,0.16503888538325726,0.18310222848618354,0.19362690357923307,0.19407056957553667,0.1817445807385759,0.15635816886698237,0.11853470262979372,0.07053322917728275,0.01621528712107343,-0.0401431337976994,-0.09174899596866976,-0.13240731829715488,-0.1568473783281076,-0.1616399953333898,-0.14687548263254444,-0.11314578660192631,-0.06401561251814329,-0.00463381338466229,0.059087903864075954,0.12076148644966679,0.17611752557345964,0.22186661397032786,0.2564194984630616,0.2798158030615417,0.2932892805846139,0.2992619468174312,0.3002533370256042,0.2986819305896589,0.2965878226677819,0.29539906375925457,0.2962449061110073,0.29955985973881233,0.3053570449928267,0.31335984227402197,0.3230524169259136,0.333988978376069,0.34555230493403777,0.35713687855185394,0.36825659629262986,0.3786367409651867,0.38850160660897165,0.3984570209764701,0.4095559203675796,0.4231533503112377,0.4405913184470022,0.46288563733427424,0.4902315127783018,0.5217979684017346,0.555750846559855,0.5895382278689183,0.6207517610790504,0.6475902179166754,0.6696603613851603,0.6883483428084721,0.7065790073456425,0.7284944893254491,0.7578024028357687,0.7966480862966623,0.8444994296949543,0.8975424863098199,0.9488668357471887,0.9893777042538933,1.0094116465016627,1.0006505165814363,0.9580007497286216,0.880534234810458,0.7723313429190652,0.6418026893821371,0.5003252582907182,0.36032340449943445,0.2333749488067346,0.12832974608875808,0.05023909492554238,-5.08024707636207e-19,-0.025381272767708435,-0.031219215224625604,-0.02450301767165955,-0.012193729305291647,-1.7361939448347765e-20,0.00823983352519091,0.011362473598426598,0.009817376985183153,0.0053050606506108225,2.1991342962280225e-19,-0.004338420472317195,-0.006256546115009604,-0.005610939003693222,-0.003127017085006522,-6.8082900505651055e-19,0.0023895365942956694,0.0035949420425950146,0.0033537456498648616,0.001938712140942803,7.093257406382247e-19,-0.0019225124527957205,-0.00284068317526626,-0.0025965416681808743,-0.0014679953398181117,-1.0200717975111502e-18,0.000945216335682929,0.0014971979978483565,0.0014601154018182953,0.0008765692557677349,7.632039796856148e-19,-0.001170567601554803,-0.0016734249296659976,-0.0014736374787978198,-0.0007991845839760462,-9.940410691551425e-19,0.00017433537827099142,0.0003554340772046597,0.00041332900529089515,0.00028252619851416817,4.225618177596683e-19,-0.000827937967003633,-0.0011067566042595575,-0.0008997348014788785,-0.00044297231653887023,-7.159922930609384e-19,0.0,0.0,0.0,0.0,0.0,0.0,0.0,0.0,0.0,0.0,0.0,0.0,0.0,0.0,0.0,0.0,0.0,0.0,0.0,0.0,0.0,0.0,0.0,0.0,0.0,0.0,0.0,0.0,0.0,0.0,0.0,0.0,0.0,0.0,0.0,0.0,0.0,0.0,0.0,0.0,0.0,0.0,0.0,0.0,0.0,0.0,0.0,0.0,0.0,0.0,0.0,0.0,0.0,0.0,0.0,0.0,0.0,0.0,0.0,0.0,0.0,0.0,0.0,0.0
1.0006505165814363,1.0882472888476424,1.1021383505875249,1.056424037144329,0.9760291456117722,0.8889372064957496,0.8181056011286715,0.7762394986559492,0.7634254487561914,0.7691613790741297,0.7772238964100628,0.7714659945572863,0.7414855276811402,0.684983747161523,0.6077145784404986,0.520845868922138,0.4368497385927363,0.3662095991148807,0.31453274544000503,0.2820030844647794,0.2644678414342134,0.2554351676967261,0.2488852359096998,0.24063971715832422,0.22913544965865343,0.21508046857164329,0.2003079092311918,0.18705403386024824,0.17677004780613972,0.1698381782840803,0.16569309570907317,0.16311908792795837,0.1611150981124629,0.15894709636887688,0.15632517002112864,0.1533114941902973,0.1499592252020169,0.14671543108906498,0.14392588791329283,0.14190884240989782,0.14092989267152145,0.14091246701695864,0.14209385474954017,0.14440839130396482,0.1475779700951089,0.15113143264498163,0.15427219269172765,0.15676142808531632,0.1585318045386654,0.15987106322522443,0.1613329726184418,0.16279257510248768,0.1659050493862411,0.1708074640923893,0.17717061408044238,0.1843407248043335,0.1908964818919774,0.19707187465491754,0.20219314412406555,0.2057184565114586,0.2073484769902252,0.20656663078511797,0.2044438912254862,0.2013313967290388,0.19760297171872784,0.1936533460781583,0.18953709701761245,0.18612068680225616,0.18351587800058913,0.1815782401069719,0.17995821516609142,0.17802637108146732,0.17558202201513903,0.17222610601281232,0.1677478901950807,0.16223766112188628,0.15595501269569187,0.14997038084046932,0.14533671334560497,0.14318109101594026,0.1445171070776812,0.1498270199993824,0.1596020598036073,0.173508217593957,0.19060260490649406,0.20943847880058297,0.22829670276440278,0.24546661683609464,0.2593988124020485,0.26910074076140567,0.2743598505234847,0.2760553930301766,0.27527786663578707,0.2733987700935223,0.271653585511607,0.27084039431061196,0.2710958775648723,0.27204522120968494,0.27262948731781966,0.2714924064195755,0.26732093809773916,0.2588283589016348,0.24606824773578329,0.22952175172536102,0.21030018375814935,0.18990694133400216,0.1695466755715366,0.15097875258043217,0.13516421500764125,0.12243834157560768,0.11249294457026518,0.10409480662994933,0.09658435238557145,0.0889614336008419,0.08049794127143675,0.07092009642045195,0.06003185072333977,0.0490947604569764,0.0393913135035169,0.03236464307572625,0.029347248270638747,0.030811285655823438,0.037755486753701,0.05020441172024333,0.06751968387797058,0.08833230618980929,0.10990053042159012,0.12997820074644537,0.145323153378265,0.15232181989841231,0.14731736410897986,0.12641903404116547,0.08830396229852173,0.033110670667583296,-0.036606342395468706,-0.11577791575543014,-0.1976026443853054,-0.27302330110510153,-0.33314706359587765,-0.370217989513096,-0.3788731956198402,-0.35720447060112065,-0.30660260182225135,-0.23222522794050962,-0.14188897460909825,-0.044779182012833985,0.04985884402641787,0.13457810785487556,0.20399327726020236,0.25551544939944926,0.2893148315941722,0.30767526155414254,0.31469912862890426,0.3146855817660414,0.31156926894124565,0.308379672976069,0.3069202035400479,0.3082184415704848,0.31232314283260726,0.31887132062210044,0.32744451435796573,0.3377156560514887,0.3496847135555487,0.36324847675040417,0.3781209901167033,0.39372136657710277,0.4091805061621518,0.4237075158783009,0.43676414639666356,0.4485033765924892,0.4599982187962399,0.47316867117706746,0.4904334061143002,0.5139302567932742,0.5447071553001338,0.5819865913098241,0.6227226824217229,0.6618879467072918,0.692913580714359,0.7089008666496898,0.7039749638234083,0.6744731187929254,0.6201111352096922,0.5438798357106447,0.4518038627810379,0.35198748191170415,0.2533413379712837,0.16392489410182462,0.09001241848068398,0.03517161006518148,-5.557464074076166e-19,-0.017382196769465806,-0.02133627824335879,-0.016734539325762847,-0.008333914026771423,3.5387371991530045e-19,0.005791005032220176,0.007992760364174227,0.006912615755773472,0.0037391890130707636,1.9285416064682646e-19,-0.0030988919253421895,-0.004462543239551947,-0.003995235701601495,-0.0022222855985360637,-5.3412754350894585e-19,0.0016662491496335485,0.0025092917606374665,0.002343192215885222,0.0013557724242366136,5.00126321705924e-19,-0.0013625594224713367,-0.0020092540962026364,-0.0018327331192150046,-0.00103393824215103,-7.267621450980628e-19,0.0006607482534944226,0.0010446850884735272,0.0010171928312038654,0.0006098301104805726,5.266796745309629e-19,-0.0008034362656191554,-0.0011504434764953116,-0.0010149100278527786,-0.0005514976779665041,-6.819615862907078e-19,0.00012264795708170038,0.0002500540273507102,0.0002907841116605698,0.00019876207235434951,2.972795550906076e-19,-0.0005824686948252574,-0.0007786224336411783,-0.0006329790109794116,-0.00031163869437211627,-5.037129749629152e-19,0.0,0.0,0.0,0.0,0.0,0.0,0.0,0.0,0.0,0.0,0.0,0.0,0.0,0.0,0.0,0.0,0.0,0.0,0.0,0.0,0.0,0.0,0.0,0.0,0.0,0.0,0.0,0.0,0.0,0.0,0.0,0.0,0.0,0.0,0.0,0.0,0.0,0.0,0.0,0.0,0.0,0.0,0.0,0.0,0.0,0.0,0.0,0.0,0.0,0.0,0.0,0.0,0.0,0.0,0.0,0.0,0.0,0.0,0.0,0.0,0.0,0.0,0.0,0.0
1.0001121173783418,1.090694886509897,1.1093266556511845,1.070057405530491,0.9974931716879567,0.9190539439052717,0.8569821278686196,0.823175428749658,0.816996509554619,0.8274204977365291,0.8379957704322014,0.8327105077987094,0.8015280714778305,0.7427258602295689,0.6626932310720093,0.5731529516822882,0.48696165433870653,0.41466933637671954,0.3616879908873126,0.32779080880134176,0.3083101329323749,0.29628829156871966,0.2853539956119071,0.2712275812381454,0.2525257841273366,0.23040659034542055,0.20737816196605363,0.18643810353780504,0.16980726743960214,0.15852945971367363,0.15250304775846613,0.15072588049543872,0.15210338135073637,0.15552950024117015,0.16010022654542633,0.1650933028497153,0.1697222557969737,0.17357736005647756,0.1762819215878845,0.1776422044743926,0.17768355794096444,0.17641712196259768,0.17437021023619176,0.17198322829333013,0.16959065749764538,0.1673396265891493,0.16498318671855858,0.16262595258937043,0.16034463672783786,0.1583611326673877,0.1569956952373342,0.15580361118336047,0.1560986923031519,0.15776105625562303,0.16035171306415677,0.1632884772464654,0.16541579924528568,0.16733527839348286,0.16877038773970013,0.1695357830554828,0.1695812592555966,0.16851832521079851,0.16734226312086836,0.1661286775492227,0.1648595893547641,0.1635119295419187,0.16180159031341776,0.1603805718553305,0.15926216081890562,0.1583459318606186,0.15744259982824077,0.15614769312501525,0.15451045099972877,0.1522828730991287,0.14929876167385392,0.1455782453196124,0.1412846907178275,0.1371854166903044,0.13401432021986695,0.13259405913114644,0.13371389081098398,0.13790984518828728,0.14557708024467816,0.15648489492253848,0.1698888280692632,0.18462197968488778,0.19935170949619826,0.21271706707311305,0.22352970389758728,0.23112073958073856,0.23553006855879158,0.2377203129342037,0.2388759866267376,0.24025673257620048,0.24283332525569767,0.24699523859252065,0.2523167300812004,0.2578637703984663,0.2619762481497095,0.2627527602514304,0.2584604086262497,0.24757239566862915,0.23014568953118617,0.20691678924206827,0.17949081774670295,0.15005509476862652,0.12065749978497155,0.0938236432018587,0.07124362349039828,0.053829899639144356,0.04164978091100337,0.033719320128511615,0.02919503344336799,0.026750305226313335,0.02513772839933339,0.023404182332688192,0.02064049038547693,0.017098826753312323,0.013053321034753606,0.008934729378818574,0.005158583754373024,0.0015944057824636205,-0.0011869852174438238,-0.003042716040205353,-0.003910009647433127,-0.0038362410331351155,-0.0035824337812614265,-0.003206653781226365,-0.003576516222721906,-0.006122266720361747,-0.01283106582064325,-0.026617969652817583,-0.04900295085297819,-0.08102282240080491,-0.12221245943194732,-0.1702240483496649,-0.22115913936908674,-0.26880000883994937,-0.3064660799256984,-0.32774538868787395,-0.32761703087868654,-0.30353575359053103,-0.2555593641111752,-0.187041424743635,-0.10393969187891791,-0.013883989775970301,0.07488125694543737,0.15518689322130522,0.2213000712563712,0.2698092329263013,0.29984905132674594,0.3127502667955521,0.311980960905422,0.3017105989829096,0.2862805994612129,0.2695787666388534,0.25455559384011106,0.2433609038906987,0.23701327452388213,0.2357524460633638,0.23930848195096086,0.24710497806951198,0.2584686698067987,0.2725540978078519,0.28837359514666916,0.3048196805647669,0.3207641912658896,0.33532218846155115,0.34807490583504447,0.35934916819301305,0.3703308791785729,0.3829309346541943,0.39938279924736486,0.4215893016927448,0.4504029242358864,0.4850140962988435,0.5226513571812449,0.5587181822438554,0.5874214080635755,0.6027616709255571,0.5996973134191141,0.5752226408543047,0.5290705506856953,0.46395490266110084,0.38519369054737923,0.29984865670955707,0.21564588615962293,0.13941356491983894,0.07648334410476809,0.029857257178795463,-4.529535886888977e-19,-0.014724422743671167,-0.018056935080984583,-0.014149661849174683,-0.007040538788058215,2.9267553063233524e-19,0.004872204978920405,0.0067225942493866694,0.005813161098383257,0.0031443237304861465,1.6369459494947922e-19,-0.002635297174442863,-0.003786897183847289,-0.003382557398312735,-0.0018769200791920425,-4.653370426193696e-19,0.0013947715767119685,0.002096568427844026,0.0019544343638758545,0.0011290779284588524,3.9914133069332073e-19,-0.0011150043504860683,-0.0016481705050402006,-0.0015072310120466913,-0.0008526008847543971,-5.799607683911367e-19,0.0005591227790659628,0.0008822918509865706,0.0008576263153069821,0.0005134192350268155,4.395727208203457e-19,-0.0006666124507918149,-0.0009562197045413887,-0.0008452165291311412,-0.00046027537322901086,-5.655399785708126e-19,0.00010448049169073706,0.00021301429186829307,0.0002477111538181792,0.00016932005671499916,2.532444471519413e-19,-0.000496189395060742,-0.0006632874826775774,-0.0005392177731341346,-0.00026547661120982635,-4.290995182257436e-19,0.0,0.0,0.0,0.0,0.0,0.0,0.0,0.0,0.0,0.0,0.0,0.0,0.0,0.0,0.0,0.0,0.0,0.0,0.0,0.0,0.0,0.0,0.0,0.0,0.0,0.0,0.0,0.0,0.0,0.0,0.0,0.0,0.0,0.0,0.0,0.0,0.0,0.0,0.0,0.0,0.0,0.0,0.0,0.0,0.0,0.0,0.0,0.0,0.0,0.0,0.0,0.0,0.0,0.0,0.0,0.0,0.0,0.0,0.0,0.0,0.0,0.0,0.0,0.0
0.9261468090286505,1.0126949547953548,1.034504593302723,1.004745334079842,0.9460284266545514,0.883190069647294,0.8359792458426246,0.8142011156407357,0.8159985173184626,0.8300217968530628,0.8402333302659373,0.8315544711345628,0.7948855984091824,0.7293623199930135,0.6420063479142452,0.5449615246281515,0.4514520841142428,0.37222378364823466,0.31292637282046865,0.2735720653927126,0.24968971899036577,0.23449066422117998,0.22148466618644716,0.20615506243842371,0.18677733421170578,0.1641492290553205,0.14055448646310184,0.1187139501235968,0.1006865079038708,0.08739236599228307,0.07860873912027523,0.07327924920728708,0.0701065381160621,0.06787305296047322,0.06569831423207084,0.06310136820484673,0.05987760197365733,0.05625271372889653,0.052629770329981604,0.049551497569440404,0.047593997289418224,0.047112952652062924,0.04844934788806028,0.05155265354437703,0.0560089867628586,0.0611099240532217,0.06586924868756007,0.06971563960129039,0.07233364190978901,0.07382393396933885,0.07462585081702518,0.07465553378353468,0.07549321489798151,0.07737159980203334,0.08013312363082077,0.0833645273603477,0.08601638851075474,0.08857121895311176,0.09062716410464684,0.09185899871464129,0.09210320390367023,0.09095455745184396,0.0893784481667968,0.08749447119535712,0.08536977060461562,0.08309102943434671,0.08055451597467629,0.0784271469666396,0.0767457712912355,0.07538198557485147,0.07407885496502319,0.07244321700492029,0.0703413943978633,0.06747094183944446,0.06366809908302137,0.05901414139895903,0.053858044384338534,0.04897378965737692,0.04516250487564965,0.043250894582883406,0.043949427832894856,0.04771022161725221,0.05463673185461566,0.06432055295359408,0.07593133214546371,0.08836043199716558,0.10016911548738779,0.11067423437988834,0.11945177851938228,0.126617758318425,0.13277143616143627,0.13826818211113936,0.14460629687370516,0.15282821398058058,0.16353042089622424,0.17658266809154183,0.19049810705870998,0.20395696267876742,0.21486027012541262,0.22098816758799253,0.22039390002164735,0.21136006302552715,0.19399956535034876,0.16932266750762184,0.13941413848873246,0.10708388804872289,0.07505211804026227,0.04630890686557665,0.02282310882727017,0.005434578783049867,-0.006226123924201595,-0.013715377592686743,-0.018797145920971686,-0.02341463362622732,-0.02901273008570042,-0.036182192908887946,-0.0447646185145833,-0.05342399123964573,-0.060639031631730136,-0.06508611631929508,-0.0661382618935743,-0.06437797284182584,-0.060878405783327365,-0.0574542234992061,-0.05589396173974738,-0.05727621913247753,-0.061678865161323114,-0.06695709149020374,-0.06958248544808435,-0.06497710321868713,-0.04841417637138077,-0.01645650898505836,0.0331736174409057,0.10000558334877745,0.18080747677022052,0.2698638417991832,0.35954530866588386,0.44216833185219606,0.5106923576152896,0.5600876540549237,0.5881418599697472,0.5956421440271534,0.5862810833966784,0.5654359381917683,0.5391065194463404,0.5126874133307143,0.48986778616386184,0.47240074771973706,0.4596041119045934,0.4490104732815216,0.4372329666916813,0.42085660921407353,0.39777178570909805,0.36719883640565165,0.3300943464914522,0.2889502864812035,0.24720499888281355,0.20873688508809923,0.17686132631511725,0.1538603011059092,0.14066760627072572,0.1368361644766311,0.14073937245017104,0.14998191855985574,0.16188301887216325,0.1739732116125236,0.18444144110003055,0.19236189194883066,0.19791100386489122,0.20225585659699905,0.20727881695432143,0.21517713017569204,0.22780685441375448,0.24633096665119023,0.2707372340320418,0.299617755828809,0.3302479801677228,0.35880580489261155,0.3810856219475878,0.39313785260920026,0.3919566947032965,0.37605759045154497,0.3456909539321602,0.30297281980740975,0.25153634270636593,0.19597834735164826,0.14102495340266696,0.09135502230443823,0.05030372259279631,0.019745234562799127,1.6224451882942228e-19,-0.010309025441331623,-0.012731412817203785,-0.010016220452591977,-0.004987121236837158,-4.982129093181332e-19,0.003152742186163411,0.0043700740284273905,0.003798237551231331,0.002065583453795981,1.9429145223005883e-19,-0.0018722987571020769,-0.0026669332824541484,-0.0023577200886489864,-0.0012930811975278384,-4.559390859590562e-19,0.0008801938711507345,0.0013211833608211994,0.0012300471000667385,0.000709807672435607,2.3781029128299515e-19,-0.0006948497441659628,-0.001028128680441956,-0.0009412622555221755,-0.0005331039434149725,-3.5036890343150427e-19,0.0003593805336367863,0.0005643088950154506,0.0005461762553264789,0.0003257501898854831,2.7261945877879457e-19,-0.0004069263827846894,-0.0005865239164451136,-0.0005211659085372728,-0.000285441392090574,-3.4475571756761064e-19,6.828749648817641e-05,0.00013922419843643457,0.00016190175096525417,0.00011066604483953068,1.6551826102356998e-19,-0.00032430486327511007,-0.00043351864937683906,-0.0003524278187573268,-0.00017351309189226577,-2.804555316475072e-19,0.0,0.0,0.0,0.0,0.0,0.0,0.0,0.0,0.0,0.0,0.0,0.0,0.0,0.0,0.0,0.0,0.0,0.0,0.0,0.0,0.0,0.0,0.0,0.0,0.0,0.0,0.0,0.0,0.0,0.0,0.0,0.0,0.0,0.0,0.0,0.0,0.0,0.0,0.0,0.0,0.0,0.0,0.0,0.0,0.0,0.0,0.0,0.0,0.0,0.0,0.0,0.0,0.0,0.0,0.0,0.0,0.0,0.0,0.0,0.0,0.0,0.0,0.0,0.0
0.5881418599697472,0.6391826224487708,0.6461682853828532,0.6172558844069267,0.5671793057019181,0.5126874133307143,0.46714559406931316,0.4390432112065817,0.4291296978087707,0.43169746065478115,0.4372329666916813,0.4351200131049733,0.41892215732598775,0.38660660638391997,0.3411093945865277,0.2889502864812035,0.23756964443087905,0.19418922125545796,0.1632494494257032,0.14596506295149161,0.14066760627072572,0.14379972131981344,0.15141045153419397,0.16013670229817947,0.16788930459127957,0.1739732116125236,0.1787305932387889,0.18327829910634671,0.1888778746656684,0.19663009715272917,0.20727881695432146,0.22104869092584375,0.2378691546435615,0.2572069260798118,0.27816584319011317,0.299617755828809,0.3203318257069291,0.33960965887456246,0.3573552377746933,0.3743055674288729,0.3919566947032965,0.412081208355238,0.4365581157889009,0.4664478428610527,0.5015646165649542,0.5402892024309655,0.5796642864112347,0.6164636506835941,0.6477472873365815,0.6717884370783227,0.6886217101586344,0.6996478548316025,0.7087769945597441,0.7196302122125323,0.7350590933244112,0.7561327605022655,0.7811311464854502,0.8066893891788421,0.8268294787756584,0.8346158072690142,0.8236438108458968,0.7892804869946258,0.7306440868451374,0.6499526241808786,0.552733291671922,0.44698152514460454,0.34169911899370875,0.24590696695754702,0.1665274296380172,0.10768130003192325,0.07031923944331234,0.052409542415482395,0.04986514308208515,0.057279422556281566,0.06916963136474914,0.08096631785398586,0.08961993150486447,0.09408839905185863,0.0947922224774759,0.09328390556067195,0.09161339626465938,0.09161387315831915,0.09468255908642376,0.1010635479589855,0.11005175948827066,0.12028800255862963,0.12972295258616723,0.13760927937575007,0.143318849595511,0.14690109146757718,0.1489626088525999,0.14950640296183834,0.1504055185698797,0.15256107332056432,0.1564220309676877,0.1618597386179486,0.16740116814475806,0.1727959945434723,0.1767245194263204,0.1777888329808141,0.17475686838329735,0.16616027211577056,0.15261394514717502,0.1345364511910309,0.11297281171774241,0.08952790247256674,0.06554395314990612,0.04388169962570705,0.026089904599933746,0.012935347383394425,0.004298936561836089,-0.0013222791119809965,-0.004437902432145181,-0.006657036996610038,-0.009352117863674748,-0.013241872918485234,-0.018651536260776827,-0.024142982682930584,-0.02852622228351861,-0.03083580606062268,-0.03078268239880655,-0.029293700872580496,-0.027565557242222472,-0.02742516429189599,-0.030500203707229587,-0.037511215665768836,-0.04801481017701586,-0.059000611586766574,-0.0659041141715349,-0.06296247043733703,-0.044239748932731124,-0.005290049772563135,0.05690607654834895,0.14196492977133707,0.2459661782839046,0.3616471429333534,0.47899051166088535,0.5873668516198209,0.6764577165967682,0.7380932464762054,0.7675340347994378,0.7640792241903057,0.7313171004453983,0.6759895620643761,0.6068535424981991,0.5331464194318399,0.4630120046588326,0.40265865159603126,0.3553080534270571,0.3213276491229924,0.298758804064242,0.2841122380137908,0.2737224968529797,0.2642046424159855,0.25327069785100825,0.24003955557998977,0.224942985191434,0.20956854802305067,0.19592734598586622,0.18600704122673906,0.18132030709573752,0.18259551518313785,0.18965635772386297,0.2014632392979084,0.2163308053132219,0.23226254603855193,0.24735635137086445,0.26017071935032016,0.2700672937360258,0.27734928114756635,0.28320478498136636,0.28944871179865855,0.2980093289073286,0.31046294836863486,0.32748520488106514,0.34848298273235945,0.3715019769289021,0.39334592176835037,0.4101510715132769,0.4180219941166936,0.4137611804833526,0.39553227202980246,0.36319062633270016,0.3185055492846595,0.26489003217558504,0.2068805902416763,0.1492456838009082,0.09694573496641629,0.05353569002114979,0.021075744352203853,1.4675396157363542e-19,-0.011138956113302536,-0.013788996149243605,-0.010867277010961778,-0.005417108726595482,-5.607552065720994e-19,0.003439335932926252,0.004762668743457713,0.004133386362809084,0.0022437807187229014,1.6508426107733773e-19,-0.0019360553036221065,-0.0027774678475527073,-0.002475314068958562,-0.001369694778729346,-4.052286185978353e-19,0.0009879882888805458,0.001486955887282768,0.0013876997212514458,0.0008024657266846153,2.953106183598726e-19,-0.0007993435999156221,-0.001180327292140018,-0.0010781445428583048,-0.0006091129178139752,-4.256224840002762e-19,0.00039059185577806736,0.000618574632082607,0.0006031590016508429,0.0003620530891483766,3.1497844718180303e-19,-0.00048284410317932095,-0.0006903754946267486,-0.0006080591121784659,-0.00032982714381157375,-4.1001082971195536e-19,7.208631856789414e-05,0.00014696921745529568,0.00017090831846210564,0.00011682237852038592,1.747260143738732e-19,-0.0003423458889170831,-0.00045763521978746017,-0.00037203331973851894,-0.00018316559635499067,-2.9605722625914076e-19,0.0,0.0,0.0,0.0,0.0,0.0,0.0,0.0,0.0,0.0,0.0,0.0,0.0,0.0,0.0,0.0,0.0,0.0,0.0,0.0,0.0,0.0,0.0,0.0,0.0,0.0,0.0,0.0,0.0,0.0,0.0,0.0,0.0,0.0,0.0,0.0,0.0,0.0,0.0,0.0,0.0,0.0,0.0,0.0,0.0,0.0,0.0,0.0,0.0,0.0,0.0,0.0,0.0,0.0,0.0,0.0,0.0,0.0,0.0,0.0,0.0,0.0,0.0,0.0
0.8236438108458968,0.8687307096649534,0.8370516047903688,0.7400855954737173,0.6007401981372263,0.4469815251446046,0.304855668482583,0.19283026735670003,0.11895805224037422,0.08119257646387033,0.07031923944331232,0.07424186348078181,0.08199956477602557,0.08657195937954035,0.08569861491583397,0.08096631785398588,0.07588766797103189,0.07372257250333077,0.07612186683358271,0.0827066571899423,0.09161339626465936,0.10059643965053798,0.10794621611311625,0.11315515301491208,0.11685594923360636,0.12028800255862965,0.12426157315487485,0.1295537836855744,0.135990005966316,0.142789299405019,0.1489626088525999,0.15307047324068263,0.15553552030605025,0.15710737487744467,0.1589017601362296,0.1618597386179486,0.1657747328216801,0.17043687203741106,0.17461870408930058,0.17663262766896093,0.17475686838329735,0.167411520199175,0.15428656693173548,0.13589620456723736,0.11364226798640034,0.08952790247256674,0.06554395314990612,0.04388169962570705,0.026089904599933746,0.012935347383394425,0.004298936561836089,-0.0013222791119809965,-0.004437902432145181,-0.006657036996610038,-0.009352117863674748,-0.013241872918485234,-0.018651536260776827,-0.024142982682930584,-0.02852622228351861,-0.03083580606062268,-0.03078268239880655,-0.029293700872580496,-0.027565557242222472,-0.02742516429189599,-0.030500203707229587,-0.037511215665768836,-0.04801481017701586,-0.059000611586766574,-0.0659041141715349,-0.06296247043733703,-0.044239748932731124,-0.005290049772563135,0.05690607654834895,0.14196492977133707,0.2459661782839046,0.3616471429333534,0.478667356542125,0.5867104812423298,0.6756503206297182,0.7374892529938503,0.7675340347994378,0.7642853313979685,0.7316186303126269,0.6762488566910201,0.6069807228382924,0.5331464194318399,0.4622463750773203,0.40121270122167346,0.35363101179291706,0.320132390611785,0.298758804064242,0.2848681781517432,0.2749580653919017,0.26544339651365395,0.25403211620637706,0.24003955557998977,0.22359332706527224,0.20716986390636377,0.19329190218772616,0.1842167886420374,0.18132030709573752,0.18433884254343075,0.19265755813820265,0.20466231281831396,0.21844370432816002,0.23226254603855193,0.2446654985745395,0.2553870517643394,0.26478348659491185,0.2737202364714525,0.28320478498136636,0.2939513416813418,0.3062895655851498,0.31997913557389235,0.3343321881021195,0.34848298273235945,0.361704257469011,0.37386410386570956,0.38559295478615496,0.39827067172878905,0.4137611804833526,0.43392175874139444,0.46010036775788954,0.4926520794643415,0.5306404931219612,0.5718755622187842,0.613074413838862,0.6514077991584561,0.6842593780784261,0.7103167253658327,0.7299899439542157,0.7448978771047511,0.7589670987432656,0.7753893098067457,0.7963662588076917,0.8223307940202694,0.851270898908651,0.8800215897046637,0.9035288830263487,0.9164961163896902,0.9146716440863232,0.8957632675674853,0.860589963693289,0.8122195039410711,0.7555617373857832,0.6962749214728923,0.6394076237003805,0.5888109825806593,0.5458887398905421,0.5097795174099518,0.4778781988594615,0.44664306865820164,0.4129824022128343,0.3746828676204204,0.33115441485144126,0.28357293557969215,0.23445755906502952,0.187484969751875,0.1460820868315195,0.11289458342456436,0.08926767229992288,0.07489747903547164,0.0685277118291262,0.0676436985961927,0.06936004008534365,0.07108355551385427,0.07085666136260915,0.06831166869004174,0.06373937255416671,0.05815449754784233,0.05289943872778566,0.04899426675798603,0.04759648372466203,0.04874680800649545,0.05181264984787261,0.05574581511585517,0.05911909728024938,0.06154966493333335,0.062399710306393505,0.0613908913622057,0.058592191503924695,0.053934369824944615,0.04850341960610742,0.04253547864887507,0.036113122721564556,0.029296095751962348,0.021830065191288026,0.01483844904474908,0.008673139641272126,0.003645963126953718,5.766427183724601e-19,-0.0026182294676121193,-0.003407304519171925,-0.0027883115037238633,-0.0014261743771317847,-8.97922697108197e-19,0.0006377258016181395,0.0009417874210593084,0.0008702682999208429,0.000501335595636826,2.3997107604027286e-19,-0.000687568451922819,-0.000955350692924236,-0.0008173049596089299,-0.0004302308186517009,-4.056783248941854e-19,0.00016153960885315478,0.0002491717060513995,0.0002378119596174392,0.00014031406457602053,7.471436267130149e-20,-0.00017349457466611163,-0.00024914150514972265,-0.00022078167254972866,-0.00012072913409665357,-1.121857458606979e-19,5.75404139815588e-05,9.214044581027769e-05,9.069775205773623e-05,5.4882495894606324e-05,5.0006930985574614e-20,-7.896165716880549e-05,-0.00011191512506703063,-9.761125001580206e-05,-5.2370621975806865e-05,-6.721639756454976e-20,1.0208051362887367e-05,2.0812122887562935e-05,2.4202108359337382e-05,1.6543067588443876e-05,2.474272739398128e-20,-4.8479163416390427e-05,-6.48051380881208e-05,-5.268316252021421e-05,-2.5937845802801172e-05,-4.1924285107733226e-20,0.0,0.0,0.0,0.0,0.0,0.0,0.0,0.0,0.0,0.0,0.0,0.0,0.0,0.0,0.0,0.0,0.0,0.0,0.0,0.0,0.0,0.0,0.0,0.0,0.0,0.0,0.0,0.0,0.0,0.0,0.0,0.0,0.0,0.0,0.0,0.0,0.0,0.0,0.0,0.0,0.0,0.0,0.0,0.0,0.0,0.0,0.0,0.0,0.0,0.0,0.0,0.0,0.0,0.0,0.0,0.0,0.0,0.0,0.0,0.0,0.0,0.0,0.0,0.0
0.7675340347994378,0.8213708913561204,0.8100424003443474,0.7440618032592111,0.6437132862038435,0.5331464194318399,0.4333003025085927,0.35912656086841627,0.3156267916254238,0.2988405388056866,0.298758804064242,0.30260167701025054,0.3011248770210608,0.2893363338253861,0.26752721109251776,0.2400395555799898,0.2123544218565256,0.19052490386278553,0.17806154202155033,0.1756088233395189,0.18132030709573752,0.191520881694202,0.203251407324421,0.21430602685198222,0.22386032548094875,0.23226254603855193,0.24021090795201577,0.2488797282793761,0.2589235053902781,0.2704680377704134,0.28320478498136636,0.29653292492961664,0.3100068207786681,0.32327372178460323,0.33612871215205053,0.34848298273235945,0.36030812875420615,0.3719093453075034,0.38391393434422605,0.39738690439026886,0.4137611804833526,0.4345202122380575,0.46090035807862706,0.4933024294416027,0.5309606841777199,0.5718755622187842,0.613074413838862,0.6514077991584561,0.6842593780784261,0.7103167253658327,0.7299899439542157,0.7448978771047511,0.7589670987432656,0.7753893098067457,0.7963662588076917,0.8223307940202694,0.8512414176012079,0.8799617093073806,0.903455224627174,0.916441014314825,0.9146716440863232,0.8957820706425492,0.8606174721380049,0.8122431592823072,0.755573339995457,0.6962749214728923,0.639339114928594,0.5886817894161489,0.5457390902829183,0.5096729776871747,0.4778781988594615,0.44671117856424614,0.4130938729453611,0.3747948040116179,0.3312233516407432,0.28357293557969215,0.23431575997589787,0.18722776455325252,0.14579403142011016,0.11269538658425851,0.08926767229992288,0.07506732079097328,0.06881677105803921,0.06794794164251172,0.06955823999890058,0.07108355551385427,0.07056156709783018,0.06778045194558024,0.06314627660010363,0.05774359952293074,0.05289943872778566,0.049451112507972,0.04842618475036072,0.049688208601265535,0.05248136592271951,0.05574581511585517,0.058058196361077105,0.05945452864988874,0.05978823683844327,0.05932295921060226,0.058592191503924695,0.05759413902037737,0.05759972785133725,0.058676054020228866,0.0605110148836883,0.0625944356494281,0.06385007040057755,0.06489744420818949,0.06564000095762001,0.06613987810529343,0.06659667979493153,0.0666726105925157,0.06753800646994564,0.06916118203017367,0.07127116838402407,0.0735081970767421,0.07516343225245575,0.07676984825242668,0.07821587257391724,0.07943245862277992,0.08041971435855268,0.08102753513554337,0.08178814705236384,0.08271269049436468,0.08373776372835313,0.0847843512387372,0.0856939038891785,0.08668443307180017,0.08768292851979091,0.08856049637983368,0.08914898811892172,0.08926590705324114,0.08877719277615316,0.08751255460459784,0.08538421293817479,0.08246642432011472,0.07905514038045248,0.07577963443878172,0.07346404661824683,0.07311360074743901,0.0757838605213077,0.08236294218596413,0.09345552254703035,0.10904420589750721,0.12841593153609177,0.15016462940536085,0.17230936958564527,0.19268391430886259,0.2091581389581445,0.22007179489646156,0.22454539828941403,0.22260920356328237,0.21528205494546346,0.2041902873053917,0.19125574868347892,0.17827705025297685,0.1665204067324875,0.15659574979679855,0.14823321311745885,0.14048125862243893,0.13200870221653968,0.12145294836139038,0.10792031646465022,0.09108262037106504,0.07135420516173512,0.04983141865207999,0.028033867911753357,0.007724431684246083,-0.009630770845797861,-0.023080204571362308,-0.032345864912379695,-0.03786968873073704,-0.04051107715795061,-0.041500829029492585,-0.04205808752903944,-0.04310280303504482,-0.04510557626211577,-0.04786268362959238,-0.05079987092358205,-0.053083130823007696,-0.05385974115770995,-0.05253845758719206,-0.04878267359448654,-0.042805505728996704,-0.03522933484236014,-0.026929870578854976,-0.01887778678946911,-0.011785270011450183,-0.006183959942267174,-0.002286250803052247,2.1031366054453612e-19,0.0009524689734294678,0.0010695555852157463,0.0007610503896321339,0.00034130761125674477,-2.425944228342764e-19,-0.00026556984927330165,-0.00031991689399700485,-0.00023568188933681357,-0.0001055076781347696,1.6416674907890293e-19,-6.464792354995649e-05,-7.954370871669498e-05,-5.4922345119185183e-05,-1.9465780097813472e-05,-2.1541712771502874e-19,-9.776933910852668e-05,-0.0001326275259750831,-0.00011105133131320076,-5.744104023947395e-05,2.9405813523976956e-20,-2.7415784192307046e-05,-2.258668759771423e-05,-3.4347946366909427e-06,8.169043111254403e-06,-5.82053177008342e-20,-5.0056419265353375e-05,-7.89152934868392e-05,-7.664715499342814e-05,-4.585287804146921e-05,-3.909268210363708e-20,5.911314792209912e-05,8.486851350651909e-05,7.508826735623875e-05,4.0933373690618986e-05,5.013793879030093e-20,-9.383554190713178e-06,-1.9131142271602977e-05,-2.2247320986746926e-05,-1.5206895584514985e-05,-2.274427459990715e-20,4.4563535278829975e-05,5.9570872389745635e-05,4.842798031403619e-05,2.3842864130348982e-05,3.853808990867487e-20,0.0,0.0,0.0,0.0,0.0,0.0,0.0,0.0,0.0,0.0,0.0,0.0,0.0,0.0,0.0,0.0,0.0,0.0,0.0,0.0,0.0,0.0,0.0,0.0,0.0,0.0,0.0,0.0,0.0,0.0,0.0,0.0,0.0,0.0,0.0,0.0,0.0,0.0,0.0,0.0,0.0,0.0,0.0,0.0,0.0,0.0,0.0,0.0,0.0,0.0,0.0,0.0,0.0,0.0,0.0,0.0,0.0,0.0,0.0,0.0,0.0,0.0,0.0,0.0
0.9146716440863232,0.9830926284812688,0.9776665408508203,0.9114777085387293,0.8084706991455615,0.6962749214728923,0.5986435538133154,0.5300298877800577,0.49315316252770813,0.480381390170018,0.4778781988594615,0.47087896708072596,0.4486682166443964,0.40722398828454065,0.3495221651838564,0.28357293557969215,0.21913501929917445,0.16470890387098241,0.12514591510883405,0.10099571823886871,0.08926767229992287,0.08503333903084614,0.08352475159236733,0.08134866774437369,0.07709460731670979,0.07108355551385429,0.06452900233981201,0.058885803992825614,0.055057164054638036,0.05320713585831687,0.05289943872778565,0.053370413198432894,0.05406768837427866,0.05468794519067688,0.05520846191378829,0.05574581511585518,0.05625806191534266,0.056847018339080076,0.05746403860948408,0.05804877966510629,0.058592191503924695,0.05895493157386869,0.05941878459909614,0.0601548513054898,0.06123908081830227,0.0625944356494281,0.06385007040057755,0.06489744420818949,0.06564000095762001,0.06613987810529343,0.06659667979493153,0.0666726105925157,0.06753800646994564,0.06916118203017367,0.07127116838402407,0.0735081970767421,0.07516343225245575,0.07676984825242668,0.07821587257391724,0.07943245862277992,0.08041971435855268,0.08102753513554337,0.08178814705236384,0.08271269049436468,0.08373776372835313,0.0847843512387372,0.0856939038891785,0.08668443307180017,0.08768292851979091,0.08856049637983368,0.08914898811892172,0.08926590705324114,0.08877719277615316,0.08751255460459784,0.08538421293817479,0.08246642432011472,0.07898627471342304,0.07563975924807548,0.07329198726161003,0.07298488728560869,0.0757838605213077,0.08240686446820965,0.0935197797852126,0.10909946263454881,0.1284430341826076,0.15016462940536085,0.17239479682162817,0.192880687159241,0.20942184125870408,0.22028170044670853,0.22454539828941403,0.22261175018608104,0.215313408761334,0.2042548092958992,0.19132017696849404,0.17827705025297685,0.16647723241716997,0.1564971185050925,0.1481008856301811,0.1403752815252031,0.13200870221653968,0.12146268432858946,0.10793088753730526,0.09108788165996587,0.07135434054750589,0.04983141865207998,0.02783348198665876,0.007315494013222264,-0.010139931430579294,-0.02346834344918886,-0.032345864912379695,-0.03754164954148808,-0.03987890488581025,-0.04073434464607741,-0.041472013680195506,-0.04310280303504482,-0.04636304728267394,-0.05053776072296972,-0.054390454906704334,-0.05614668136065562,-0.05385974115770995,-0.046214858442579804,-0.03173047080535358,-0.0100558331867697,0.018095151227477575,0.050852038938850035,0.08472751414297021,0.11634230793932204,0.14148861838301394,0.15586631951227287,0.15556381903541003,0.13699541620231814,0.09938131473621535,0.04374120757688818,-0.026473986380082554,-0.10552914624618298,-0.18632793043464851,-0.2601558497740315,-0.31886495741117515,-0.3557605053800414,-0.36662211152777596,-0.350470987386873,-0.3092701657633236,-0.24810194266217697,-0.17406575653799028,-0.0950761732421592,-0.018700051084163755,0.04926151940695748,0.10500602089540832,0.14713883008247108,0.1764697650434576,0.19537543275699013,0.20728127251572506,0.21551913534098885,0.22280851403193408,0.23088835328267898,0.24042509275603638,0.25130733985899123,0.26287849560136206,0.27438667497768493,0.28530694152190034,0.2955108331922708,0.30516411171200575,0.31462742253507486,0.32419401595526065,0.3339235995599411,0.3436555178992215,0.35309770263683316,0.3622418720898277,0.3716333346653403,0.382540257597982,0.3968910105010287,0.41676953628815105,0.44390228723493724,0.4788508917772725,0.5203681608864619,0.5650642102316348,0.6076868096340341,0.6416868821393975,0.6603727647087746,0.6581960641749416,0.6318411348450519,0.581310149334257,0.509720566310498,0.42303200258251594,0.3290980320874708,0.2364354461936733,0.15266408341230078,0.08363479157100762,0.032598674721724806,-5.614707728304401e-19,-0.016017118680466513,-0.019607599194051015,-0.015338115462191639,-0.00761911743317141,3.9405686011356008e-19,0.005297788666924336,0.007290779759610389,0.006287147372714956,0.003391132016736839,1.209938480129545e-19,-0.002751986507778005,-0.00396642389234848,-0.003555719147655772,-0.0019811580312483115,-4.039754920924128e-19,0.0015150501928932261,0.0022791905055190263,0.002126340504261916,0.0012293077009130453,4.363499609127094e-19,-0.001228149785749661,-0.0018122029728339963,-0.00165419958651504,-0.0009339809171902201,-6.40758285664509e-19,0.0006094970219076763,0.0009598620882020834,0.0009314068238336993,0.0005567494907125483,4.72352639479554e-19,-0.0007118510390267641,-0.0010230449423444593,-0.0009061615031720543,-0.000494586969581498,-6.035947152844543e-19,0.00011467226361550347,0.00023379322432071125,0.00027187466551382164,0.0001858367420062186,2.7794771572217296e-19,-0.0005445912456274083,-0.0007279892718308305,-0.0005918169184160161,-0.0002913730922564436,-4.709569439711052e-19,0.0,0.0,0.0,0.0,0.0,0.0,0.0,0.0,0.0,0.0,0.0,0.0,0.0,0.0,0.0,0.0,0.0,0.0,0.0,0.0,0.0,0.0,0.0,0.0,0.0,0.0,0.0,0.0,0.0,0.0,0.0,0.0,0.0,0.0,0.0,0.0,0.0,0.0,0.0,0.0,0.0,0.0,0.0,0.0,0.0,0.0,0.0,0.0,0.0,0.0,0.0,0.0,0.0,0.0,0.0,0.0,0.0,0.0,0.0,0.0,0.0,0.0,0.0,0.0
0.9443925177286018,1.0256493540288494,1.0367980491517912,0.9912928690795414,0.9128569304911335,0.8281030639514093,0.7589030362276824,0.717258985277007,0.703170245518663,0.7065387504518721,0.7118136101742168,0.703595001943681,0.6718612228390207,0.61438975445308,0.5367017609675232,0.4495686913377539,0.36515731583895167,0.2936713479829682,0.24068769696195036,0.20654221729039182,0.18732377250129098,0.17682569402309894,0.16906459056858048,0.1597797086655398,0.14722009180155818,0.13190565308141403,0.11565648421952845,0.10075488029239969,0.08890817125017984,0.08087467578350002,0.07648753366153707,0.07489989016486474,0.0751868015125656,0.07648935030427027,0.07818331956116915,0.07986554935842691,0.08116702696730722,0.0820510335703166,0.0825499458362732,0.0828439895333347,0.08324356505531674,0.08395108992485176,0.08542224690037217,0.08786104234191691,0.0912067479787634,0.09511417989147099,0.09885965366330877,0.10205726534863722,0.10442278716695463,0.10597051704946325,0.10698479472762523,0.10720038494135936,0.10810244755408646,0.10987882927156649,0.11240069944363396,0.11533414882984185,0.1177295786870989,0.12010415201251882,0.12209423655050468,0.12336229839624165,0.12368350293205847,0.12259491709821488,0.12088263333351644,0.11864971449970747,0.11600939755415175,0.11313308583410064,0.11001487723550474,0.10735510010451976,0.10528909163221953,0.10376966938642858,0.10258266873614284,0.10130215229308345,0.09973436469149499,0.09753124155080965,0.09447722242296888,0.09059644847747923,0.08616580976374079,0.08191529179609464,0.07865790220709047,0.07728336455565912,0.07861022821881564,0.08322005310381352,0.09135073137504855,0.10268842248419077,0.11642152988068145,0.13135536743276285,0.14575969569999508,0.15873653254528297,0.16952800260756404,0.17789460102494023,0.18410050664671007,0.18806180583930782,0.1913152555086678,0.1950197688305802,0.20009261285741314,0.20689441600025055,0.21450406343233425,0.22225002243237962,0.22856761169311554,0.2316267920943183,0.22968832535379102,0.22116902241891745,0.20591663981904484,0.18453823277566733,0.1586067430368157,0.13041129479187966,0.10227476704716808,0.07690055673934117,0.05615117675281138,0.040943447761961675,0.03113426422996828,0.025427392655168007,0.022434499981223384,0.020460432501086458,0.01816001950562072,0.014853186113734405,0.010378673302736497,0.005676478873526309,0.0017328299185301772,-0.0006820149642179267,-0.0014278920024994644,-0.0014557731581641285,-0.0019540121695919084,-0.004655426468459021,-0.011020174873376039,-0.02154649200508937,-0.03551542968971787,-0.049702259225341994,-0.0593742284518478,-0.05867712552250607,-0.04166509200767928,-0.0039404957795386875,0.05738744735548134,0.14180084615712865,0.24525094658389504,0.36037349410376146,0.4770862552904733,0.5847464595309763,0.6730445869563393,0.7338369819723572,0.7624120802152021,0.7580665875585814,0.7244179730128041,0.66818004637884,0.5980715512811071,0.5233042732196416,0.45200743971648893,0.39048836066521764,0.34206631831485534,0.3072393186481934,0.2841964662240811,0.26956057154359747,0.2598218779740096,0.2516241131454456,0.24261331331919547,0.23174051834587625,0.21914753615768232,0.2061003200561709,0.19417288886673417,0.1848795988989541,0.17928457046767135,0.17775202684025482,0.17995503087334705,0.18491258229478555,0.191272760378183,0.1976486593499074,0.20296059064531127,0.2067596998918001,0.2093639132590731,0.21187845158863178,0.21601274823214345,0.2237225550856371,0.23672984017321125,0.25602347351416954,0.2814409883416339,0.3114436483721462,0.3431675696359567,0.3727050086497386,0.3957238706015392,0.40815004965226664,0.40687454851214894,0.3903489567257193,0.3588294751162381,0.3144972260902119,0.261111066846927,0.20343727425607447,0.14634258679362483,0.09476693677970702,0.05216681355359416,0.020472190018966625,1.590541286105097e-19,-0.010766223523804328,-0.01329096599591749,-0.0104464442668613,-0.005193388391992203,-5.531797342488325e-19,0.003272083795764172,0.00451995125937343,0.0039137974114286204,0.0021201101220737414,1.4591451560457541e-19,-0.0018241248643420084,-0.0026125597060611943,-0.0023246757962412136,-0.0012844130805555569,-3.688685567079044e-19,0.0009201860278796829,0.0013843404389480025,0.0012915951142112988,0.0007467905635268647,2.613069242102663e-19,-0.0007493251085816102,-0.0011048196306726607,-0.0010077169038011464,-0.0005685364409719362,-3.879280667107819e-19,0.00037320574202699556,0.0005860865798851108,0.000567312696908847,0.0003383867809100408,2.833521370565522e-19,-0.0004231130597288007,-0.0006097814905110467,-0.000541761158944854,-0.00029667930636525315,-3.584816594261576e-19,7.088651546999084e-05,0.0001445230650382709,0.00016806372417539454,0.00011487798942634201,1.7181787844052522e-19,-0.000336647891485153,-0.000450018349272794,-0.00036584120536212596,-0.0001801169922051057,-2.9112965630857095e-19,0.0,0.0,0.0,0.0,0.0,0.0,0.0,0.0,0.0,0.0,0.0,0.0,0.0,0.0,0.0,0.0,0.0,0.0,0.0,0.0,0.0,0.0,0.0,0.0,0.0,0.0,0.0,0.0,0.0,0.0,0.0,0.0,0.0,0.0,0.0,0.0,0.0,0.0,0.0,0.0,0.0,0.0,0.0,0.0,0.0,0.0,0.0,0.0,0.0,0.0,0.0,0.0,0.0,0.0,0.0,0.0,0.0,0.0,0.0,0.0,0.0,0.0,0.0,0.0
0.7624120802152021,0.8152037273189396,0.8029341864324129,0.7360735750553212,0.6348355229667731,0.5233042732196416,0.42242111467157234,0.3471452770709259,0.30256449588500733,0.2848595462223719,0.2841964662240811,0.2880059146850153,0.287149780020072,0.27667905296151624,0.2568215507687468,0.23174051834587628,0.20666631273867292,0.1872347017347625,0.17649200128475964,0.17460153561868844,0.17928457046767135,0.18659634447536214,0.19341187226034504,0.1976101579612887,0.1987081581329343,0.1976486593499074,0.19596155691996653,0.19571926743201662,0.19848815549652546,0.20517639722804498,0.21601274823214345,0.23061988564653413,0.24838239186506575,0.2684384001737704,0.28980126421206437,0.3114436483721462,0.33239696545141195,0.35209388599740526,0.3705070419627545,0.38831928336095967,0.40687454851214894,0.42786172885233503,0.45287827743696235,0.4828158347385492,0.5174266487471649,0.5551788374690677,0.5934810441148001,0.6293831573352663,0.6603301091031792,0.6849434707366213,0.7034831264259864,0.7174056630910367,0.730453887980466,0.745705261427786,0.765324940801619,0.7897882287358859,0.8171753474174277,0.844454198029754,0.8666924840433987,0.8786611871791136,0.8760933310457854,0.8565545830406107,0.8207317895483682,0.771547950640005,0.7138178522774549,0.6531925093556811,0.594769741216391,0.5426427994094677,0.4985154367263359,0.4618451594936262,0.43029168766557674,0.40040193796842005,0.36913594516801607,0.3341602392166147,0.2946442176816236,0.2514382990442761,0.20666111961306913,0.16364462522442327,0.12553480068741862,0.09477419955015935,0.07258491042297555,0.058609678506024165,0.051607496481755465,0.04922464154484478,0.04883153097022666,0.0481548158435096,0.04550064400295548,0.040874935491158865,0.03487334882353409,0.028701917644155767,0.02372472126404365,0.02064734262521018,0.020441855202322338,0.022846339174455457,0.026971398918650354,0.03163074670762798,0.03531778152773399,0.03795069371701377,0.03931986210694436,0.039663883245900665,0.03953677215121231,0.03913551647178415,0.03969481667408778,0.041327535485423235,0.04374723169529781,0.04644731547654647,0.048462314951306776,0.05025541457017995,0.05164779456029938,0.05262780885833561,0.053357858801880625,0.053636281394622114,0.05458147491843174,0.05622623604329682,0.058369732116282096,0.06070651138799879,0.06262944858700806,0.0645472308074765,0.06623872194091113,0.06747348437152037,0.06805516397411693,0.06767466925287505,0.06662019929764045,0.06478743166643161,0.062115476196455556,0.058691172220300014,0.05469769614930359,0.050960241264583504,0.048246064184018625,0.04742008755259493,0.049327180466483114,0.05454017366686566,0.06352645964158747,0.07618487167063326,0.09187478127682788,0.10943424539520093,0.12724338983343503,0.14362263135831926,0.15690773050460904,0.16578972153322116,0.16954131032391873,0.16812472204660903,0.16222181913563055,0.15302081538401566,0.14198722624453464,0.13057114395119881,0.11992195976420324,0.11076519860514797,0.10325629554727714,0.09707605689374037,0.09160097757847886,0.08610494219082718,0.08005103253169846,0.07314138331691744,0.06541364735504952,0.05719948429692323,0.04897309534774134,0.04126865221163971,0.03439000989846021,0.02834035560753403,0.022797991015367586,0.0171605736482147,0.010803491231177206,0.003141634989139337,-0.006117366970171973,-0.01681692794058444,-0.02831982185429358,-0.039440918257006324,-0.04876766459969371,-0.054842754058645075,-0.05643184689653647,-0.05280453606468439,-0.04377327581520888,-0.029932968065171178,-0.01253166858313572,0.006711062324089392,0.025829575910470026,0.04300772823829402,0.056681013155506915,0.06578372347102546,0.06985397154471525,0.0690137916311937,0.06398261594372301,0.05580122045706193,0.04570063588508429,0.03492698577235762,0.024532851172066508,0.015480769793398706,0.008297016655760376,0.0031703044027405333,8.590828697792222e-20,-0.0016138716847564826,-0.0019456123012325304,-0.0014922167982923968,-0.0007231127500304775,-1.4219226894241524e-19,0.0003992683246081159,0.0005398266956108799,0.00045873509391106734,0.00024447292679009424,2.0146179919525947e-20,-0.00023548735472460054,-0.00032550334142356606,-0.0002786256108108984,-0.0001476208086847253,-5.516466384569771e-20,7.94615407271117e-05,0.00011776102139345957,0.00010856391556860801,6.220025892965961e-05,-2.6691868051317117e-21,-6.58724201012972e-05,-9.561052613093254e-05,-8.5953242613575e-05,-4.786401262389325e-05,-1.4019984332372744e-20,4.7780696169003446e-05,6.740404360314558e-05,5.877017355339267e-05,3.169163248536907e-05,9.155732554670704e-21,4.734769980260296e-06,-1.2557016875701637e-06,-8.925325473943492e-06,-9.536293292675043e-06,5.368854313198215e-21,1.2170101700025382e-05,2.481234107578237e-05,2.885390263209433e-05,1.9722747057652798e-05,2.9498431974541196e-20,-5.779715717875651e-05,-7.726108472415998e-05,-6.280919080021347e-05,-3.0923259501545024e-05,-4.9982390891659356e-20,0.0,0.0,0.0,0.0,0.0,0.0,0.0,0.0,0.0,0.0,0.0,0.0,0.0,0.0,0.0,0.0,0.0,0.0,0.0,0.0,0.0,0.0,0.0,0.0,0.0,0.0,0.0,0.0,0.0,0.0,0.0,0.0,0.0,0.0,0.0,0.0,0.0,0.0,0.0,0.0,0.0,0.0,0.0,0.0,0.0,0.0,0.0,0.0,0.0,0.0,0.0,0.0,0.0,0.0,0.0,0.0,0.0,0.0,0.0,0.0,0.0,0.0,0.0,0.0
0.8760933310457854,0.9402481596080605,0.9329114559363688,0.8666391871384365,0.7644996455271994,0.6531925093556811,0.555788349620962,0.48646629481296044,0.4481526596266971,0.43379372416537876,0.43029168766557674,0.42354704857589365,0.4032026396487884,0.36521316188831093,0.3121654767042428,0.2514382990442761,0.19211409179297806,0.14207089275519755,0.10575782875328862,0.08357060981863626,0.07258491042297553,0.06812095126166899,0.06565112778154915,0.062026477725928855,0.0560348234311496,0.048154815843509606,0.03971714378840158,0.03234632579915715,0.027116017165199145,0.024350887125083816,0.023724721264043645,0.02441265129630313,0.025861003899854896,0.027648357560272764,0.029590266359806685,0.03163074670762798,0.03359282571804616,0.03545163993223762,0.03709192333354026,0.03844223603116332,0.03953677215121231,0.04044245760583147,0.041441886852207774,0.04274781148272084,0.04444648546164471,0.04644731547654647,0.048462314951306776,0.05025541457017995,0.05164779456029938,0.05262780885833561,0.053357858801880625,0.053636281394622114,0.05458147491843174,0.05622623604329682,0.058369732116282096,0.06070651138799879,0.06262944858700806,0.0645472308074765,0.06623872194091113,0.06747348437152037,0.06805516397411693,0.06767466925287505,0.06662019929764045,0.06478743166643161,0.062115476196455556,0.058691172220300014,0.05469769614930359,0.050960241264583504,0.048246064184018625,0.04742008755259493,0.049327180466483114,0.05454017366686566,0.06352645964158747,0.07618487167063326,0.09187478127682788,0.10943424539520093,0.12740970224734485,0.1439604336568507,0.15732325841818895,0.1661005679602301,0.16954131032391873,0.16801864856907256,0.16206663619971715,0.15288736889727447,0.1419217726337612,0.13057114395119881,0.12003139213579915,0.11093129912045091,0.10340832048038034,0.09715926630637624,0.09160097757847886,0.08589741325644666,0.07968069995298276,0.07273221501140234,0.06513378872048597,0.057199484296923224,0.04915313156355568,0.041554106696624606,0.03466843583482343,0.028507575330351594,0.02279799101536759,0.016827251237509527,0.010198045492730668,0.0024580333533755555,-0.006597056639787203,-0.01681692794058444,-0.02791170552276081,-0.03871504910604983,-0.04795651227022611,-0.05427218724552755,-0.05643184689653647,-0.053853906065964574,-0.04584688368477065,-0.032491731261620325,-0.014505460613366251,0.00671106232408939,0.0286645077397731,0.049037743972285476,0.06482951619304765,0.0728156330694951,0.06985397154471526,0.05282018421813989,0.02065634437078847,-0.026297185058725633,-0.08564684362785825,-0.15291839042754965,-0.22256261397040086,-0.2866599647093849,-0.33757680170973775,-0.36872264846356856,-0.37569075239981453,-0.3578869269222444,-0.31630192831432513,-0.25529946570980067,-0.18130258908737362,-0.10176570356406202,-0.024493647593882794,0.044703175584564894,0.10156537751153727,0.1440317108202681,0.17215934527169052,0.18767252116900265,0.1935422430837635,0.19309518462416395,0.18952563608659334,0.18548611021567488,0.18283862630467532,0.1827263497768761,0.18552028982306978,0.19105099380608034,0.19881287515965923,0.20813348370232265,0.21835271467488793,0.228852006990882,0.2391376815979511,0.2488992385524362,0.2580835012989732,0.26692707528231185,0.27603785278429044,0.2863487493270432,0.2989856019452132,0.3150582513944999,0.3352418428756471,0.3596254555667421,0.38747250513287407,0.4172424729679118,0.44687280815592423,0.4743116805103933,0.4981345024823163,0.5181122045949522,0.5354993439906104,0.5528607999106916,0.5736058740898413,0.6008365520769088,0.6363068161299218,0.6794806641830595,0.727116738086729,0.7731148854696572,0.8097411438181228,0.8288445517867535,0.8234619843755087,0.7895101523120012,0.7260848957609047,0.6367641870164552,0.528764083470493,0.41173099218775433,0.2961696314137927,0.19155204110866664,0.10516202305641839,0.041096246489628285,-4.727621130000009e-19,-0.0206526653017058,-0.02535336637059875,-0.01986232612120012,-0.009867385141706347,7.485188105628747e-20,0.0066757921464711545,0.009187946555945008,0.007923396125801091,0.004273663124406607,1.2642046811807208e-19,-0.0034559029920967974,-0.004984477344054751,-0.0044718559677279605,-0.0024937295550503703,-4.818168744518003e-19,0.0019322998153044075,0.0029021246645772932,0.0027031685202896522,0.0015604073976918879,5.483100300281091e-19,-0.0015227505102490824,-0.0022549936137197663,-0.0020660451757820754,-0.0011709562906307676,-7.8869569093165585e-19,0.0007724496554952099,0.001221086753647317,0.0011887791855789169,0.0007126106406506335,6.149865288305479e-19,-0.0009376742787130506,-0.0013428621267272843,-0.0011848571132054009,-0.0006439644115202314,-7.958695703166571e-19,0.00014346523002689354,0.00029249617691653584,0.00034013945654031547,0.00023249834004119261,3.4773738403939547e-19,-0.0006813322233398866,-0.000910779512389433,-0.0007404157523134651,-0.0003645337275662394,-5.89209144123345e-19,0.0,0.0,0.0,0.0,0.0,0.0,0.0,0.0,0.0,0.0,0.0,0.0,0.0,0.0,0.0,0.0,0.0,0.0,0.0,0.0,0.0,0.0,0.0,0.0,0.0,0.0,0.0,0.0,0.0,0.0,0.0,0.0,0.0,0.0,0.0,0.0,0.0,0.0,0.0,0.0,0.0,0.0,0.0,0.0,0.0,0.0,0.0,0.0,0.0,0.0,0.0,0.0,0.0,0.0,0.0,0.0,0.0,0.0,0.0,0.0,0.0,0.0,0.0,0.0
0.8234619843755087,0.8953124942689455,0.9068897838685006,0.8700539093421787,0.8054509417916582,0.7360406709809632,0.68052244391698,0.6486890903799352,0.6398316901489255,0.6444866928751735,0.6486193575864175,0.6386934645806823,0.6060385666253207,0.549120483663797,0.4733740917238325,0.38891828357658725,0.3071540407743048,0.23746513306986355,0.18501044357468724,0.15012262446504324,0.12921720956675703,0.11666938071953417,0.10683616150699968,0.0956644588421812,0.08140288362537301,0.06443899599959321,0.046496262940026865,0.029745081002365746,0.015920815126096447,0.005900154226130734,-0.0003392175675706259,-0.0035480990136518968,-0.004641404777050855,-0.004559282752246065,-0.004054622453997727,-0.0036445244228705963,-0.00369673136061262,-0.004251559684791914,-0.0051920737473892834,-0.006227493321671123,-0.006949831278170579,-0.007002353873559162,-0.006017428086762012,-0.003886125991195071,-0.0007872358129434299,0.0028386615773472097,0.006396741344413284,0.00934943039099637,0.011354715851605222,0.01236719363470853,0.012627154432864997,0.012171205978616206,0.012182501046033325,0.012818661139362454,0.013958174696060997,0.015327404933275243,0.016329331007207293,0.01738313294544038,0.018205513650897613,0.018501023358737035,0.01802765543368549,0.01639607564490404,0.01407049624561145,0.010919553828264407,0.0068504372150918385,0.0019486521345674216,-0.003530405479834413,-0.00864421680636696,-0.012632098572072039,-0.014700865658254474,-0.014130351164550654,-0.010380949677329658,-0.003212540857242975,0.007083325091027127,0.01975427540593151,0.03368327163307496,0.04721911487110169,0.05943860768277708,0.06947504867309356,0.07685482187394868,0.08149689443070057,0.08293510033533745,0.08229815047215483,0.0805775091414557,0.07878917192359965,0.07769750708169827,0.07705722514025151,0.0770570456536826,0.07715187931735859,0.07645296640807994,0.07389811973269594,0.06813852854818102,0.05883260584429472,0.04607535647363727,0.030640481861369,0.013844316878074624,-0.003056355476973504,-0.018310043942264907,-0.030751182205677498,-0.03992293285926875,-0.04620948597654669,-0.051010131073821394,-0.055589799090465915,-0.06125778381537241,-0.06877415465579878,-0.0780832458098847,-0.08862383663261876,-0.09860439740109232,-0.10624017693094807,-0.11016194202739323,-0.10995700564322268,-0.10683026076761089,-0.10236416299712255,-0.09890042398804672,-0.09856227085908623,-0.10242945427338922,-0.11026655217986428,-0.11893349985322971,-0.12347587507361472,-0.11760931861629352,-0.09490190290355578,-0.05062459048658374,0.01829095951784409,0.11131024415933981,0.22414768646669928,0.3490360499148876,0.4750637086872583,0.591472124385503,0.6879546954461898,0.7565902183301778,0.792974002733331,0.7959742022034052,0.7698658164356184,0.7216898048839653,0.6603780356240418,0.5951340561813073,0.5334985401282321,0.48142973437521164,0.44173987903692313,0.41443203417360075,0.39729410962928363,0.3867969552524118,0.37927388189500333,0.37162591594380295,0.3619842773806122,0.3499227929763631,0.33629672762879426,0.3228483172761209,0.3116230699789316,0.3044524923351627,0.30255147632344254,0.30632589847531017,0.3152614151450962,0.32819115216851025,0.3435154420810519,0.3595220909199619,0.3747496423379004,0.3881027046225637,0.3992178125265916,0.4084038217969762,0.4164927055164812,0.4246155214111201,0.4336378161513978,0.4441232851597061,0.4560306539701441,0.4687157691553098,0.4812261724001081,0.4925333070802025,0.5023005418360709,0.5111811208003438,0.5209388327941384,0.5342498949847836,0.5539000257373876,0.5821584818098822,0.6197627823699933,0.6651920279544837,0.7142001191652354,0.7607979630973272,0.7972240372793272,0.8156006116028801,0.8094452231148291,0.7745994816519604,0.7116621596353988,0.6241521464755798,0.5188291556093506,0.40472261155741457,0.2914344621174485,0.18877437893352586,0.10384129685987098,0.04067776833879988,-2.912529245168374e-19,-0.020679677814526738,-0.025461989490419487,-0.019999330186421513,-0.009956947246035859,-1.8897376152124228e-19,0.006672420679176821,0.009209022179239974,0.007963929735399604,0.004307400297386806,2.262783514696532e-19,-0.003553040001569238,-0.005120363024814979,-0.004587912782594412,-0.002554165295768074,-6.096819336801358e-19,0.0019162765874966223,0.0028894550705682795,0.002701397124558377,0.001564748179040041,5.881763038176834e-19,-0.0015949961341822933,-0.002347242384119751,-0.0021364587946163215,-0.0012026052686831485,-8.602625659840368e-19,0.0007583525084539095,0.0011983675099838222,0.001166294818389626,0.0006989433013463689,6.022188714039833e-19,-0.0009172079212239732,-0.001313981478763846,-0.001159792565462489,-0.000630592429308372,-7.784261667597897e-19,0.00014102320123060303,0.0002875173811016816,0.0003343496888908973,0.0002285408122042116,3.418182863931456e-19,-0.0006697347588606907,-0.0008952764542902029,-0.0007278125829738449,-0.0003583287268160997,-5.791797753577067e-19,0.0,0.0,0.0,0.0,0.0,0.0,0.0,0.0,0.0,0.0,0.0,0.0,0.0,0.0,0.0,0.0,0.0,0.0,0.0,0.0,0.0,0.0,0.0,0.0,0.0,0.0,0.0,0.0,0.0,0.0,0.0,0.0,0.0,0.0,0.0,0.0,0.0,0.0,0.0,0.0,0.0,0.0,0.0,0.0,0.0,0.0,0.0,0.0,0.0,0.0,0.0,0.0,0.0,0.0,0.0,0.0,0.0,0.0,0.0,0.0,0.0,0.0,0.0,0.0
0.792974002733331,0.853432049486508,0.8489625321772983,0.7901961298318534,0.6975350867002021,0.5951340561813073,0.5036891063401329,0.43782419520817134,0.40206961308010103,0.3920031448120077,0.39729410962928363,0.40503251220384534,0.4061933838447686,0.3961978887316125,0.37584417757248617,0.3499227929763631,0.32411153755349,0.3045498702582796,0.2945974425659092,0.294634635363216,0.30255147632344254,0.3144212584321798,0.3273658828343941,0.33937533103101325,0.3499006974632787,0.3595220909199619,0.368896268763167,0.3791763868300299,0.39076231659995625,0.4034240687771389,0.4164927055164812,0.4289563009123658,0.4404170999908223,0.4507197690994189,0.4600347478719434,0.4687157691553098,0.4769865010688038,0.4854991628768271,0.49497532382774273,0.5063893684104314,0.5209388327941384,0.5396886019247531,0.5637051737315899,0.5932856952737058,0.6277191458187541,0.6651920279544837,0.7028532763512755,0.7379036093880028,0.7679318853056589,0.7916845009025818,0.8094452231148291,0.8223829292963314,0.8341924718818194,0.8477771050904482,0.8651996180985384,0.88697202063818,0.9112031162168421,0.9354489391741149,0.9553528338164275,0.9662909238770953,0.9644988181615309,0.9476265548620604,0.9165671392860766,0.8739593246028463,0.8240703530915866,0.7718424322401194,0.7214490202469116,0.6765844720083696,0.6385948952432147,0.6068517043598323,0.5791860463187078,0.5523182705757881,0.5238630237400198,0.49191335948182535,0.4559084479998553,0.4167437060554054,0.3761583652951652,0.33734006691370444,0.302965253622188,0.2750012729853053,0.254301365792103,0.240137221962915,0.23156980738091737,0.22649228428342502,0.22264911471189947,0.2182027336122278,0.21172160918120758,0.203796774149534,0.19530117545285688,0.18759731740594998,0.18210410143235267,0.17936344487684136,0.18044882469378945,0.1849875683747655,0.19191123917149852,0.19977842125951756,0.20655800941501332,0.21201904159912366,0.2156212283036589,0.21731518410004544,0.21745274108668244,0.21589708223712795,0.2142117668953821,0.21277532260766277,0.21165757234655447,0.21072149636476722,0.20911376077140142,0.20769764957382922,0.20638938462632608,0.20514245048766414,0.20399025164285198,0.20242783193128713,0.20157809219027117,0.20140110401371367,0.20168804552734143,0.20217443367861132,0.2020099013842779,0.20195678729859382,0.20185866347476597,0.20144872352582952,0.20035861571437066,0.19752064002094477,0.19336741348773523,0.18768680177206,0.1804758872864602,0.17205960074757917,0.16265328172002733,0.15390928001413842,0.14709087800394854,0.14339960157715784,0.14376058578078768,0.14830685458017054,0.15734077102101982,0.1702176326428311,0.18578390954696272,0.20256814125983022,0.21881641762228304,0.23346936658935635,0.24560062276850506,0.2548296561814783,0.26137569673887273,0.2658872522955543,0.26960394649035047,0.27360715075406067,0.2787062229851169,0.2852122027693527,0.2927043350993869,0.30042145974451134,0.30687827825503233,0.310316258252462,0.3090487087998327,0.3016920375153069,0.2878714324451359,0.2678242748750521,0.24265699854389194,0.21428598498214316,0.1851539302356433,0.1583791576791229,0.13688679659127329,0.12327734219298254,0.11952326116445365,0.1265955272501496,0.14466304805101737,0.17246654174730566,0.20757052844219603,0.24660483779729195,0.2855565092321545,0.3206755922382456,0.34849809228613177,0.3665435853003032,0.3736864144301302,0.37018759854468797,0.3579503187635333,0.339610409316771,0.3181784503434819,0.2964567951311276,0.27643888447805354,0.2593139719507377,0.24493272275739605,0.23214996416949418,0.21922717583212506,0.20426854330777341,0.18600165762266674,0.16378057835361265,0.13790924000718974,0.10961358791606253,0.08069886517167543,0.053562390311092924,0.030227654757897862,0.01215399876832178,3.5718117661757344e-20,-0.006576021887804278,-0.008289870491192182,-0.00665413016733034,-0.0033789408601190216,-2.74842927141521e-19,0.002258582788655132,0.003183608337588356,0.0028095568712959516,0.0015490931530939347,2.0815011752133367e-19,-0.0014236306105089424,-0.0020497688148171708,-0.0018309653577970953,-0.0010142414458355251,-4.1753485834149524e-19,0.0007120040255876288,0.001076140954940001,0.001007719849853212,0.0005842677003865735,2.7197426771751166e-19,-0.0005772512705473063,-0.0008551640026214602,-0.0007833484211432792,-0.00044362097730443664,-3.543739270154794e-19,0.00024591298090475677,0.00040718070595538013,0.0004119517026281328,0.00025497133699175134,2.6132557243378223e-19,-0.0004408641327042982,-0.0006131351164624276,-0.0005232537580981946,-0.0002737545024480996,-3.7725566251255506e-19,3.819420666122673e-05,7.787015311427529e-05,9.055404361253835e-05,6.18971554728686e-05,9.257681117121783e-20,-0.00018138850603953693,-0.0002424733917235024,-0.00019711809093943505,-9.70484383083086e-05,-1.5686292639068697e-19,0.0,0.0,0.0,0.0,0.0,0.0,0.0,0.0,0.0,0.0,0.0,0.0,0.0,0.0,0.0,0.0,0.0,0.0,0.0,0.0,0.0,0.0,0.0,0.0,0.0,0.0,0.0,0.0,0.0,0.0,0.0,0.0,0.0,0.0,0.0,0.0,0.0,0.0,0.0,0.0,0.0,0.0,0.0,0.0,0.0,0.0,0.0,0.0,0.0,0.0,0.0,0.0,0.0,0.0,0.0,0.0,0.0,0.0,0.0,0.0,0.0,0.0,0.0,0.0
0.9644988181615309,1.0411089419823538,1.041823664947403,0.9801049955731558,0.8806305218443006,0.7718424322401194,0.6780089712742375,0.613977139709222,0.582459503410996,0.5755798374159615,0.5791860463187078,0.5781836523640478,0.561924994618312,0.5266002569990493,0.4754757546309789,0.4167437060554054,0.35999097268569774,0.3133442141953968,0.28095018025302293,0.2625197361468307,0.254301365792103,0.25084046521185693,0.24735573785179055,0.24086586454581282,0.2307273313851756,0.2182027336122278,0.2053129383553575,0.19433783686576683,0.18668980900611634,0.18276277205245348,0.18210410143235267,0.1835901191912971,0.18652744048772374,0.19036967034792746,0.19484397472466372,0.19977842125951756,0.20465289713530116,0.20925538836445276,0.21315402442929612,0.2159603871999747,0.21745274108668244,0.2173648430574893,0.21617381483393397,0.2143703641964736,0.2124428695990449,0.21072149636476722,0.20911376077140142,0.20769764957382922,0.20638938462632608,0.20514245048766414,0.20399025164285198,0.20242783193128713,0.20157809219027117,0.20140110401371367,0.20168804552734143,0.20217443367861132,0.2020099013842779,0.20195678729859382,0.20185866347476597,0.20144872352582952,0.20035861571437066,0.19752064002094477,0.19336741348773523,0.18768680177206,0.1804758872864602,0.17205960074757917,0.16265328172002733,0.15390928001413842,0.14709087800394854,0.14339960157715784,0.14376058578078768,0.14830685458017054,0.15734077102101982,0.1702176326428311,0.18578390954696272,0.20256814125983022,0.2186666522810715,0.23316517356303762,0.24522643735265295,0.254549737081569,0.26137569673887273,0.2659827721078358,0.2697436896688716,0.2737273201277739,0.2787651643600904,0.2852122027693527,0.292298693005248,0.29964812981192,0.3059741023248771,0.3096673465555675,0.3090487087998327,0.3020747843478519,0.2884914660688896,0.26843914373097766,0.24302987371137422,0.21428598498214316,0.18418007825115307,0.15657709798274463,0.13483213392271687,0.12183362646558073,0.11952326116445365,0.12766772961540376,0.14646094088695852,0.17432684455198233,0.20875919053744874,0.24660483779729195,0.2834635599666308,0.31687139285606947,0.34421813391079076,0.3635621749857385,0.3736864144301302,0.3731413924471106,0.3632185986087768,0.34547262139273055,0.3222578562779782,0.2964567951311276,0.27040038272196193,0.24762352200046317,0.2306234227242843,0.22100189468885745,0.21922717583212506,0.22415350253193186,0.23459860925556117,0.24852050817556537,0.26381913821420083,0.278769492759363,0.2919954837357069,0.3036977406199094,0.31452542500365493,0.3256348126422389,0.338311809686601,0.35333661247804254,0.3714752956530899,0.3924318019933786,0.4152275741440147,0.4384990485258,0.4607301771462079,0.4814120743547043,0.5005380121679962,0.5190439444567305,0.5386862873649989,0.5614698935090467,0.5896386870520202,0.6242142583150788,0.6648043770462766,0.7094748511016054,0.754924783715453,0.7975766946695888,0.8339232405979654,0.8616431331646307,0.8802634148382118,0.8912710767238661,0.8979395392713415,0.904105255847514,0.9131057901243992,0.9266753160783334,0.9440997363728626,0.9626006424886948,0.9772706704168584,0.9824409789589181,0.9730872173184552,0.9459208925063556,0.9009502751515576,0.8406719788691455,0.769919970330641,0.6948553802309488,0.6215370930329731,0.5552861630555622,0.4990481216828851,0.4533588369367192,0.4166235431434426,0.38573057686852463,0.35743704442942664,0.328731084006043,0.297742833729042,0.2640860733691851,0.22863514141691008,0.19363849810600717,0.16135159944405403,0.13364983959257987,0.1115486035949277,0.09480914125116756,0.0826856065233496,0.07339321412593647,0.0649557838263303,0.05577430179746385,0.044823852841559784,0.03268245410015336,0.02026971985682225,0.008927679502938319,6.60925636565271e-19,-0.0058578612177388285,-0.007895532662803278,-0.006723330924427772,-0.0035962112538124313,-1.1292943673353782e-18,0.002423245295891282,0.003603375299127947,0.0033366056261312444,0.0019198585307591918,8.885504292167427e-19,-0.0021328544964309016,-0.003069189779984611,-0.0027294558230345736,-0.0014998046643964636,-1.2712672468307884e-18,0.0007080161916279111,0.001155138651555654,0.0011556986032424427,0.0007092736194015713,6.305762974413254e-19,-0.0011845668223367022,-0.0016505720629019427,-0.001412306856393796,-0.0007414883216036734,-9.465779494594382e-19,0.0001645852028613053,0.00028763142820416646,0.00030316267175772155,0.0001936816766299855,2.2860980657309514e-19,-0.0004117144974618712,-0.0005624768902253795,-0.00046988664314094966,-0.00023955358099228457,-3.540116244544306e-19,1.943422571724614e-05,3.9622399954065046e-05,4.6076299968339214e-05,3.149491495882715e-05,4.7105537770228286e-20,-9.229528446954277e-05,-0.0001233768950086484,-0.00010029891460367862,-4.938082029871203e-05,-7.981601883196349e-20,0.0,0.0,0.0,0.0,0.0,0.0,0.0,0.0,0.0,0.0,0.0,0.0,0.0,0.0,0.0,0.0,0.0,0.0,0.0,0.0,0.0,0.0,0.0,0.0,0.0,0.0,0.0,0.0,0.0,0.0,0.0,0.0,0.0,0.0,0.0,0.0,0.0,0.0,0.0,0.0,0.0,0.0,0.0,0.0,0.0,0.0,0.0,0.0,0.0,0.0,0.0,0.0,0.0,0.0,0.0,0.0,0.0,0.0,0.0,0.0,0.0,0.0,0.0,0.0
0.9730872173184552,1.0417746051386092,1.0292553175763444,0.949333718707818,0.8278051761570145,0.6948553802309488,0.57691546506525,0.49087137600471814,0.44115974464405694,0.4210106883029289,0.4166235431434426,0.41257764060626173,0.3971706267304314,0.3652109924257572,0.31852271123772224,0.2640860733691851,0.21077417840216228,0.16643643841446984,0.13546496353330628,0.1181697089342006,0.11154860359492769,0.11086938089610444,0.11175037269673695,0.11127296554988783,0.10849128006882337,0.10408110691225135,0.09937346869488382,0.09587162295866677,0.094358525109875,0.09481145317632514,0.09661361022957497,0.09877085171727625,0.10081175204713186,0.10255676961970438,0.10415727692551299,0.10587897319114718,0.10767090710220799,0.10965213976194518,0.11167476393329683,0.11354612217086928,0.11514433615271938,0.11625116204843661,0.11720596758820233,0.11829563065353532,0.11974220500358748,0.12158692503683219,0.12351943195118906,0.12534416949941135,0.12678913879356749,0.1276881847479805,0.12802951392094497,0.12739030697035808,0.12692991286427602,0.1266993365180018,0.12660292913915752,0.12651219199528488,0.12598041061407864,0.12568183557605192,0.12554420300914929,0.12539404919353264,0.12499487006962483,0.12389335094489601,0.12224199033410947,0.1198130840277615,0.11647390965337008,0.11230268517515896,0.10754250859893001,0.10307687486542218,0.0997115437704628,0.09829984990562769,0.0996105002806931,0.10413763571247187,0.11213355008306035,0.1232693644397184,0.13673450434442644,0.15135087828655194,0.16591984697972445,0.1791070876065573,0.18989128536058206,0.1978052253832188,0.2030912562924108,0.20700346446275364,0.21065880749365196,0.21526383014189307,0.22162131780342476,0.2298563918658976,0.23929258483430046,0.24860166141340476,0.2558839436466931,0.2591247951294046,0.2566215274393844,0.24700884500049386,0.23056294948444053,0.20829756501715607,0.18204594170672186,0.15410369650811798,0.12648418675151363,0.10146318029740799,0.08040796929612495,0.06386770216868648,0.05158586557685157,0.04240128589965869,0.035373416927746384,0.029309082163457244,0.023256991660614415,0.01666909716476237,0.009111491117567197,0.0012124964649210814,-0.0064087402935335885,-0.013078091018753095,-0.01824767124732682,-0.02199288499216567,-0.023837978742242305,-0.023767380502490835,-0.02190993800103923,-0.018578991082097637,-0.014878535874007713,-0.011349769741641334,-0.009401253802374353,-0.011060805477065536,-0.018910310916868442,-0.03636620420455247,-0.06526281375490846,-0.10660877089639609,-0.15951819033853157,-0.2208155870212337,-0.28581997072012283,-0.34653444640917413,-0.39456702505515523,-0.42197355990036733,-0.4227208631255989,-0.3948185849853962,-0.3381682452780473,-0.2569188727367971,-0.1582143219945035,-0.05112115794021233,0.05417756962651237,0.14939588202409945,0.2277623402332269,0.2851832716873016,0.3204785472451743,0.3350163075870323,0.33262214062002127,0.3181093333403868,0.29668995197304826,0.2732596453163781,0.2517850652558535,0.23529502353786216,0.2253878646049691,0.22247864090376082,0.22604074338758187,0.23487983583285796,0.24753616925369076,0.2624163966260495,0.27806467796570156,0.2933464906258303,0.30758510094303654,0.3206942188626617,0.3331677057029658,0.346030741459237,0.3606522378640787,0.37844335529602907,0.4004327069672573,0.42693910000657,0.45731332943950137,0.489942034365157,0.5225654147563512,0.5528208550026634,0.57901053450289,0.6007326764206263,0.6192318308662351,0.6372891303170822,0.6585432577118691,0.6864782684734966,0.7231712362583044,0.7682175332116266,0.818259266538828,0.8666781622217986,0.9050578684813512,0.9244627893113425,0.917203235557018,0.8787141703874501,0.8078884714532862,0.708562392003723,0.5886038797431454,0.458601617778509,0.33011043777599486,0.21368429314793524,0.11742952462803447,0.045942330171987206,-4.701490094039749e-19,-0.023213892565779957,-0.028532688885048257,-0.022375600026605415,-0.01112441628204492,-2.1050515674041533e-20,0.007499122352768561,0.010328887063304072,0.008913682788605569,0.004811025001851647,1.6047876274578204e-19,-0.0038960890785645595,-0.005621885314218637,-0.005045707570559249,-0.002814702644925296,-5.622748802755838e-19,0.0021758643803268946,0.0032708194157158137,0.003049062895745868,0.001761367971452158,6.331500923251992e-19,-0.0017326369189941335,-0.002563014953365689,-0.002345534806418704,-0.0013277400419198053,-9.09662845700012e-19,0.0008643512065079307,0.0013681816037415164,0.0013335137521436873,0.000800162393423595,6.946118127207846e-19,-0.001063259039980175,-0.0015209178753082032,-0.0013402145874515429,-0.0007273529714066195,-9.027639639840968e-19,0.0001597970224094683,0.00032579335166195867,0.00037886024613021795,0.00025896548206671543,3.8732310636895636e-19,-0.0007588937092348269,-0.0010144608148197067,-0.0008247031879611465,-0.00040603151176065333,-6.562835245145611e-19,0.0,0.0,0.0,0.0,0.0,0.0,0.0,0.0,0.0,0.0,0.0,0.0,0.0,0.0,0.0,0.0,0.0,0.0,0.0,0.0,0.0,0.0,0.0,0.0,0.0,0.0,0.0,0.0,0.0,0.0,0.0,0.0,0.0,0.0,0.0,0.0,0.0,0.0,0.0,0.0,0.0,0.0,0.0,0.0,0.0,0.0,0.0,0.0,0.0,0.0,0.0,0.0,0.0,0.0,0.0,0.0,0.0,0.0,0.0,0.0,0.0,0.0,0.0,0.0
0.917203235557018,1.0035409438654233,1.0259822503293468,0.9974593832291848,0.9402224309545663,0.8787403787940167,0.8325907870383491,0.8114847238844006,0.8137629202951412,0.8285094764965806,0.8402775220310154,0.834685613385447,0.8030361723098416,0.7446108806239733,0.6661895624224531,0.5792835140792496,0.4962503618018326,0.4266686798864781,0.3750807229499012,0.34061163040653725,0.3182895061274838,0.30136631920120543,0.2837297739462691,0.2616246979957736,0.23427088985529504,0.20340563002058484,0.17212775607617586,0.14357218455439785,0.11988393111183467,0.10175306705889656,0.0885217539136858,0.07868058845182924,0.070490684332589,0.06250150590717203,0.05383968442035382,0.04426087695684291,0.03403634604039585,0.023768482699968316,0.014205591158052429,0.0060846311972705455,-1.2355601263567741e-18,-0.003708884867272692,-0.0050431193786316855,-0.004376453576462625,-0.0024043208668756907,-6.906541647857471e-20,0.0019957056075028175,0.002990578924040683,0.002788919512632791,0.0016150479194884395,8.270690594954068e-19,-0.0019000840100735733,-0.0027179903600158075,-0.002400691673190337,-0.0013090383668244794,-1.1948165344518582e-18,0.0005635494213744126,0.0009254242648783525,0.0009307543373876684,0.0005736694047616996,5.233266714351954e-19,-0.000988947429809874,-0.0013738876680241478,-0.0011714328401252457,-0.0006124611957094677,-7.936982190362341e-19,0.00012846175117799076,0.00022387602434947797,0.00023548773761826501,0.00015021864842671968,1.762109594205147e-19,-0.00031652214906766643,-0.0004327269798497486,-0.0003618011403368383,-0.0001846441065042134,-2.721103093039625e-19,1.5422440900222218e-05,3.1443193596041356e-05,3.656482246843618e-05,2.4993455961509973e-05,3.7381595897069526e-20,-7.324287526606027e-05,-9.790834476288186e-05,-7.959432525572514e-05,-3.9187194475442954e-05,-6.333969005179426e-20,0.0,0.0,0.0,0.0,0.0,0.0,0.0,0.0,0.0,0.0,0.0,0.0,0.0,0.0,0.0,0.0,0.0,0.0,0.0,0.0,0.0,0.0,0.0,0.0,0.0,0.0,0.0,0.0,0.0,0.0,0.0,0.0,0.0,0.0,0.0,0.0,0.0,0.0,0.0,0.0,0.0,0.0,0.0,0.0,0.0,0.0,0.0,0.0,0.0,0.0,0.0,0.0,0.0,0.0,0.0,0.0,0.0,0.0,0.0,0.0,0.0,0.0,0.0,0.0,0.0,0.0,0.0,0.0,0.0,0.0,0.0,0.0,0.0,0.0,0.0,0.0,0.0,0.0,0.0,0.0,0.0,0.0,0.0,0.0,0.0,0.0,0.0,0.0,0.0,0.0,0.0,0.0,0.0,0.0,0.0,0.0,0.0,0.0,0.0,0.0,0.0,0.0,0.0,0.0,0.0,0.0,0.0,0.0,0.0,0.0,0.0,0.0,0.0,0.0,0.0,0.0,0.0,0.0,0.0,0.0,0.0,0.0,0.0,0.0,0.0,0.0,0.0,0.0,0.0,0.0,0.0,0.0,0.0,0.0,0.0,0.0,0.0,0.0,0.0,0.0,0.0,0.0,0.0,0.0,0.0,0.0,0.0,0.0,0.0,0.0,0.0,0.0,0.0,0.0,0.0,0.0,0.0,0.0,0.0,0.0,0.0,0.0,0.0,0.0,0.0,0.0,0.0,0.0,0.0,0.0,0.0,0.0,0.0,0.0,0.0,0.0,0.0,0.0,0.0,0.0,0.0,0.0,0.0,0.0,0.0,0.0,0.0,0.0,0.0,0.0,0.0,0.0,0.0,0.0,0.0,0.0,0.0,0.0,0.0,0.0,0.0,0.0,0.0,0.0,0.0,0.0,0.0,0.0,0.0,0.0,0.0,0.0,0.0,0.0
