1.0006505165814363,1.096778161913263,1.1222850559399646,1.0901619586626812,1.0239039044142733,0.9501605357069519,0.8912216473610947,0.8598119114163183,0.8571705622666421,0.8749392561405179,0.8996705548324675,0.9182064231298699,0.9220669516291277,0.9095402172737121,0.885100599106564,0.8567433282286473,0.8324699321974891,0.8172977574667206,0.8118023888355357,0.8125197978585574,0.813816101624827,0.8103413075788668,0.7990725121240914,0.7802190675181836,0.7567664750016625,0.7329653905746748,0.7124304501884812,0.6965899083067004,0.684027147511463,0.6708847225495502,0.6521146795245225,0.6230945306331037,0.5810618449494556,0.5259454920448245,0.46041504537575173,0.38922963140205,0.31815473833301633,0.25278425912343067,0.19756022345176702,0.15516688174079762,0.1263445832795775,0.11006659863096906,0.10396819822838776,0.10490687271443912,0.1095468167848715,0.11488122342440242,0.11862397407623575,0.1194205751030788,0.11685437648166641,0.11126219566959623,0.10341786356922734,0.093664217974108,0.08360854980436017,0.07341248832081843,0.06286477500059987,0.05170893178461367,0.039464627173675736,0.02747082373283665,0.01639892171706217,0.007012236769051215,7.952052194483412e-19,-0.0046846432780199,-0.006201483773069865,-0.005184938250039243,-0.002721292836933516,-1.2421981133653607e-18,0.0015859376691097064,0.0023559983819358542,0.0021830256004890056,0.0012581647878844864,6.513452271287603e-19,-0.0015242866364246362,-0.0021617245382563387,-0.001891986733787883,-0.001021619666621789,-9.549481801309617e-19,0.00039848278978958564,0.0006567464570881099,0.0006627751134034498,0.0004097754036660868,3.562888490998586e-19,-0.0007352247853530835,-0.0010167964061611739,-0.000862532525529475,-0.0004483175148964829,-5.684053587658918e-19,0.00010730634584103012,0.00017434475476246054,0.00017370616111596197,0.00010618023942041485,1.0218927581067147e-19,-0.00016665413598259876,-0.0002340064746576658,-0.00020193744837425083,-0.00010703388937791943,-1.4223424881541392e-19,1.8017671571203108e-05,3.673433660913341e-05,4.271781403202769e-05,2.919926124906248e-05,4.367203103829866e-20,-8.55679123695299e-05,-0.00011438399481837598,-9.298816060747609e-05,-4.5781468992059626e-05,-7.399825618774687e-20,0.0,0.0,0.0,0.0,0.0,0.0,0.0,0.0,0.0,0.0,0.0,0.0,0.0,0.0,0.0,0.0,0.0,0.0,0.0,0.0,0.0,0.0,0.0,0.0,0.0,0.0,0.0,0.0,0.0,0.0,0.0,0.0,0.0,0.0,0.0,0.0,0.0,0.0,0.0,0.0,0.0,0.0,0.0,0.0,0.0,0.0,0.0,0.0,0.0,0.0,0.0,0.0,0.0,0.0,0.0,0.0,0.0,0.0,0.0,0.0,0.0,0.0,0.0,0.0,0.0,0.0,0.0,0.0,0.0,0.0,0.0,0.0,0.0,0.0,0.0,0.0,0.0,0.0,0.0,0.0,0.0,0.0,0.0,0.0,0.0,0.0,0.0,0.0,0.0,0.0,0.0,0.0,0.0,0.0,0.0,0.0,0.0,0.0,0.0,0.0,0.0,0.0,0.0,0.0,0.0,0.0,0.0,0.0,0.0,0.0,0.0,0.0,0.0,0.0,0.0,0.0,0.0,0.0,0.0,0.0,0.0,0.0,0.0,0.0,0.0,0.0,0.0,0.0,0.0,0.0,0.0,0.0,0.0,0.0,0.0,0.0,0.0,0.0,0.0,0.0,0.0,0.0,0.0,0.0,0.0,0.0,0.0,0.0,0.0,0.0,0.0,0.0,0.0,0.0,0.0,0.0,0.0,0.0,0.0,0.0,0.0,0.0,0.0,0.0,0.0,0.0,0.0,0.0,0.0,0.0,0.0,0.0,0.0,0.0,0.0,0.0,0.0,0.0,0.0,0.0,0.0,0.0,0.0,0.0,0.0,0.0,0.0,0.0,0.0,0.0,0.0,0.0,0.0,0.0
0.443869090757489,0.4865955431241484,0.4970570664073085,0.48062994192062897,0.44766007758903814,0.41028730586053713,0.3787893806100282,0.3600202489798428,0.35567650253086186,0.36303436694000396,0.3767055209635853,0.39087969632335257,0.40127331795828547,0.4062046145594217,0.4065873572090732,0.40503089111230545,0.40451277852702405,0.40716775672490024,0.41360993418028075,0.4229458413371217,0.43335626126102555,0.44293129902629624,0.45039741689812846,0.45547500919171685,0.458792396528388,0.46147144283699404,0.464615113872043,0.4689305695382478,0.47462500134483016,0.4815675815038497,0.4895866244129624,0.49871917488092127,0.509268336743166,0.5216292409488674,0.5359669988648564,0.5519133961722097,0.5684560206114535,0.5841199595915983,0.5974181785891417,0.607423148357547,0.6142401679314569,0.6191729701905012,0.6244638407512819,0.6326322890865396,0.6455787392337212,0.663713415936047,0.6853837336063205,0.7068017115632562,0.7225392970783907,0.7265051693656512,0.7131866639406375,0.6786417655454032,0.6222933126461434,0.5461883442879187,0.4552526535010443,0.3565933319703187,0.25816295585333204,0.1682480272416813,0.09316298705358818,0.03674758042495383,-1.8076401270165328e-19,-0.018954476159896386,-0.023500267182948543,-0.018583948949451444,-0.009313158728546052,-3.12992138327258e-19,0.00628035019562426,0.008727382267423738,0.007597568436670848,0.0041353023473498715,3.5960115429182254e-19,-0.0035219750771449676,-0.005078466104065919,-0.0045496255518539495,-0.0025307751059034395,-7.757372128126659e-19,0.0018378020646440743,0.00278375506961695,0.00261322308182153,0.0015191376032359025,6.433249363043233e-19,-0.0016000282184837648,-0.0023452459017350488,-0.0021252573754007523,-0.0011905917053577132,-9.235100065181099e-19,0.0006952179910065855,0.0011110042385562308,0.0010917280045303302,0.0006596594862678514,5.961639755973511e-19,-0.0009365889065068135,-0.0013294371977779448,-0.001161464865292867,-0.0006243300627505038,-7.969425899265346e-19,0.0001242528383043099,0.0002533260509757409,0.0002945890992995107,0.0002013629270712035,3.0116953733884705e-19,-0.0005900904530128825,-0.0007888109158057925,-0.0006412617101225382,-0.00031571656978673246,-5.103041935558533e-19,0.0,0.0,0.0,0.0,0.0,0.0,0.0,0.0,0.0,0.0,0.0,0.0,0.0,0.0,0.0,0.0,0.0,0.0,0.0,0.0,0.0,0.0,0.0,0.0,0.0,0.0,0.0,0.0,0.0,0.0,0.0,0.0,0.0,0.0,0.0,0.0,0.0,0.0,0.0,0.0,0.0,0.0,0.0,0.0,0.0,0.0,0.0,0.0,0.0,0.0,0.0,0.0,0.0,0.0,0.0,0.0,0.0,0.0,0.0,0.0,0.0,0.0,0.0,0.0,0.0,0.0,0.0,0.0,0.0,0.0,0.0,0.0,0.0,0.0,0.0,0.0,0.0,0.0,0.0,0.0,0.0,0.0,0.0,0.0,0.0,0.0,0.0,0.0,0.0,0.0,0.0,0.0,0.0,0.0,0.0,0.0,0.0,0.0,0.0,0.0,0.0,0.0,0.0,0.0,0.0,0.0,0.0,0.0,0.0,0.0,0.0,0.0,0.0,0.0,0.0,0.0,0.0,0.0,0.0,0.0,0.0,0.0,0.0,0.0,0.0,0.0,0.0,0.0,0.0,0.0,0.0,0.0,0.0,0.0,0.0,0.0,0.0,0.0,0.0,0.0,0.0,0.0,0.0,0.0,0.0,0.0,0.0,0.0,0.0,0.0,0.0,0.0,0.0,0.0,0.0,0.0,0.0,0.0,0.0,0.0,0.0,0.0,0.0,0.0,0.0,0.0,0.0,0.0,0.0,0.0,0.0,0.0,0.0,0.0,0.0,0.0,0.0,0.0,0.0,0.0,0.0,0.0,0.0,0.0,0.0,0.0,0.0,0.0,0.0,0.0,0.0,0.0,0.0,0.0
0.7131866639406375,0.7857221733702827,0.8095872787795448,0.7937779576557327,0.7546413202085245,0.7106937230735935,0.6770891861636319,0.6625886608092241,0.6677119527008705,0.6861969576527815,0.7082007822065495,0.7241424094684351,0.7278701599798664,0.7182128726989456,0.6986262226501829,0.675323274345303,0.6547437624942299,0.6413300366302901,0.6363386219440763,0.6379506473296798,0.6424457664840566,0.6458567028924345,0.6454327787611017,0.6404102833022134,0.6319189327807162,0.6222017499421298,0.6135569226073816,0.6074522804728943,0.6041253898450933,0.6027427297823683,0.6019577334002031,0.6005715146807132,0.5980034306565971,0.5944019320351014,0.590404007667178,0.5867039484407416,0.5836585007027987,0.5811168710082099,0.5785465952250631,0.5753859098216298,0.5714501634812801,0.567193957068939,0.5636879725305323,0.5622826710498219,0.564053794567792,0.5692108534101687,0.5766709218619314,0.5839532194393979,0.5874556323573762,0.5830659726655887,0.5669715433390575,0.5361163462483617,0.4902669109055919,0.4305191668697117,0.3599884084496742,0.28348577166952876,0.20647501247400396,0.13556485589520134,0.07571399083551211,0.03015154363840164,1.922184065238275e-19,-0.01608358493404595,-0.02013623837188136,-0.01606175769303799,-0.008109083041007072,-7.687907459844326e-19,0.005365383984356858,0.007524883633989857,0.00660990851330864,0.003628820509816246,5.292333896485977e-19,-0.0032704967391310336,-0.0047057417215115235,-0.004201753154211327,-0.0023270855151622206,-9.674356403151633e-19,0.0015666564919569175,0.00239268711854582,0.0022630358651872465,0.0013244384182268549,6.405316809249488e-19,-0.0014979572612878285,-0.002175515858690624,-0.0019518473293287228,-0.0010817619748344342,-9.280676075956464e-19,0.0005671714701625317,0.000912761282098236,0.0009022472192129821,0.0005478921265864366,5.090491652479625e-19,-0.0008133621628348268,-0.0011488357801208546,-0.0009981000803029512,-0.0005331365506408817,-6.930446122043551e-19,9.877894113779551e-05,0.00020138999977383117,0.00023419343732233454,0.00016008017999384952,2.39424776184442e-19,-0.000469112101740317,-0.0006270915665556126,-0.0005097924005806724,-0.00025098942518167493,-4.0568335166855797e-19,0.0,0.0,0.0,0.0,0.0,0.0,0.0,0.0,0.0,0.0,0.0,0.0,0.0,0.0,0.0,0.0,0.0,0.0,0.0,0.0,0.0,0.0,0.0,0.0,0.0,0.0,0.0,0.0,0.0,0.0,0.0,0.0,0.0,0.0,0.0,0.0,0.0,0.0,0.0,0.0,0.0,0.0,0.0,0.0,0.0,0.0,0.0,0.0,0.0,0.0,0.0,0.0,0.0,0.0,0.0,0.0,0.0,0.0,0.0,0.0,0.0,0.0,0.0,0.0,0.0,0.0,0.0,0.0,0.0,0.0,0.0,0.0,0.0,0.0,0.0,0.0,0.0,0.0,0.0,0.0,0.0,0.0,0.0,0.0,0.0,0.0,0.0,0.0,0.0,0.0,0.0,0.0,0.0,0.0,0.0,0.0,0.0,0.0,0.0,0.0,0.0,0.0,0.0,0.0,0.0,0.0,0.0,0.0,0.0,0.0,0.0,0.0,0.0,0.0,0.0,0.0,0.0,0.0,0.0,0.0,0.0,0.0,0.0,0.0,0.0,0.0,0.0,0.0,0.0,0.0,0.0,0.0,0.0,0.0,0.0,0.0,0.0,0.0,0.0,0.0,0.0,0.0,0.0,0.0,0.0,0.0,0.0,0.0,0.0,0.0,0.0,0.0,0.0,0.0,0.0,0.0,0.0,0.0,0.0,0.0,0.0,0.0,0.0,0.0,0.0,0.0,0.0,0.0,0.0,0.0,0.0,0.0,0.0,0.0,0.0,0.0,0.0,0.0,0.0,0.0,0.0,0.0,0.0,0.0,0.0,0.0,0.0,0.0,0.0,0.0,0.0,0.0,0.0,0.0
0.5784866263781917,0.6371343323822386,0.6558395551651907,0.6417284225811206,0.6080071748692321,0.5698119699429954,0.5397087681938332,0.5252986871942932,0.5275787312269423,0.5420377626755899,0.5611373135077992,0.5773297006710829,0.5855698947734377,0.5845733520633224,0.5765882815597493,0.5659865771145102,0.5573435255526845,0.5537618396617234,0.5560018041128953,0.5626085715879428,0.5708358407212213,0.5778989683276557,0.582033732563605,0.5829852853752043,0.5818239790748496,0.5802613482814897,0.5798129850494995,0.5811698797886142,0.5840087211611906,0.5872634342502308,0.5896868558417581,0.590429304027482,0.5893819493845897,0.5871566275686798,0.5847399294597797,0.5829962825429006,0.5822486150067684,0.582120287110911,0.5817033387166373,0.5799781943450337,0.5763057092440432,0.5707827121750889,0.5643044835453752,0.5582879667252706,0.554134458641293,0.5526048739288701,0.5533139156474085,0.5545147870343706,0.553259650235534,0.545913550409291,0.5289040386136968,0.49923284283125846,0.45630179814698013,0.400822565664415,0.33543838621231675,0.2644520193068484,0.19290679824177626,0.12685080938792237,0.07094908956676238,0.02829033327697303,1.1866859701756843e-19,-0.015067646558911019,-0.018884088412637563,-0.01508154354920372,-0.007625057391995493,-6.416689127809252e-19,0.005098904736997067,0.007156340177589187,0.006289796551285705,0.0034546357044919936,5.038462781551865e-19,-0.0030943162978260847,-0.004459336434351851,-0.0039884044490721,-0.002212770101684745,-9.12293775803133e-19,0.0015020208885154658,0.0022961461227510426,0.002173506207349964,0.0012729288285040705,6.298217201743533e-19,-0.0014466312034200316,-0.002099976056220444,-0.001883023626213484,-0.001042948821521535,-9.075574561014992e-19,0.0005366210726184739,0.0008668300302150842,0.0008595227099774546,0.0005233095525830609,4.931235087164571e-19,-0.0007945148637360498,-0.0011195079230828433,-0.0009699504512900223,-0.0005164752679076648,-6.774400865894547e-19,9.214674265675031e-05,0.0001878683074453577,0.00021846926229687833,0.00014933210439826674,2.2334935951521564e-19,-0.00043761505861791806,-0.0005849874936906823,-0.00047556400791079137,-0.00023413753686140837,-3.7844503064861284e-19,0.0,0.0,0.0,0.0,0.0,0.0,0.0,0.0,0.0,0.0,0.0,0.0,0.0,0.0,0.0,0.0,0.0,0.0,0.0,0.0,0.0,0.0,0.0,0.0,0.0,0.0,0.0,0.0,0.0,0.0,0.0,0.0,0.0,0.0,0.0,0.0,0.0,0.0,0.0,0.0,0.0,0.0,0.0,0.0,0.0,0.0,0.0,0.0,0.0,0.0,0.0,0.0,0.0,0.0,0.0,0.0,0.0,0.0,0.0,0.0,0.0,0.0,0.0,0.0,0.0,0.0,0.0,0.0,0.0,0.0,0.0,0.0,0.0,0.0,0.0,0.0,0.0,0.0,0.0,0.0,0.0,0.0,0.0,0.0,0.0,0.0,0.0,0.0,0.0,0.0,0.0,0.0,0.0,0.0,0.0,0.0,0.0,0.0,0.0,0.0,0.0,0.0,0.0,0.0,0.0,0.0,0.0,0.0,0.0,0.0,0.0,0.0,0.0,0.0,0.0,0.0,0.0,0.0,0.0,0.0,0.0,0.0,0.0,0.0,0.0,0.0,0.0,0.0,0.0,0.0,0.0,0.0,0.0,0.0,0.0,0.0,0.0,0.0,0.0,0.0,0.0,0.0,0.0,0.0,0.0,0.0,0.0,0.0,0.0,0.0,0.0,0.0,0.0,0.0,0.0,0.0,0.0,0.0,0.0,0.0,0.0,0.0,0.0,0.0,0.0,0.0,0.0,0.0,0.0,0.0,0.0,0.0,0.0,0.0,0.0,0.0,0.0,0.0,0.0,0.0,0.0,0.0,0.0,0.0,0.0,0.0,0.0,0.0,0.0,0.0,0.0,0.0,0.0,0.0
0.5896868558417581,0.6493090515718724,0.6683953222379359,0.6543590649441211,0.6207551936954575,0.5829962825429006,0.553711885292422,0.5403597026234653,0.543547083697436,0.5582253358491235,0.5763057092440432,0.5898257156882517,0.5935811476249605,0.5864426715185425,0.5711089438873113,0.5526048739288701,0.5362187815986369,0.5256702256326281,0.5221094912382945,0.524171976832698,0.5289040386136968,0.5330918000850445,0.5344493795439963,0.5322580985166764,0.5273152904087052,0.5213321797382992,0.516106417724872,0.5128278163547902,0.5117639867020077,0.5123799574321464,0.5137603208629012,0.515098138958808,0.5160239852019813,0.5166531671161969,0.5173740075566009,0.5185188261092663,0.5201031327225693,0.5217745603398497,0.5230062472449564,0.5234492798418421,0.5232773313556314,0.5233468998797384,0.5250610624256282,0.5299365647789981,0.5389896829816647,0.5521329001255803,0.5677859125260544,0.5828491092579332,0.5930862809940299,0.5938496577696918,0.580988468895529,0.5514326761165892,0.5050264395169572,0.4433096830749296,0.3699915455413948,0.2904942344477645,0.21085371685894772,0.13787829402607396,0.07665717931155086,0.030378475233281035,6.737786262051746e-20,-0.01597196376704915,-0.01990186543889618,-0.015806682088348643,-0.007949829329979615,-5.783980952017379e-19,0.005281629322694537,0.0073750905464363345,0.006451176640153131,0.0035276676726752124,4.2618763273420356e-19,-0.0031101962359356694,-0.004476316457772075,-0.003999847191702032,-0.0022178293469991023,-8.239049221232984e-19,0.0015360468023847126,0.0023372333952467687,0.002203201282969202,0.0012856031594849215,5.834188471600465e-19,-0.0014122826505494346,-0.0020585039663404804,-0.0018542038784175657,-0.0010320889063649245,-8.460317579346737e-19,0.000570339221410573,0.0009131976589548622,0.0008988191256704367,0.0005438472870336086,4.953254178179133e-19,-0.000781923067694481,-0.001108331172166645,-0.0009667580896594663,-0.0005187375451633688,-6.656007077586675e-19,0.00010122099855803472,0.00020636885394704606,0.00023998327283582211,0.00016403775421852012,2.453439432106876e-19,-0.00048070970215780684,-0.0006425948063720853,-0.0005223957176468358,-0.00025719449866298935,-4.157128379922436e-19,0.0,0.0,0.0,0.0,0.0,0.0,0.0,0.0,0.0,0.0,0.0,0.0,0.0,0.0,0.0,0.0,0.0,0.0,0.0,0.0,0.0,0.0,0.0,0.0,0.0,0.0,0.0,0.0,0.0,0.0,0.0,0.0,0.0,0.0,0.0,0.0,0.0,0.0,0.0,0.0,0.0,0.0,0.0,0.0,0.0,0.0,0.0,0.0,0.0,0.0,0.0,0.0,0.0,0.0,0.0,0.0,0.0,0.0,0.0,0.0,0.0,0.0,0.0,0.0,0.0,0.0,0.0,0.0,0.0,0.0,0.0,0.0,0.0,0.0,0.0,0.0,0.0,0.0,0.0,0.0,0.0,0.0,0.0,0.0,0.0,0.0,0.0,0.0,0.0,0.0,0.0,0.0,0.0,0.0,0.0,0.0,0.0,0.0,0.0,0.0,0.0,0.0,0.0,0.0,0.0,0.0,0.0,0.0,0.0,0.0,0.0,0.0,0.0,0.0,0.0,0.0,0.0,0.0,0.0,0.0,0.0,0.0,0.0,0.0,0.0,0.0,0.0,0.0,0.0,0.0,0.0,0.0,0.0,0.0,0.0,0.0,0.0,0.0,0.0,0.0,0.0,0.0,0.0,0.0,0.0,0.0,0.0,0.0,0.0,0.0,0.0,0.0,0.0,0.0,0.0,0.0,0.0,0.0,0.0,0.0,0.0,0.0,0.0,0.0,0.0,0.0,0.0,0.0,0.0,0.0,0.0,0.0,0.0,0.0,0.0,0.0,0.0,0.0,0.0,0.0,0.0,0.0,0.0,0.0,0.0,0.0,0.0,0.0,0.0,0.0,0.0,0.0,0.0,0.0
0.580988468895529,0.637319080850434,0.6522401004637269,0.6330392015713581,0.5932947125385574,0.5486542275497377,0.5121928698928269,0.4920190526830671,0.48945678324714703,0.5001064061383199,0.5163199862039463,0.5302672800777722,0.5365366532637732,0.5334997951590662,0.5231798741642913,0.5099008332123346,0.49837138335498987,0.49195795560351596,0.49172347574900455,0.49645068127502817,0.5034816802207228,0.5099343373813604,0.5137855964657121,0.5144416199179102,0.5126688414944464,0.5100248784523864,0.5081000094546388,0.5079039835211187,0.5096195361652945,0.5127568480203682,0.5165680766840498,0.5204890157078099,0.5243948970283454,0.5285688378039728,0.5334276324770127,0.5391641482351118,0.5455008016933636,0.5516936167250198,0.5568088651342796,0.5601664747321802,0.5617602197861736,0.5624582202051714,0.5638604006137274,0.5678133963512421,0.5757111696011128,0.587795250123438,0.6026832795119617,0.6172956236712985,0.6272389135795404,0.6275788650097632,0.6138302804607025,0.5826383918563245,0.5336755565882613,0.4684928804262771,0.39098905037379406,0.30691514023035127,0.2227241878633533,0.14558194337781813,0.080892310986972,0.03203203795783216,-1.6711827341953193e-21,-0.01676156050357247,-0.020866781968574367,-0.016561266304062724,-0.008325214855900598,-5.072732096970763e-19,0.005564465856975599,0.007762475934596433,0.006783257974569568,0.0037055842133960626,4.1635919859790567e-19,-0.0032347908305173177,-0.004659781765881926,-0.004168285985904898,-0.002314113540465913,-8.210599215841111e-19,0.0016256482112638679,0.0024711788855046758,0.002327368160494843,0.0013569382206547508,6.095241403858257e-19,-0.0014757572518941976,-0.0021539657581241805,-0.0019430340289145007,-0.0010832165023923427,-8.795470032660082e-19,0.0006041302163019304,0.0009679809112617035,0.0009533047190227618,0.000577103393390007,5.270846798446797e-19,-0.0008334898275050816,-0.0011808297619965863,-0.0010294119228814714,-0.0005520018391607128,-7.095960155382103e-19,0.0001069427660956954,0.0002180343643265099,0.0002535489214626366,0.00017331039438616444,2.592126170019241e-19,-0.0005078830081716585,-0.0006789190686827475,-0.0005519254288888259,-0.0002717330544397444,-4.3921203534553865e-19,0.0,0.0,0.0,0.0,0.0,0.0,0.0,0.0,0.0,0.0,0.0,0.0,0.0,0.0,0.0,0.0,0.0,0.0,0.0,0.0,0.0,0.0,0.0,0.0,0.0,0.0,0.0,0.0,0.0,0.0,0.0,0.0,0.0,0.0,0.0,0.0,0.0,0.0,0.0,0.0,0.0,0.0,0.0,0.0,0.0,0.0,0.0,0.0,0.0,0.0,0.0,0.0,0.0,0.0,0.0,0.0,0.0,0.0,0.0,0.0,0.0,0.0,0.0,0.0,0.0,0.0,0.0,0.0,0.0,0.0,0.0,0.0,0.0,0.0,0.0,0.0,0.0,0.0,0.0,0.0,0.0,0.0,0.0,0.0,0.0,0.0,0.0,0.0,0.0,0.0,0.0,0.0,0.0,0.0,0.0,0.0,0.0,0.0,0.0,0.0,0.0,0.0,0.0,0.0,0.0,0.0,0.0,0.0,0.0,0.0,0.0,0.0,0.0,0.0,0.0,0.0,0.0,0.0,0.0,0.0,0.0,0.0,0.0,0.0,0.0,0.0,0.0,0.0,0.0,0.0,0.0,0.0,0.0,0.0,0.0,0.0,0.0,0.0,0.0,0.0,0.0,0.0,0.0,0.0,0.0,0.0,0.0,0.0,0.0,0.0,0.0,0.0,0.0,0.0,0.0,0.0,0.0,0.0,0.0,0.0,0.0,0.0,0.0,0.0,0.0,0.0,0.0,0.0,0.0,0.0,0.0,0.0,0.0,0.0,0.0,0.0,0.0,0.0,0.0,0.0,0.0,0.0,0.0,0.0,0.0,0.0,0.0,0.0,0.0,0.0,0.0,0.0,0.0,0.0
0.6138302804607025,0.6732679765063827,0.689280662798642,0.6697225614286416,0.6289875689274493,0.5835112404782172,0.5469743152906261,0.5274848515980831,0.525972400470129,0.5373429028805083,0.5531922004957318,0.5651183239179873,0.5674981798965473,0.5589072051371851,0.541914081893923,0.5215623101728293,0.5032530686744244,0.4908488832793728,0.48562293864208667,0.48628969855788967,0.4899324198499267,0.49334801999978656,0.4942511469557427,0.49191762140509215,0.48712216958911164,0.4815147948440955,0.47677230952655475,0.4738959629878928,0.47291084168230846,0.4730230916083738,0.4730971698382643,0.4722038398997719,0.46999479600839944,0.4667650139446663,0.4632141977895169,0.4600471254301596,0.45760872507321726,0.4557176470656532,0.45376362156572075,0.45101536457796176,0.4469970810220549,0.44176594000584246,0.43596557281502685,0.4306200589550954,0.4267318372749392,0.42481864393025814,0.4245460155864179,0.4245805402206446,0.4227205443658373,0.41628072109737074,0.40264020683846136,0.37951076946168916,0.3466398850032078,0.3045179256165259,0.2550343832196801,0.20132010341923068,0.14701938452170915,0.09681849804104659,0.054248494520905674,0.021675673648050287,1.7257210713498224e-19,-0.011661146975081887,-0.014643706643161565,-0.011712922563323406,-0.005928249548523716,-6.153046093700566e-19,0.003925699770542527,0.005519220609061428,0.004859130635840821,0.002673200330249356,4.2006646923475746e-19,-0.002425538176322458,-0.00349248321459842,-0.0031201651649225975,-0.0017287581942182122,-7.493219430126947e-19,0.001154482773719958,0.0017669384767074036,0.0016743395975309903,0.000981513483914018,4.93584785052604e-19,-0.0011262592696591285,-0.0016329427946539764,-0.0014623050618755061,-0.0008087618256359119,-7.123489186984197e-19,0.00040995601283004557,0.0006628320219554031,0.0006577477121683978,0.00040071661041013625,3.7889431952767344e-19,-0.0006116861292512335,-0.0008613991605775839,-0.0007458339184979533,-0.0003968400874803145,-5.216349656043659e-19,7.014879980884992e-05,0.00014301901412297415,0.00016631468572186306,0.00011368245468523769,1.7002977051972813e-19,-0.00033314439832863256,-0.0004453350102504393,-0.0003620338975138428,-0.00017824251544311043,-2.8809987122945605e-19,0.0,0.0,0.0,0.0,0.0,0.0,0.0,0.0,0.0,0.0,0.0,0.0,0.0,0.0,0.0,0.0,0.0,0.0,0.0,0.0,0.0,0.0,0.0,0.0,0.0,0.0,0.0,0.0,0.0,0.0,0.0,0.0,0.0,0.0,0.0,0.0,0.0,0.0,0.0,0.0,0.0,0.0,0.0,0.0,0.0,0.0,0.0,0.0,0.0,0.0,0.0,0.0,0.0,0.0,0.0,0.0,0.0,0.0,0.0,0.0,0.0,0.0,0.0,0.0,0.0,0.0,0.0,0.0,0.0,0.0,0.0,0.0,0.0,0.0,0.0,0.0,0.0,0.0,0.0,0.0,0.0,0.0,0.0,0.0,0.0,0.0,0.0,0.0,0.0,0.0,0.0,0.0,0.0,0.0,0.0,0.0,0.0,0.0,0.0,0.0,0.0,0.0,0.0,0.0,0.0,0.0,0.0,0.0,0.0,0.0,0.0,0.0,0.0,0.0,0.0,0.0,0.0,0.0,0.0,0.0,0.0,0.0,0.0,0.0,0.0,0.0,0.0,0.0,0.0,0.0,0.0,0.0,0.0,0.0,0.0,0.0,0.0,0.0,0.0,0.0,0.0,0.0,0.0,0.0,0.0,0.0,0.0,0.0,0.0,0.0,0.0,0.0,0.0,0.0,0.0,0.0,0.0,0.0,0.0,0.0,0.0,0.0,0.0,0.0,0.0,0.0,0.0,0.0,0.0,0.0,0.0,0.0,0.0,0.0,0.0,0.0,0.0,0.0,0.0,0.0,0.0,0.0,0.0,0.0,0.0,0.0,0.0,0.0,0.0,0.0,0.0,0.0,0.0,0.0
0.5095246075363074,0.5551276406452618,0.5623578898825458,0.537695530136414,0.4934364569395948,0.4439575566824843,0.40157667041612577,0.37428109630943285,0.36402866803600936,0.36754178836261875,0.37839050582866135,0.3896508746220706,0.39621848688547817,0.3960924113538008,0.3903804090245135,0.3822409572254482,0.37530715401034087,0.372233002991719,0.3738592997264634,0.3791961697928746,0.386091408622235,0.3922218781445282,0.3959822331428052,0.3969517047876111,0.3958318701225004,0.39397021030112434,0.3927281994714912,0.3929726401215829,0.39487375080142256,0.398036899587808,0.40184901198001377,0.40584492628590063,0.40991711428863054,0.41428636766126786,0.41927319927954415,0.42500422281971323,0.43121521855451417,0.43726472301704317,0.4423727988965517,0.4459932963612972,0.44815943365941263,0.4496396875025391,0.45180442806268895,0.45620839851753775,0.46400046120382105,0.4753416455402042,0.4890220766186052,0.5024154620205131,0.5118154814896319,0.5130925867142733,0.5025238574209958,0.4773430964193471,0.4373586683440416,0.3839135714142554,0.32028478617109635,0.2512619287104979,0.18219358463120178,0.118975787779803,0.06603654174540248,0.02611803424583345,-3.374875150878637e-20,-0.013609950041072242,-0.016922778766398784,-0.013416694565766475,-0.00673829639470706,-3.628141645306315e-19,0.00451304667543761,0.006288985191530278,0.005489933412126474,0.0029960959934316137,3.1749041904856e-19,-0.0026003975550538856,-0.003746303280532673,-0.003351909996044407,-0.0018615094993495417,-6.385895863930738e-19,0.0013175210944556814,0.0020009085072392636,0.0018828592950500076,0.0010969387169342572,4.845676511146597e-19,-0.001183691374012677,-0.0017294062878278815,-0.001561750790876052,-0.0008716782547658663,-6.991145596672162e-19,0.0004925379969989898,0.0007882872600282276,0.0007755932864048588,0.0004691430414552125,4.265518400746066e-19,-0.0006726417400680347,-0.0009537280317604318,-0.0008321950176174171,-0.0004467113598912476,-5.725266809884522e-19,8.755073356978298e-05,0.00017849798763504808,0.00020757265666774866,0.00014188385729801923,2.1220934895918254e-19,-0.0004157881038280587,-0.0005558100343551986,-0.0004518442709046294,-0.00022245944368101586,-3.5956930319878056e-19,0.0,0.0,0.0,0.0,0.0,0.0,0.0,0.0,0.0,0.0,0.0,0.0,0.0,0.0,0.0,0.0,0.0,0.0,0.0,0.0,0.0,0.0,0.0,0.0,0.0,0.0,0.0,0.0,0.0,0.0,0.0,0.0,0.0,0.0,0.0,0.0,0.0,0.0,0.0,0.0,0.0,0.0,0.0,0.0,0.0,0.0,0.0,0.0,0.0,0.0,0.0,0.0,0.0,0.0,0.0,0.0,0.0,0.0,0.0,0.0,0.0,0.0,0.0,0.0,0.0,0.0,0.0,0.0,0.0,0.0,0.0,0.0,0.0,0.0,0.0,0.0,0.0,0.0,0.0,0.0,0.0,0.0,0.0,0.0,0.0,0.0,0.0,0.0,0.0,0.0,0.0,0.0,0.0,0.0,0.0,0.0,0.0,0.0,0.0,0.0,0.0,0.0,0.0,0.0,0.0,0.0,0.0,0.0,0.0,0.0,0.0,0.0,0.0,0.0,0.0,0.0,0.0,0.0,0.0,0.0,0.0,0.0,0.0,0.0,0.0,0.0,0.0,0.0,0.0,0.0,0.0,0.0,0.0,0.0,0.0,0.0,0.0,0.0,0.0,0.0,0.0,0.0,0.0,0.0,0.0,0.0,0.0,0.0,0.0,0.0,0.0,0.0,0.0,0.0,0.0,0.0,0.0,0.0,0.0,0.0,0.0,0.0,0.0,0.0,0.0,0.0,0.0,0.0,0.0,0.0,0.0,0.0,0.0,0.0,0.0,0.0,0.0,0.0,0.0,0.0,0.0,0.0,0.0,0.0,0.0,0.0,0.0,0.0,0.0,0.0,0.0,0.0,0.0,0.0
0.5025238574209958,0.5538111675631827,0.5708801164481847,0.5600734703167798,0.5329136940134966,0.5024439630465161,0.4792838208709043,0.46958291263013224,0.47363344688749415,0.4869159684910837,0.5023640686720361,0.5130942615002607,0.5146704684666549,0.5062327646263375,0.4902769172895883,0.47134875764157913,0.4542486354886486,0.44242704723075466,0.4370910827821888,0.4372191727495058,0.44033344661112217,0.44363342908721687,0.44502759438445333,0.4437111982940952,0.44016375445612355,0.4356773207524166,0.43168522991934627,0.4291902982122027,0.4284987866401593,0.42930555164362394,0.4310211948937111,0.4331461117626114,0.4355060657732074,0.43825364596025723,0.44166243540453703,0.4458396834760836,0.4505175473993415,0.4550420570420877,0.4585847629983832,0.46049727477502356,0.4606581720584561,0.459653472733934,0.45868808602252015,0.45922339981947735,0.46243780057360007,0.46867565619195456,0.47706332986712063,0.48542616112446685,0.4905553371504181,0.48877664205631405,0.47669314032545307,0.45167305620577636,0.4134254081740087,0.3629944860737254,0.30320942492730196,0.23834657016272653,0.1732371908203092,0.11345015034173785,0.06317493410722418,0.025075771440573543,6.476682641910242e-20,-0.013238771882959972,-0.016519525221225642,-0.013137005969951359,-0.0066145890775396905,-5.020479727456513e-19,0.004397149020994785,0.0061461378797260345,0.00538105976028384,0.0029449193591514385,3.6328743675425344e-19,-0.0025991173293718386,-0.0037430744048361705,-0.0033466093538307724,-0.0018566439378969353,-6.969709532788352e-19,0.001287786711258205,0.0019602425105516436,0.0018484130040200136,0.0010788493840626235,4.974818560633755e-19,-0.0011854186580462995,-0.0017280129532946352,-0.0015566289337467726,-0.0008664897036019538,-7.166415323461474e-19,0.00047341155609809896,0.0007603898856341079,0.0007504043670969918,0.000455061210699389,4.196322141709081e-19,-0.0006674682917829686,-0.0009440075778446777,-0.0008213698594187742,-0.00043948031083529426,-5.685239387855752e-19,8.305045324089565e-05,0.00016932283912690074,0.00019690301284492218,0.0001345907472811169,2.0130137001043045e-19,-0.000394415775483701,-0.0005272403027011146,-0.00042861858448074816,-0.00021102458965349428,-3.4108673205313233e-19,0.0,0.0,0.0,0.0,0.0,0.0,0.0,0.0,0.0,0.0,0.0,0.0,0.0,0.0,0.0,0.0,0.0,0.0,0.0,0.0,0.0,0.0,0.0,0.0,0.0,0.0,0.0,0.0,0.0,0.0,0.0,0.0,0.0,0.0,0.0,0.0,0.0,0.0,0.0,0.0,0.0,0.0,0.0,0.0,0.0,0.0,0.0,0.0,0.0,0.0,0.0,0.0,0.0,0.0,0.0,0.0,0.0,0.0,0.0,0.0,0.0,0.0,0.0,0.0,0.0,0.0,0.0,0.0,0.0,0.0,0.0,0.0,0.0,0.0,0.0,0.0,0.0,0.0,0.0,0.0,0.0,0.0,0.0,0.0,0.0,0.0,0.0,0.0,0.0,0.0,0.0,0.0,0.0,0.0,0.0,0.0,0.0,0.0,0.0,0.0,0.0,0.0,0.0,0.0,0.0,0.0,0.0,0.0,0.0,0.0,0.0,0.0,0.0,0.0,0.0,0.0,0.0,0.0,0.0,0.0,0.0,0.0,0.0,0.0,0.0,0.0,0.0,0.0,0.0,0.0,0.0,0.0,0.0,0.0,0.0,0.0,0.0,0.0,0.0,0.0,0.0,0.0,0.0,0.0,0.0,0.0,0.0,0.0,0.0,0.0,0.0,0.0,0.0,0.0,0.0,0.0,0.0,0.0,0.0,0.0,0.0,0.0,0.0,0.0,0.0,0.0,0.0,0.0,0.0,0.0,0.0,0.0,0.0,0.0,0.0,0.0,0.0,0.0,0.0,0.0,0.0,0.0,0.0,0.0,0.0,0.0,0.0,0.0,0.0,0.0,0.0,0.0,0.0,0.0
0.47669314032545307,0.5251619208937541,0.5409071928813626,0.5298542081120846,0.5028959373633288,0.4724565855132544,0.44879017882517414,0.4379811649875841,0.4406434116367818,0.45285082625512274,0.4682200307010557,0.48043158580696543,0.4853224028116557,0.4819282584602222,0.47228438190710287,0.46023735504095553,0.4498261331966406,0.4438620935652526,0.44317838464671605,0.44671178414826307,0.45225467938085534,0.45749218041333417,0.4608895104703252,0.4621149747303461,0.4619075084476573,0.4615268720436452,0.4620700742360876,0.46395312499638414,0.46675218337019037,0.46942817685035015,0.4707990647064349,0.4700369477363052,0.4669802801345153,0.4621488009738727,0.45648257984392815,0.45093900891516664,0.44612904911704493,0.4421430488107994,0.43862607989061564,0.43505398750255486,0.43107895312389843,0.42678796378360917,0.4227552255582657,0.4198518484089271,0.41886960302297577,0.42008569196784196,0.42291936536736985,0.4258042438522616,0.4263352651218558,0.42166970637846063,0.4090924308117854,0.38636936131152083,0.3531856521190695,0.31019840882740096,0.2595283587307125,0.2045462154058927,0.1491511670199303,0.09804784661908847,0.05482776997522834,0.02185990691738843,1.1803310318418482e-19,-0.01166174673722949,-0.014616120608354228,-0.011672530147012583,-0.005900742970958248,-5.317948297943063e-19,0.00393220624067976,0.005519547434647255,0.004851912667066537,0.0026653096564469483,3.981644719717346e-19,-0.002394069994212912,-0.0034488321129537633,-0.003083235219346425,-0.001709730054290752,-7.152135465917908e-19,0.0011522256199000156,0.0017628492537802654,0.0016699688876487713,0.000978716482533348,4.864231413862269e-19,-0.001122269719212168,-0.001627145067069932,-0.001457140286010094,-0.0008059432389158666,-7.051272992772164e-19,0.0004125042239318125,0.000665255266580725,0.0006587540683374647,0.00040062121565903825,3.7521914368682316e-19,-0.0006023909231358316,-0.0008496742785501742,-0.0007370323252546102,-0.0003929816970089287,-5.134788651085801e-19,7.127291945745759e-05,0.0001453108635108215,0.00016897984330946835,0.00011550419192610077,1.7275446155379145e-19,-0.0003384829667005116,-0.00045247140939909966,-0.0003678354139869156,-0.00018109881397384566,-2.9271661060194516e-19,0.0,0.0,0.0,0.0,0.0,0.0,0.0,0.0,0.0,0.0,0.0,0.0,0.0,0.0,0.0,0.0,0.0,0.0,0.0,0.0,0.0,0.0,0.0,0.0,0.0,0.0,0.0,0.0,0.0,0.0,0.0,0.0,0.0,0.0,0.0,0.0,0.0,0.0,0.0,0.0,0.0,0.0,0.0,0.0,0.0,0.0,0.0,0.0,0.0,0.0,0.0,0.0,0.0,0.0,0.0,0.0,0.0,0.0,0.0,0.0,0.0,0.0,0.0,0.0,0.0,0.0,0.0,0.0,0.0,0.0,0.0,0.0,0.0,0.0,0.0,0.0,0.0,0.0,0.0,0.0,0.0,0.0,0.0,0.0,0.0,0.0,0.0,0.0,0.0,0.0,0.0,0.0,0.0,0.0,0.0,0.0,0.0,0.0,0.0,0.0,0.0,0.0,0.0,0.0,0.0,0.0,0.0,0.0,0.0,0.0,0.0,0.0,0.0,0.0,0.0,0.0,0.0,0.0,0.0,0.0,0.0,0.0,0.0,0.0,0.0,0.0,0.0,0.0,0.0,0.0,0.0,0.0,0.0,0.0,0.0,0.0,0.0,0.0,0.0,0.0,0.0,0.0,0.0,0.0,0.0,0.0,0.0,0.0,0.0,0.0,0.0,0.0,0.0,0.0,0.0,0.0,0.0,0.0,0.0,0.0,0.0,0.0,0.0,0.0,0.0,0.0,0.0,0.0,0.0,0.0,0.0,0.0,0.0,0.0,0.0,0.0,0.0,0.0,0.0,0.0,0.0,0.0,0.0,0.0,0.0,0.0,0.0,0.0,0.0,0.0,0.0,0.0,0.0,0.0
0.4707990647064349,0.516999342235015,0.5300233418530839,0.5157894791087946,0.4852433117081263,0.45093900891516664,0.42334684032613257,0.4087953162272513,0.40814767133961255,0.41767212864305,0.43107895312389843,0.4420195311722236,0.44618865613544945,0.4424075583726911,0.43248417077520473,0.42008569196784196,0.40916230134483256,0.40253865221911883,0.4011404877953925,0.4040282128550293,0.4090924308117854,0.41404675897844595,0.41729934264576596,0.4183950110716911,0.4179317310210095,0.4170737783002898,0.41692436481409306,0.41803753814033967,0.42025182358079977,0.422869311695323,0.4250551257887942,0.42625289361344726,0.4264270038383416,0.42603612461692025,0.4257683530624981,0.42617132557981574,0.4273497876233525,0.4288670197392372,0.4298950132552635,0.4295519261149386,0.42728752537083725,0.4231570750692386,0.4178661970484868,0.4125544842648106,0.408380527756067,0.4060413519593433,0.4053826052130065,0.40522802256070145,0.4034907542163721,0.3975486495123968,0.3847951785478494,0.36299342536888457,0.3317112401604181,0.29140740474817084,0.24394299717657011,0.1923975892739247,0.14039108649988702,0.09234983462302018,0.05167104961955255,0.020611021001408415,9.020180427013589e-20,-0.010997009788001527,-0.01378607703345314,-0.011011887853579934,-0.005567856785983188,-4.784943073918075e-19,0.0037192589291294466,0.005219974567473643,0.004587778267112024,0.002519708278342435,3.637167661826192e-19,-0.0022529727906267193,-0.0032477992057352977,-0.0029057553230269293,-0.0016126820401494591,-6.602741072088724e-19,0.0010986827117444456,0.0016791377103190456,0.0015890685763792316,0.0009304376401126041,4.603238051926865e-19,-0.0010540029872423847,-0.0015307178631932105,-0.0013732383274156204,-0.000760982168814762,-6.614559631979761e-19,0.00039180440879974616,0.0006334912904050324,0.0006286381824532222,0.0003829854572927154,3.621445174241598e-19,-0.0005846600524823636,-0.0008233340390936697,-0.0007128696803144157,-0.00037929699598791985,-4.98588618957481e-19,6.703980250584679e-05,0.00013668040632928253,0.00015894361293418793,0.00010864404424944593,1.6249404504165114e-19,-0.0003183794267434216,-0.00042559774675378267,-0.0003459885422970277,-0.0001703428008178687,-2.7533127468769554e-19,0.0,0.0,0.0,0.0,0.0,0.0,0.0,0.0,0.0,0.0,0.0,0.0,0.0,0.0,0.0,0.0,0.0,0.0,0.0,0.0,0.0,0.0,0.0,0.0,0.0,0.0,0.0,0.0,0.0,0.0,0.0,0.0,0.0,0.0,0.0,0.0,0.0,0.0,0.0,0.0,0.0,0.0,0.0,0.0,0.0,0.0,0.0,0.0,0.0,0.0,0.0,0.0,0.0,0.0,0.0,0.0,0.0,0.0,0.0,0.0,0.0,0.0,0.0,0.0,0.0,0.0,0.0,0.0,0.0,0.0,0.0,0.0,0.0,0.0,0.0,0.0,0.0,0.0,0.0,0.0,0.0,0.0,0.0,0.0,0.0,0.0,0.0,0.0,0.0,0.0,0.0,0.0,0.0,0.0,0.0,0.0,0.0,0.0,0.0,0.0,0.0,0.0,0.0,0.0,0.0,0.0,0.0,0.0,0.0,0.0,0.0,0.0,0.0,0.0,0.0,0.0,0.0,0.0,0.0,0.0,0.0,0.0,0.0,0.0,0.0,0.0,0.0,0.0,0.0,0.0,0.0,0.0,0.0,0.0,0.0,0.0,0.0,0.0,0.0,0.0,0.0,0.0,0.0,0.0,0.0,0.0,0.0,0.0,0.0,0.0,0.0,0.0,0.0,0.0,0.0,0.0,0.0,0.0,0.0,0.0,0.0,0.0,0.0,0.0,0.0,0.0,0.0,0.0,0.0,0.0,0.0,0.0,0.0,0.0,0.0,0.0,0.0,0.0,0.0,0.0,0.0,0.0,0.0,0.0,0.0,0.0,0.0,0.0,0.0,0.0,0.0,0.0,0.0,0.0
0.42728752537083725,0.469054555712793,0.4804900209168574,0.46691803473310706,0.4382800780260461,0.4060413519593433,0.37977546327468076,0.3654442926336537,0.3640365222504676,0.3723487296712201,0.3847951785478494,0.3956499467861694,0.40094869543741646,0.39948630515569755,0.3927210660153092,0.38378997548444177,0.37611403410468003,0.37214464803087804,0.37267068259986047,0.376842345413674,0.38278477242103415,0.38847726517225234,0.39252538954417154,0.39455152636047,0.39511833574301947,0.3952945629479855,0.3960971097791594,0.39805746615245846,0.40107284384686637,0.4045607293523275,0.4078043534749367,0.4103087501833423,0.41200407127406863,0.4132188862080459,0.4144583318121726,0.4161100022260516,0.41822822599537873,0.4205064544850166,0.4224586057526495,0.4237327700734225,0.42441565097716655,0.4251795959045941,0.42717798442458554,0.4316875961635288,0.43959311885911406,0.4508741606313476,0.4642668595361937,0.47722791558811645,0.48624477171670066,0.4874393143140729,0.4773326702855286,0.4533769055536363,0.4153673514455001,0.3645974409755131,0.30418381970441954,0.2386663351427643,0.17311512122341116,0.11309666017712869,0.06280767607801153,0.02485696229659861,-8.077999364078667e-21,-0.012984687082717272,-0.01615714142747024,-0.012818198132020304,-0.006441481081032669,-3.80550167774599e-19,0.004308900083515256,0.006008798156829063,0.005248996523290823,0.002866504979510175,3.204138401268909e-19,-0.0024975158617204837,-0.003597814188035278,-0.0032185244986443224,-0.001786993325251866,-6.30665522852302e-19,0.0012549678810305437,0.0019082752956970702,0.0017977520873870816,0.0010484477758422803,4.706947708250042e-19,-0.001145181127104206,-0.001670414858954185,-0.001505837384169195,-0.000838904121981439,-6.821030576149956e-19,0.0004676247651232081,0.0007483170479024078,0.000736185481920686,0.00044526442161278755,4.0462946095847184e-19,-0.0006378653654029699,-0.0009045049318083124,-0.0007893286573455453,-0.000423752332879589,-5.429119642858626e-19,8.316187345770254e-05,0.00016955000209482787,0.00019716717728382623,0.00013477131378806617,2.015714352709418e-19,-0.00039494492239984085,-0.0005279476465691351,-0.0004291936177737246,-0.0002113076995537205,-3.415443328987902e-19,0.0,0.0,0.0,0.0,0.0,0.0,0.0,0.0,0.0,0.0,0.0,0.0,0.0,0.0,0.0,0.0,0.0,0.0,0.0,0.0,0.0,0.0,0.0,0.0,0.0,0.0,0.0,0.0,0.0,0.0,0.0,0.0,0.0,0.0,0.0,0.0,0.0,0.0,0.0,0.0,0.0,0.0,0.0,0.0,0.0,0.0,0.0,0.0,0.0,0.0,0.0,0.0,0.0,0.0,0.0,0.0,0.0,0.0,0.0,0.0,0.0,0.0,0.0,0.0,0.0,0.0,0.0,0.0,0.0,0.0,0.0,0.0,0.0,0.0,0.0,0.0,0.0,0.0,0.0,0.0,0.0,0.0,0.0,0.0,0.0,0.0,0.0,0.0,0.0,0.0,0.0,0.0,0.0,0.0,0.0,0.0,0.0,0.0,0.0,0.0,0.0,0.0,0.0,0.0,0.0,0.0,0.0,0.0,0.0,0.0,0.0,0.0,0.0,0.0,0.0,0.0,0.0,0.0,0.0,0.0,0.0,0.0,0.0,0.0,0.0,0.0,0.0,0.0,0.0,0.0,0.0,0.0,0.0,0.0,0.0,0.0,0.0,0.0,0.0,0.0,0.0,0.0,0.0,0.0,0.0,0.0,0.0,0.0,0.0,0.0,0.0,0.0,0.0,0.0,0.0,0.0,0.0,0.0,0.0,0.0,0.0,0.0,0.0,0.0,0.0,0.0,0.0,0.0,0.0,0.0,0.0,0.0,0.0,0.0,0.0,0.0,0.0,0.0,0.0,0.0,0.0,0.0,0.0,0.0,0.0,0.0,0.0,0.0,0.0,0.0,0.0,0.0,0.0,0.0
0.4773326702855286,0.522989402312406,0.5346558238147949,0.5184952917490088,0.48577801653652036,0.44936422851071134,0.4199563080884638,0.40388827419805745,0.4018741768014881,0.4099096360139633,0.421395786735894,0.42973481471287117,0.4305096186721218,0.42260298525615897,0.4080431195712299,0.3908156077436992,0.3751983826078018,0.3642615108371177,0.35902489479732425,0.35846522967007793,0.3602354287515044,0.36172652099108993,0.36103575051069103,0.35750700793483464,0.35171982540549707,0.34502763651988927,0.3388983404273092,0.33434284165307265,0.33163490568945986,0.3303770061175244,0.3298198442882741,0.3292560909317401,0.32830820474203926,0.3270042372890245,0.32564381226363803,0.32454949348152723,0.32383926018205533,0.32333249738754016,0.32263114242811775,0.32133370320933957,0.31927914267478036,0.3167036185790565,0.3142283615604087,0.31266440830934783,0.31269141540182915,0.3145164025608735,0.31762818375031576,0.32073414698020825,0.3219110921091663,0.3189409118830215,0.30975366244696667,0.292631293001941,0.267508558956001,0.23493252743681636,0.19653484835258905,0.15487683122348334,0.11286575573542373,0.07415273050967247,0.04144568595599233,0.016518316562951003,1.223452651289389e-19,-0.008843556023738897,-0.011079851907291424,-0.008842697225838619,-0.004466050575910669,-4.495953346114249e-19,0.0029460338255596474,0.004133819557817487,0.003632897742465172,0.0019953439574093776,2.9494539692824764e-19,-0.001803193171906835,-0.002594331058626661,-0.0023161904590758616,-0.0012825748323547622,-5.382673463868301e-19,0.0008619157723989907,0.0013163970389603154,0.0012450756802197156,0.0007286755797261501,3.5368653930121625e-19,-0.0008234187968163709,-0.0011960552594098874,-0.0010732555118063225,-0.000594918591206069,-5.112603558182354e-19,0.0003110961497132579,0.0005011833975532057,0.0004958488006914035,0.00030132861233616855,2.8109815268090185e-19,-0.0004502211863957517,-0.0006354729298302638,-0.000551656981215874,-0.00029440220351635186,-3.8369616603315715e-19,5.396591619020281e-05,0.0001100254338035323,0.00012794694157737627,8.74566327372302e-05,1.3080497985297615e-19,-0.0002562900966007744,-0.0003425990452470486,-0.0002785149713820148,-0.00013712309656252025,-2.216370564791271e-19,0.0,0.0,0.0,0.0,0.0,0.0,0.0,0.0,0.0,0.0,0.0,0.0,0.0,0.0,0.0,0.0,0.0,0.0,0.0,0.0,0.0,0.0,0.0,0.0,0.0,0.0,0.0,0.0,0.0,0.0,0.0,0.0,0.0,0.0,0.0,0.0,0.0,0.0,0.0,0.0,0.0,0.0,0.0,0.0,0.0,0.0,0.0,0.0,0.0,0.0,0.0,0.0,0.0,0.0,0.0,0.0,0.0,0.0,0.0,0.0,0.0,0.0,0.0,0.0,0.0,0.0,0.0,0.0,0.0,0.0,0.0,0.0,0.0,0.0,0.0,0.0,0.0,0.0,0.0,0.0,0.0,0.0,0.0,0.0,0.0,0.0,0.0,0.0,0.0,0.0,0.0,0.0,0.0,0.0,0.0,0.0,0.0,0.0,0.0,0.0,0.0,0.0,0.0,0.0,0.0,0.0,0.0,0.0,0.0,0.0,0.0,0.0,0.0,0.0,0.0,0.0,0.0,0.0,0.0,0.0,0.0,0.0,0.0,0.0,0.0,0.0,0.0,0.0,0.0,0.0,0.0,0.0,0.0,0.0,0.0,0.0,0.0,0.0,0.0,0.0,0.0,0.0,0.0,0.0,0.0,0.0,0.0,0.0,0.0,0.0,0.0,0.0,0.0,0.0,0.0,0.0,0.0,0.0,0.0,0.0,0.0,0.0,0.0,0.0,0.0,0.0,0.0,0.0,0.0,0.0,0.0,0.0,0.0,0.0,0.0,0.0,0.0,0.0,0.0,0.0,0.0,0.0,0.0,0.0,0.0,0.0,0.0,0.0,0.0,0.0,0.0,0.0,0.0,0.0
0.7654916315832736,0.8353187609493694,0.8483518193500574,0.8143970822148563,0.7518687306931658,0.6821460785537033,0.622888466554175,0.5859932190745917,0.5740338562966403,0.5816831200608453,0.5988005255241333,0.6136073187488139,0.618700428158245,0.6112490450558435,0.5935009717177656,0.5711088799725859,0.5501803207833665,0.5361102822318022,0.5311921119629542,0.5346304313677505,0.5434172344210383,0.5538027105302019,0.562728332795892,0.5687148910465772,0.5719897117215754,0.5739605387378637,0.5763707545346084,0.5805293127050615,0.5869025737990912,0.5951525113397985,0.6045038430546891,0.614204930863255,0.6238509004563221,0.6334434889405368,0.6432102108523329,0.6533237333937323,0.6636996069789511,0.6739962428851478,0.6838268006606734,0.6930752133795004,0.7021436237327755,0.7119764300857768,0.7237999101478244,0.7386456805087774,0.7568352775154688,0.7776441357362873,0.7993158368088612,0.8194765997445275,0.8358495315651484,0.8470440229917099,0.8531446477397991,0.8554735562741203,0.8577206717279791,0.8631070598930928,0.8740398291193122,0.8911359585606803,0.9122096176132752,0.9334939988874855,0.9483961537329892,0.949296934664016,0.9291272693815613,0.8826491823673321,0.8088713800680151,0.7100969394689014,0.5923540392997214,0.46456363469078066,0.33683556154163885,0.21989841223086254,0.12199200326357795,0.04821450213494409,-1.9460544959878017e-19,-0.024995741685011355,-0.031051231085852435,-0.02460045325155851,-0.01234928806490214,-4.887675906956955e-19,0.008334390973708992,0.011601193820126178,0.010115405631289813,0.0055139232367426814,5.265915144033478e-19,-0.004721337827673432,-0.006811236601252338,-0.006104127563955855,-0.003396254618368698,-1.0911176566655342e-18,0.0024491111250021184,0.0037157276628197247,0.003493215236815096,0.002033347847367438,8.902647169030407e-19,-0.002169493988628832,-0.0031747237482844474,-0.0028717851968244335,-0.0016057067245785319,-1.2756787973948164e-18,0.0009149383745020541,0.0014661956029245098,0.0014441448490598151,0.0008743354468882421,7.990209023239999e-19,-0.0012639604650319513,-0.0017905028064670496,-0.0015607222261532,-0.0008367946802148949,-1.076110987582128e-18,0.0001618744519544205,0.00033002880438871406,0.0003837855911513659,0.0002623321439447421,3.923584721879243e-19,-0.0007687596515989025,-0.0010276492387160069,-0.0008354246816576721,-0.0004113100948405792,-6.6481549064968895e-19,0.0,0.0,0.0,0.0,0.0,0.0,0.0,0.0,0.0,0.0,0.0,0.0,0.0,0.0,0.0,0.0,0.0,0.0,0.0,0.0,0.0,0.0,0.0,0.0,0.0,0.0,0.0,0.0,0.0,0.0,0.0,0.0,0.0,0.0,0.0,0.0,0.0,0.0,0.0,0.0,0.0,0.0,0.0,0.0,0.0,0.0,0.0,0.0,0.0,0.0,0.0,0.0,0.0,0.0,0.0,0.0,0.0,0.0,0.0,0.0,0.0,0.0,0.0,0.0,0.0,0.0,0.0,0.0,0.0,0.0,0.0,0.0,0.0,0.0,0.0,0.0,0.0,0.0,0.0,0.0,0.0,0.0,0.0,0.0,0.0,0.0,0.0,0.0,0.0,0.0,0.0,0.0,0.0,0.0,0.0,0.0,0.0,0.0,0.0,0.0,0.0,0.0,0.0,0.0,0.0,0.0,0.0,0.0,0.0,0.0,0.0,0.0,0.0,0.0,0.0,0.0,0.0,0.0,0.0,0.0,0.0,0.0,0.0,0.0,0.0,0.0,0.0,0.0,0.0,0.0,0.0,0.0,0.0,0.0,0.0,0.0,0.0,0.0,0.0,0.0,0.0,0.0,0.0,0.0,0.0,0.0,0.0,0.0,0.0,0.0,0.0,0.0,0.0,0.0,0.0,0.0,0.0,0.0,0.0,0.0,0.0,0.0,0.0,0.0,0.0,0.0,0.0,0.0,0.0,0.0,0.0,0.0,0.0,0.0,0.0,0.0,0.0,0.0,0.0,0.0,0.0,0.0,0.0,0.0
0.9291272693815613,1.0153477526993056,1.0337087400819138,0.9961595711983914,0.9248806164633853,0.8454430356986702,0.7791328498367769,0.7394801338866325,0.7289199663111943,0.7404937196108089,0.761758802015779,0.7791501851114697,0.7839135059575143,0.7731680651262602,0.7501021283423895,0.7218177288353377,0.6959206101888536,0.6784854568746919,0.6717613479081457,0.6742357705946799,0.6818766556548965,0.690041905818108,0.6952487880312006,0.6961777658667894,0.6936722571601001,0.6899133324315332,0.6872339049496723,0.687100025229226,0.6896349371619851,0.6937847424215443,0.6979500092081699,0.7007447826934123,0.7015434816027858,0.7006155032286655,0.6988510609227525,0.6972569436818292,0.6964776355695881,0.6965547709091395,0.6970076202937597,0.6971641218687306,0.6965638781554886,0.6952340142023954,0.6937076267149308,0.692776857999915,0.6930929847323469,0.6947937488327641,0.6973278833808202,0.6995660200670022,0.7001710218846761,0.6980959371710622,0.6930236195100398,0.685099233049195,0.6766536390831426,0.6693816610724547,0.664665983492688,0.6630571331990146,0.6634256628367714,0.6644588113216254,0.6626374522201874,0.6536088185011266,0.6330906468879893,0.5974508038067099,0.5460294564975238,0.4796538196857778,0.4014531866372136,0.31654532344399466,0.23092553782310413,0.15186519722787145,0.08494864836375915,0.03387625137091856,1.5056280087327373e-19,-0.018051924095843726,-0.022626250956034447,-0.018071274109461098,-0.009136930745456129,-7.792296564504507e-19,0.006103795575185363,0.008567870766223212,0.0075315132897290915,0.0041372711246963866,6.055634189327331e-19,-0.0037141121711600656,-0.005351094529431052,-0.004784519512275579,-0.0026535624606695285,-1.0990336458473112e-18,0.0017989145843077033,0.0027491553855737653,0.0026015745829076186,0.0015232343041169044,7.514758016620817e-19,-0.0017258347119513988,-0.0025062855016408543,-0.0022483339019396063,-0.001245863775379288,-1.0812919356250812e-18,0.0006428842653610654,0.0010387177380238935,0.0010301557663005955,0.000627295884276811,5.916105782458e-19,-0.0009536656300772027,-0.0013435676457071645,-0.0011638887036687041,-0.0006196274489917631,-8.131714746037653e-19,0.00011029834650173984,0.00022487570448900124,0.00026150461424949054,0.00017874841497229422,2.673460215356431e-19,-0.0005238190301486732,-0.000700221748680039,-0.0005692433852349316,-0.00028025931709819014,-4.529933442990175e-19,0.0,0.0,0.0,0.0,0.0,0.0,0.0,0.0,0.0,0.0,0.0,0.0,0.0,0.0,0.0,0.0,0.0,0.0,0.0,0.0,0.0,0.0,0.0,0.0,0.0,0.0,0.0,0.0,0.0,0.0,0.0,0.0,0.0,0.0,0.0,0.0,0.0,0.0,0.0,0.0,0.0,0.0,0.0,0.0,0.0,0.0,0.0,0.0,0.0,0.0,0.0,0.0,0.0,0.0,0.0,0.0,0.0,0.0,0.0,0.0,0.0,0.0,0.0,0.0,0.0,0.0,0.0,0.0,0.0,0.0,0.0,0.0,0.0,0.0,0.0,0.0,0.0,0.0,0.0,0.0,0.0,0.0,0.0,0.0,0.0,0.0,0.0,0.0,0.0,0.0,0.0,0.0,0.0,0.0,0.0,0.0,0.0,0.0,0.0,0.0,0.0,0.0,0.0,0.0,0.0,0.0,0.0,0.0,0.0,0.0,0.0,0.0,0.0,0.0,0.0,0.0,0.0,0.0,0.0,0.0,0.0,0.0,0.0,0.0,0.0,0.0,0.0,0.0,0.0,0.0,0.0,0.0,0.0,0.0,0.0,0.0,0.0,0.0,0.0,0.0,0.0,0.0,0.0,0.0,0.0,0.0,0.0,0.0,0.0,0.0,0.0,0.0,0.0,0.0,0.0,0.0,0.0,0.0,0.0,0.0,0.0,0.0,0.0,0.0,0.0,0.0,0.0,0.0,0.0,0.0,0.0,0.0,0.0,0.0,0.0,0.0,0.0,0.0,0.0,0.0,0.0,0.0,0.0,0.0
0.6979500092081699,0.7694343469860287,0.7933371146148818,0.7783265816923731,0.7402792125277567,0.6972569436818292,0.6638694478005486,0.6491231230910768,0.6539847589382146,0.6728578406799719,0.6965638781554886,0.7154514598324582,0.7239260242765726,0.7207977587302231,0.7092081842836445,0.6947937488327641,0.6829749227232214,0.6775951599594924,0.6792720976565132,0.6857317029351409,0.6930236195100398,0.6971864406197472,0.6956970198248997,0.6882048313212102,0.6763806746278408,0.6630571331990146,0.651074288000891,0.6422946262041459,0.637121465554808,0.6346186940279307,0.6330906468879893,0.6308311233957299,0.6267347689651058,0.6205689098732862,0.6128704932504851,0.6045858241080185,0.5966509277530463,0.5896959471752886,0.5839680582940027,0.579452242302454,0.5760810013280476,0.5738979572563245,0.5730807907067562,0.573811386884453,0.5760646352773556,0.579434072005857,0.5831029164389553,0.5860086693073805,0.5871649495258324,0.586031037797675,0.582787142683666,0.5780356481696135,0.5739723592426718,0.5721423643733085,0.5735844214806193,0.5783900658815823,0.5850472126333852,0.5917639272872328,0.5949171371541613,0.5903051384826637,0.5739929890794985,0.5428167107281096,0.4964480619563891,0.4359625404044675,0.3645141578836375,0.28699649453974924,0.20898358792011767,0.13716557394429,0.07657464724009415,0.030478441030041395,1.683835873725631e-19,-0.016226839730987524,-0.020303615936179305,-0.01618649870143298,-0.0081681000792703,-7.400495864832205e-19,0.005408765470786177,0.007581192942831182,0.006655541042416613,0.0036518950905083288,5.136127490155629e-19,-0.0032815895173580675,-0.004721919926411617,-0.004216683948770367,-0.0023357746574838543,-9.51909669504955e-19,0.001583764597300595,0.002415812117012372,0.00228229935616835,0.001334333953366111,6.3640033599283e-19,-0.0014914884739093033,-0.0021694749188647467,-0.0019496880309817265,-0.0010825084172154747,-9.178464399983146e-19,0.0005749375898677798,0.0009255782203250063,0.0009151804260748931,0.0005558800893196074,5.171522656163753e-19,-0.0008269597209900996,-0.0011677748997075473,-0.0010142911163646192,-0.0005416248457913565,-7.046755565829031e-19,0.00010000223176612688,0.00020388403844771538,0.0002370937178253769,0.000162062632748581,2.423898422351926e-19,-0.0004749216440484819,-0.0006348575461018297,-0.0005161057327427871,-0.00025409770927642655,-4.1070738448820434e-19,0.0,0.0,0.0,0.0,0.0,0.0,0.0,0.0,0.0,0.0,0.0,0.0,0.0,0.0,0.0,0.0,0.0,0.0,0.0,0.0,0.0,0.0,0.0,0.0,0.0,0.0,0.0,0.0,0.0,0.0,0.0,0.0,0.0,0.0,0.0,0.0,0.0,0.0,0.0,0.0,0.0,0.0,0.0,0.0,0.0,0.0,0.0,0.0,0.0,0.0,0.0,0.0,0.0,0.0,0.0,0.0,0.0,0.0,0.0,0.0,0.0,0.0,0.0,0.0,0.0,0.0,0.0,0.0,0.0,0.0,0.0,0.0,0.0,0.0,0.0,0.0,0.0,0.0,0.0,0.0,0.0,0.0,0.0,0.0,0.0,0.0,0.0,0.0,0.0,0.0,0.0,0.0,0.0,0.0,0.0,0.0,0.0,0.0,0.0,0.0,0.0,0.0,0.0,0.0,0.0,0.0,0.0,0.0,0.0,0.0,0.0,0.0,0.0,0.0,0.0,0.0,0.0,0.0,0.0,0.0,0.0,0.0,0.0,0.0,0.0,0.0,0.0,0.0,0.0,0.0,0.0,0.0,0.0,0.0,0.0,0.0,0.0,0.0,0.0,0.0,0.0,0.0,0.0,0.0,0.0,0.0,0.0,0.0,0.0,0.0,0.0,0.0,0.0,0.0,0.0,0.0,0.0,0.0,0.0,0.0,0.0,0.0,0.0,0.0,0.0,0.0,0.0,0.0,0.0,0.0,0.0,0.0,0.0,0.0,0.0,0.0,0.0,0.0,0.0,0.0,0.0,0.0,0.0,0.0
0.582787142683666,0.641680885951621,0.6606964293125581,0.6472442972540081,0.6147478687845874,0.5783900658815823,0.5504819254107512,0.5382421739305825,0.5420608500637369,0.5567198691543965,0.5739929890794985,0.5855261497317142,0.5862838721393795,0.5752714338897367,0.555436129187223,0.53213098668172,0.5108621328710343,0.49579983336550687,0.48841188956512827,0.4875368037936347,0.4902689842839415,0.4932800313990532,0.4940381963291745,0.49151220248688954,0.48620250243367924,0.47961819698966857,0.47350486543598164,0.46916874099231964,0.4671417306956487,0.4672497086368236,0.46896740969539563,0.4718391980574066,0.47574880596577723,0.48091788408560426,0.48765168266220044,0.4959677392744563,0.5052926384394371,0.5143781347246316,0.5214919540593285,0.5248245217678451,0.5229680688535169,0.5153003806460401,0.5021464031975446,0.4846757648103183,0.46458706769330177,0.4436954934598147,0.42355798449816406,0.4052394957447398,0.38926188725400396,0.3757101517107445,0.36442291806611243,0.35487959526440116,0.34746582504860324,0.34197799674481716,0.3381301495688152,0.33549266279507717,0.3331020383324126,0.3305258947567268,0.32636161058257407,0.3189275595059817,0.30656240752404196,0.28767983662599556,0.26222550806486117,0.23042011109573962,0.19341793581190925,0.15328120376202098,0.11247288520059315,0.07449580584825671,0.04201252441808004,0.01690420214584933,2.3320313717112523e-19,-0.009254746816404577,-0.011701241643646186,-0.00941949848516245,-0.0047959527093195675,-6.262725363888014e-19,0.003181985363599026,0.0045022402108441505,0.003987579985311329,0.00220587408883158,4.421529976884131e-19,-0.002051799313092624,-0.0029555921480275745,-0.0026401149897906373,-0.0014617829273613405,-7.297039317619532e-19,0.0009272239843975782,0.001433281113506049,0.0013703436746701943,0.0008096822707487211,4.559125202604892e-19,-0.0010066485437860003,-0.0014452667372904758,-0.0012802920996935726,-0.0006997302061801012,-6.709010512704541e-19,0.0003163291891086933,0.0005132235336048779,0.0005107461085763236,0.0003118988999185751,2.9865482511247803e-19,-0.00048565634611661443,-0.0006824948135541788,-0.0005895221803074493,-0.0003128097126505046,-4.1439834480008545e-19,5.340992923478919e-05,0.00010889189044362905,0.00012662876085287272,8.655560574836319e-05,1.2945735402475733e-19,-0.0002536496531399514,-0.00033906939887871505,-0.00027564555487048846,-0.0001357103779735133,-2.1935362795723628e-19,0.0,0.0,0.0,0.0,0.0,0.0,0.0,0.0,0.0,0.0,0.0,0.0,0.0,0.0,0.0,0.0,0.0,0.0,0.0,0.0,0.0,0.0,0.0,0.0,0.0,0.0,0.0,0.0,0.0,0.0,0.0,0.0,0.0,0.0,0.0,0.0,0.0,0.0,0.0,0.0,0.0,0.0,0.0,0.0,0.0,0.0,0.0,0.0,0.0,0.0,0.0,0.0,0.0,0.0,0.0,0.0,0.0,0.0,0.0,0.0,0.0,0.0,0.0,0.0,0.0,0.0,0.0,0.0,0.0,0.0,0.0,0.0,0.0,0.0,0.0,0.0,0.0,0.0,0.0,0.0,0.0,0.0,0.0,0.0,0.0,0.0,0.0,0.0,0.0,0.0,0.0,0.0,0.0,0.0,0.0,0.0,0.0,0.0,0.0,0.0,0.0,0.0,0.0,0.0,0.0,0.0,0.0,0.0,0.0,0.0,0.0,0.0,0.0,0.0,0.0,0.0,0.0,0.0,0.0,0.0,0.0,0.0,0.0,0.0,0.0,0.0,0.0,0.0,0.0,0.0,0.0,0.0,0.0,0.0,0.0,0.0,0.0,0.0,0.0,0.0,0.0,0.0,0.0,0.0,0.0,0.0,0.0,0.0,0.0,0.0,0.0,0.0,0.0,0.0,0.0,0.0,0.0,0.0,0.0,0.0,0.0,0.0,0.0,0.0,0.0,0.0,0.0,0.0,0.0,0.0,0.0,0.0,0.0,0.0,0.0,0.0,0.0,0.0,0.0,0.0,0.0,0.0,0.0,0.0
0.673273123475785,0.7295182112091932,0.7330956609201542,0.6927585314777511,0.6251996492289964,0.550054674658987,0.48415434040381095,0.43893660964774056,0.41766476999589314,0.41643826260862493,0.4268362258421892,0.43891909613494884,0.44578447853319664,0.44432142376325756,0.435607664892808,0.4235753770140188,0.41269463254620586,0.40672556550401495,0.40700055699965426,0.4124345076810569,0.42031452818584847,0.42756174037818817,0.4319181432154533,0.43262878069715355,0.43044920556642186,0.42709156609392723,0.42441803375709725,0.4237354784482576,0.42544503853775995,0.4291157257282074,0.433868604002006,0.4388509330321198,0.44358091845678876,0.44803743681814934,0.4525030377340053,0.45728002568314435,0.4624427799365588,0.4677532457132234,0.4727748204189265,0.4771186046797185,0.4806914473642827,0.48381426145076223,0.48713929758689495,0.4913877887091298,0.4970134410665078,0.5039367389520188,0.5114737120210359,0.5185096000908719,0.5238719725547607,0.5267764727772392,0.527182030539755,0.5255682497341825,0.5240901262487984,0.524393055563065,0.5276957272616201,0.5342917425896413,0.5429137700114322,0.551730958911831,0.5571710251778652,0.5550434882053786,0.5414014546395276,0.5132084830384289,0.46988795030080144,0.41258596971540934,0.3445472741107386,0.2707007273197638,0.19668334977553611,0.12872693043704803,0.07161990143092854,0.02839611498665525,-2.3993210788747196e-20,-0.014873605536989156,-0.01853724045127867,-0.01472958095086948,-0.0074134395240510395,-4.2616373111007897e-19,0.004982181051359145,0.006956152688112321,0.006083217772738354,0.0033253332545751853,3.8127691082470897e-19,-0.002896442516076349,-0.004176820440045579,-0.003740280769994088,-0.0020787351391300477,-7.412416702668466e-19,0.0014643489935202477,0.002228192342249651,0.0021003644340076236,0.0012255232355399001,5.631649713710402e-19,-0.0013414173351878438,-0.0019564439410971668,-0.0017633951729220916,-0.000982170737213316,-8.095981798659195e-19,0.0005383699433154734,0.0008650264195709063,0.0008539164028544596,0.0005179602838718792,4.782806940729178e-19,-0.0007613763637689941,-0.0010765666209578404,-0.0009364556126644085,-0.000500904483903027,-6.485542730538989e-19,9.4324068020771e-05,0.00019230742725689681,0.00022363144874366122,0.00015286065645767158,2.2862685724860553e-19,-0.00044795541726038807,-0.0005988100995791207,-0.00048680105815028394,-0.00023966994726441816,-3.8738726713317555e-19,0.0,0.0,0.0,0.0,0.0,0.0,0.0,0.0,0.0,0.0,0.0,0.0,0.0,0.0,0.0,0.0,0.0,0.0,0.0,0.0,0.0,0.0,0.0,0.0,0.0,0.0,0.0,0.0,0.0,0.0,0.0,0.0,0.0,0.0,0.0,0.0,0.0,0.0,0.0,0.0,0.0,0.0,0.0,0.0,0.0,0.0,0.0,0.0,0.0,0.0,0.0,0.0,0.0,0.0,0.0,0.0,0.0,0.0,0.0,0.0,0.0,0.0,0.0,0.0,0.0,0.0,0.0,0.0,0.0,0.0,0.0,0.0,0.0,0.0,0.0,0.0,0.0,0.0,0.0,0.0,0.0,0.0,0.0,0.0,0.0,0.0,0.0,0.0,0.0,0.0,0.0,0.0,0.0,0.0,0.0,0.0,0.0,0.0,0.0,0.0,0.0,0.0,0.0,0.0,0.0,0.0,0.0,0.0,0.0,0.0,0.0,0.0,0.0,0.0,0.0,0.0,0.0,0.0,0.0,0.0,0.0,0.0,0.0,0.0,0.0,0.0,0.0,0.0,0.0,0.0,0.0,0.0,0.0,0.0,0.0,0.0,0.0,0.0,0.0,0.0,0.0,0.0,0.0,0.0,0.0,0.0,0.0,0.0,0.0,0.0,0.0,0.0,0.0,0.0,0.0,0.0,0.0,0.0,0.0,0.0,0.0,0.0,0.0,0.0,0.0,0.0,0.0,0.0,0.0,0.0,0.0,0.0,0.0,0.0,0.0,0.0,0.0,0.0,0.0,0.0,0.0,0.0,0.0,0.0
0.7150470186980628,0.7861773334365321,0.807041009368732,0.7863984748259928,0.7406742168948094,0.6888406938898252,0.6465076346975129,0.6239011669517122,0.6229912946336711,0.6388704623474805,0.6626343690815876,0.6843607796525436,0.6980224179545738,0.7017109651635858,0.6977703585009677,0.6911023710267322,0.686519821851732,0.6876261235214409,0.6950703368729388,0.7068768743761961,0.7195703729718769,0.729712918012865,0.7352131601360055,0.7359383500745739,0.7334872651781497,0.7303218140243102,0.7286766601923139,0.7296987367275072,0.7331221958074512,0.7375373886773036,0.7410732550767435,0.7421738181724589,0.7401538573570168,0.7353473131603284,0.7288484480877443,0.7220085075703365,0.715926689002814,0.7111428500674182,0.7076258459883419,0.7050119589484658,0.7029437600639294,0.7013314936543296,0.7004119278519101,0.7005844715229872,0.7021126096278455,0.7048436750239209,0.7080957326379476,0.7107907311417477,0.7118081444183536,0.710435888537092,0.7067435899839123,0.7013494130805793,0.6966429258414931,0.6944446931007774,0.6960574617307009,0.7016918728417605,0.7096996246516891,0.7178259718855242,0.7217115122457003,0.7162550173823721,0.6966401556996088,0.6590595008044307,0.6028854840482801,0.5294260523254325,0.442565528465493,0.3483200778498044,0.2535969945141674,0.16640154093002515,0.09285898362784703,0.03694076662450099,1.410714961349244e-19,-0.01957977916777559,-0.024486777660333817,-0.01951647961280055,-0.009848449053735449,-7.989484266077539e-19,0.00656183458231048,0.009194647819112552,0.008069460909719973,0.0044263042569185375,6.134960435367753e-19,-0.003961801264104366,-0.005703125586740854,-0.005095430960741519,-0.002824113370175586,-1.1374565650633978e-18,0.0019223601066888103,0.0029326330630143095,0.00277085402905506,0.001620121733692254,7.737050247226464e-19,-0.0018129568235673715,-0.0026366842762574894,-0.002369187549105074,-0.0013151990326022412,-1.1163775837126188e-18,0.0006976873213864207,0.0011231474862154764,0.0011104949905328416,0.0006744961286394295,6.274134500409641e-19,-0.0010031877571887741,-0.0014166673858868814,-0.001230506049066458,-0.0006571035530000286,-8.548384362183143e-19,0.00012137007181844549,0.0002474486814144864,0.0002877543935965979,0.0001966911440714885,2.941821601436688e-19,-0.0005763998765657846,-0.0007705098636704705,-0.0006263839190649057,-0.0003083916896565562,-4.984647229501519e-19,0.0,0.0,0.0,0.0,0.0,0.0,0.0,0.0,0.0,0.0,0.0,0.0,0.0,0.0,0.0,0.0,0.0,0.0,0.0,0.0,0.0,0.0,0.0,0.0,0.0,0.0,0.0,0.0,0.0,0.0,0.0,0.0,0.0,0.0,0.0,0.0,0.0,0.0,0.0,0.0,0.0,0.0,0.0,0.0,0.0,0.0,0.0,0.0,0.0,0.0,0.0,0.0,0.0,0.0,0.0,0.0,0.0,0.0,0.0,0.0,0.0,0.0,0.0,0.0,0.0,0.0,0.0,0.0,0.0,0.0,0.0,0.0,0.0,0.0,0.0,0.0,0.0,0.0,0.0,0.0,0.0,0.0,0.0,0.0,0.0,0.0,0.0,0.0,0.0,0.0,0.0,0.0,0.0,0.0,0.0,0.0,0.0,0.0,0.0,0.0,0.0,0.0,0.0,0.0,0.0,0.0,0.0,0.0,0.0,0.0,0.0,0.0,0.0,0.0,0.0,0.0,0.0,0.0,0.0,0.0,0.0,0.0,0.0,0.0,0.0,0.0,0.0,0.0,0.0,0.0,0.0,0.0,0.0,0.0,0.0,0.0,0.0,0.0,0.0,0.0,0.0,0.0,0.0,0.0,0.0,0.0,0.0,0.0,0.0,0.0,0.0,0.0,0.0,0.0,0.0,0.0,0.0,0.0,0.0,0.0,0.0,0.0,0.0,0.0,0.0,0.0,0.0,0.0,0.0,0.0,0.0,0.0,0.0,0.0,0.0,0.0,0.0,0.0,0.0,0.0,0.0,0.0,0.0,0.0
0.7410732550767435,0.8153261156850057,0.8379684758232108,0.8181847870864226,0.7730144239209674,0.7220085075703365,0.6810959242652821,0.6604590859791571,0.6616342972373456,0.6790157018587479,0.7029437600639294,0.7229853586652468,0.7328129409326714,0.7306730194406548,0.7194498933938599,0.7048436750239209,0.6925701534524877,0.6869339604000104,0.6890080293571869,0.6968689698788336,0.7067435899839123,0.7146511760439538,0.717870931672238,0.7157264449056927,0.709506758596619,0.7016918728417605,0.6948849458826187,0.6909001726137975,0.6903221769102335,0.6926166224205303,0.6966401556996088,0.7012627835219917,0.7058189900457355,0.7102256037213173,0.7147784776289278,0.7197860244355412,0.7252555414479075,0.7308013985580581,0.7358221403763382,0.7398558581482938,0.7429318931714738,0.745730571181876,0.7494417621315178,0.7553422411853533,0.7642363100547611,0.7759728424974804,0.7892375326312342,0.8017275018878838,0.8106815471131091,0.813612557006838,0.8090137918234873,0.7964315967942043,0.7779818015037951,0.7560584078859035,0.733377473038524,0.7122270751597705,0.6933927125925788,0.6771220221872306,0.6611884593379965,0.641997930141792,0.6154403584960536,0.5775513264223384,0.5268529431321385,0.4632029459616177,0.38873949349812664,0.3077201792480268,0.22552201183340811,0.14904890679955232,0.0837979220414728,0.03358613150456382,1.5268008076644343e-19,-0.018081466278588858,-0.022759920712124147,-0.018249757315328387,-0.00926074872235184,-8.209083805246259e-19,0.006227428647801691,0.008767076823613128,0.007726834259474666,0.004254445882877952,6.552104584958904e-19,-0.003821812101641564,-0.005517943338654026,-0.004943798908615661,-0.0027473066982607076,-1.1646951631768294e-18,0.0018718219812954582,0.0028652718304722127,0.0027152119879082157,0.0015915939332900256,8.222025870901389e-19,-0.0018134251983947282,-0.002632510621104792,-0.002360381210952488,-0.0013071159620690548,-1.1660348080173417e-18,0.0006485351578805099,0.0010578217495690809,0.0010573272308950386,0.0006480113046134039,6.322569818254008e-19,-0.0010390344396687264,-0.0014557689630926008,-0.0012531051986651115,-0.0006622527316061743,-8.87319524665473e-19,0.00010722327718192134,0.00021860626889382852,0.00025421398078331317,0.0001737649878921899,2.5989253220716205e-19,-0.0005092151863030004,-0.0006806998747378784,-0.0005533731303765054,-0.0002724458107770563,-4.403640893798247e-19,0.0,0.0,0.0,0.0,0.0,0.0,0.0,0.0,0.0,0.0,0.0,0.0,0.0,0.0,0.0,0.0,0.0,0.0,0.0,0.0,0.0,0.0,0.0,0.0,0.0,0.0,0.0,0.0,0.0,0.0,0.0,0.0,0.0,0.0,0.0,0.0,0.0,0.0,0.0,0.0,0.0,0.0,0.0,0.0,0.0,0.0,0.0,0.0,0.0,0.0,0.0,0.0,0.0,0.0,0.0,0.0,0.0,0.0,0.0,0.0,0.0,0.0,0.0,0.0,0.0,0.0,0.0,0.0,0.0,0.0,0.0,0.0,0.0,0.0,0.0,0.0,0.0,0.0,0.0,0.0,0.0,0.0,0.0,0.0,0.0,0.0,0.0,0.0,0.0,0.0,0.0,0.0,0.0,0.0,0.0,0.0,0.0,0.0,0.0,0.0,0.0,0.0,0.0,0.0,0.0,0.0,0.0,0.0,0.0,0.0,0.0,0.0,0.0,0.0,0.0,0.0,0.0,0.0,0.0,0.0,0.0,0.0,0.0,0.0,0.0,0.0,0.0,0.0,0.0,0.0,0.0,0.0,0.0,0.0,0.0,0.0,0.0,0.0,0.0,0.0,0.0,0.0,0.0,0.0,0.0,0.0,0.0,0.0,0.0,0.0,0.0,0.0,0.0,0.0,0.0,0.0,0.0,0.0,0.0,0.0,0.0,0.0,0.0,0.0,0.0,0.0,0.0,0.0,0.0,0.0,0.0,0.0,0.0,0.0,0.0,0.0,0.0,0.0,0.0,0.0,0.0,0.0,0.0,0.0
0.7067435899839123,0.7790778274296517,0.8029360685841708,0.7869393782840602,0.7470789633528997,0.7016918728417605,0.6660175733037604,0.6493457448025297,0.6530217942752441,0.671766498030425,0.6966401556996088,0.718394436063001,0.7311911659007927,0.7335238219653784,0.7280349847167411,0.7197860244355412,0.713831706345332,0.7136351137692787,0.7198513703314041,0.7306576266216599,0.7429318931714738,0.7537571593820702,0.7616049559022549,0.7667563585666551,0.770871861071906,0.7759728424974804,0.783310707391345,0.7926057616740062,0.8019537336078001,0.8084124350975409,0.8090137918234873,0.8017984163362104,0.7864868095742807,0.7645616308152389,0.7387655910026346,0.7122270751597705,0.6875366145429698,0.6660819972224822,0.6478284321906073,0.6315593657954078,0.6154403584960536,0.597684070839559,0.5770975951498939,0.5533684405572963,0.5270537979738963,0.49933589599100736,0.47166303973894685,0.4454012977053206,0.4215862567437432,0.4008102797031667,0.38323143348596117,0.3682975098867012,0.3562603562228223,0.3464603694367217,0.3381219856135709,0.33048292765268195,0.3224807599035503,0.3141074969663763,0.3045282082978658,0.2927478494808301,0.27773442181940267,0.2582408302973123,0.23438959584942945,0.20607329995976914,0.1738078048347988,0.13886721090970133,0.10286456223751932,0.06891760810372555,0.03937314502060173,0.016064088468480835,5.34486186245934e-19,-0.009187055624856905,-0.011757888196472537,-0.009565048335355788,-0.004913279496868577,-1.025771922745126e-18,0.0031592409579482422,0.004529650509142865,0.004063439504738475,0.002275081246909936,6.405889686167168e-19,-0.0023232528364044505,-0.0033242250925652654,-0.002944604328757438,-0.0016142617528668688,-1.0266932422721883e-18,0.0009084857852578194,0.001415261957122738,0.0013623589607423374,0.0008097236043467125,4.979213323587736e-19,-0.0010610687897043883,-0.0015144094508659917,-0.0013325993393534727,-0.000722864359004715,-7.3576812963024405e-19,0.0002958300400915622,0.0004838151897128074,0.00048464165215051356,0.0002975551225565784,2.929843780549565e-19,-0.00048390333327764283,-0.00067702121728376,-0.0005818103299432691,-0.00030689082647764564,-4.134082362825599e-19,4.838745864258013e-05,9.865210309848989e-05,0.00011472106435105522,7.841623932922873e-05,1.1728366716821268e-19,-0.00022979738555840924,-0.000307184576917987,-0.00024972487470773685,-0.00012294868006087922,-1.9872643070208667e-19,0.0,0.0,0.0,0.0,0.0,0.0,0.0,0.0,0.0,0.0,0.0,0.0,0.0,0.0,0.0,0.0,0.0,0.0,0.0,0.0,0.0,0.0,0.0,0.0,0.0,0.0,0.0,0.0,0.0,0.0,0.0,0.0,0.0,0.0,0.0,0.0,0.0,0.0,0.0,0.0,0.0,0.0,0.0,0.0,0.0,0.0,0.0,0.0,0.0,0.0,0.0,0.0,0.0,0.0,0.0,0.0,0.0,0.0,0.0,0.0,0.0,0.0,0.0,0.0,0.0,0.0,0.0,0.0,0.0,0.0,0.0,0.0,0.0,0.0,0.0,0.0,0.0,0.0,0.0,0.0,0.0,0.0,0.0,0.0,0.0,0.0,0.0,0.0,0.0,0.0,0.0,0.0,0.0,0.0,0.0,0.0,0.0,0.0,0.0,0.0,0.0,0.0,0.0,0.0,0.0,0.0,0.0,0.0,0.0,0.0,0.0,0.0,0.0,0.0,0.0,0.0,0.0,0.0,0.0,0.0,0.0,0.0,0.0,0.0,0.0,0.0,0.0,0.0,0.0,0.0,0.0,0.0,0.0,0.0,0.0,0.0,0.0,0.0,0.0,0.0,0.0,0.0,0.0,0.0,0.0,0.0,0.0,0.0,0.0,0.0,0.0,0.0,0.0,0.0,0.0,0.0,0.0,0.0,0.0,0.0,0.0,0.0,0.0,0.0,0.0,0.0,0.0,0.0,0.0,0.0,0.0,0.0,0.0,0.0,0.0,0.0,0.0,0.0,0.0,0.0,0.0,0.0,0.0,0.0
0.8090137918234873,0.880157613876878,0.8912203502688504,0.8532032895668005,0.7859917493087896,0.7122270751597705,0.6510663160613792,0.6134498493211019,0.6005450535665084,0.6051520180669058,0.6154403584960536,0.6196033181790673,0.6095662176913068,0.5831807471314365,0.5440149881988905,0.49933589599100736,0.4572224808013477,0.42376433715342615,0.40150615124971034,0.38926407285590436,0.38323143348596117,0.3787581491512582,0.3720702410753897,0.36134297889475864,0.34687526623571446,0.33048292765268195,0.3144920267106928,0.30078880595780455,0.2902722107075971,0.28283090418579415,0.27773442181940267,0.2741798788734808,0.27171660125310276,0.27036854237815217,0.2704315356051472,0.27206741919518557,0.2748937058268423,0.2777551633388428,0.27877992116955447,0.2757099514519415,0.26640041657096847,0.24933593998684994,0.22402154585472506,0.19115700865402746,0.152569646422827,0.11093801468976293,0.06937427584720829,0.030945798052356192,-0.0017854780180635477,-0.027135671102396675,-0.04452438719144263,-0.0549256200867266,-0.05909451635697255,-0.05929225335993319,-0.0579771310629322,-0.057194786262398226,-0.058489983836440454,-0.06131475252395413,-0.06497982313999327,-0.06827990733720408,-0.06986518533335381,-0.0689507699639322,-0.06441043190729123,-0.056509681289048076,-0.04622472116619587,-0.03493259266667691,-0.024299972806928027,-0.014980531912041597,-0.007713845172888745,-0.0027763139380552783,4.0694185963786034e-19,0.0009054448169446292,0.0009297104931811533,0.0005976167949895833,0.0002393141729353375,-5.472096686884903e-19,-0.00027284507318664194,-0.00030728716710671676,-0.00020557184206178563,-7.926633342526454e-05,2.5164487770601027e-19,-0.0001268432566133527,-0.00017047142106440876,-0.00013617816372390448,-6.386875756708211e-05,-3.1648414856200534e-19,-0.00011236048772764163,-0.00014145093436270764,-0.0001077598560360203,-4.939188781199512e-05,7.711847827326968e-20,-0.00011275916184997042,-0.00013221316790587047,-8.782910740719391e-05,-3.026232863001673e-05,-1.423074816740639e-19,-6.537874624167153e-05,-0.00010327804032695136,-0.00010048436261121912,-6.0203516327742436e-05,-5.179354451829984e-20,7.880312624530375e-05,0.00011292726424345326,9.970969050203073e-05,5.423357866013074e-05,6.687366009671483e-20,-1.2172055389202317e-05,-2.4816324247279973e-05,-2.8858534603023946e-05,-1.9725913187108076e-05,-2.950316741297109e-20,5.7806435464445646e-05,7.727348759052426e-05,6.281927367702945e-05,3.0928223670201405e-05,4.999041465830733e-20,0.0,0.0,0.0,0.0,0.0,0.0,0.0,0.0,0.0,0.0,0.0,0.0,0.0,0.0,0.0,0.0,0.0,0.0,0.0,0.0,0.0,0.0,0.0,0.0,0.0,0.0,0.0,0.0,0.0,0.0,0.0,0.0,0.0,0.0,0.0,0.0,0.0,0.0,0.0,0.0,0.0,0.0,0.0,0.0,0.0,0.0,0.0,0.0,0.0,0.0,0.0,0.0,0.0,0.0,0.0,0.0,0.0,0.0,0.0,0.0,0.0,0.0,0.0,0.0,0.0,0.0,0.0,0.0,0.0,0.0,0.0,0.0,0.0,0.0,0.0,0.0,0.0,0.0,0.0,0.0,0.0,0.0,0.0,0.0,0.0,0.0,0.0,0.0,0.0,0.0,0.0,0.0,0.0,0.0,0.0,0.0,0.0,0.0,0.0,0.0,0.0,0.0,0.0,0.0,0.0,0.0,0.0,0.0,0.0,0.0,0.0,0.0,0.0,0.0,0.0,0.0,0.0,0.0,0.0,0.0,0.0,0.0,0.0,0.0,0.0,0.0,0.0,0.0,0.0,0.0,0.0,0.0,0.0,0.0,0.0,0.0,0.0,0.0,0.0,0.0,0.0,0.0,0.0,0.0,0.0,0.0,0.0,0.0,0.0,0.0,0.0,0.0,0.0,0.0,0.0,0.0,0.0,0.0,0.0,0.0,0.0,0.0,0.0,0.0,0.0,0.0,0.0,0.0,0.0,0.0,0.0,0.0,0.0,0.0,0.0,0.0,0.0,0.0,0.0,0.0,0.0,0.0,0.0,0.0
0.8513511849433364,0.9294522632754211,0.9445384987471743,0.9074120559732285,0.8384160523549157,0.7612101293929636,0.6955952086791531,0.6547212834998004,0.6416107125659501,0.6506604984630808,0.6710690738425908,0.6905478391849637,0.7011443417662343,0.6998662670071508,0.688996150575086,0.674204154707657,0.6614595383739018,0.655516549073407,0.657746378970312,0.666312367425287,0.6773392355727234,0.6866547795567075,0.6913710893617715,0.6907422773382115,0.6860909605534343,0.6799775457271607,0.6750463978348591,0.6730387932302123,0.6743212433868486,0.6780220886268529,0.6826158558815979,0.6866440512690719,0.689258874059938,0.6904027803720871,0.6906219183701438,0.6906697848833159,0.6911251363037648,0.6922070220341491,0.6938500391565542,0.6959656322740756,0.6987237138850338,0.7026814272559282,0.7086617037230105,0.7174065000824268,0.7291430714705919,0.7432568773020366,0.7582379822377908,0.7719694040987297,0.7822944438340075,0.7876862932451785,0.7877900407190392,0.783196789633232,0.7769050537806023,0.7715003670302459,0.7691543002921613,0.770863053976573,0.7754827070205431,0.781026444561632,0.7829659232516385,0.7757409112141223,0.7539360672341067,0.7131767721666926,0.6524737264201406,0.5730571793568933,0.4790495196844308,0.37696803361705333,0.2743817706907449,0.17994665572434543,0.10034030541592998,0.039876875063583936,3.4907493800784244e-20,-0.021032010694052958,-0.026270551790766913,-0.020915654013160374,-0.010545077137132125,-7.0890405360936675e-19,0.0070695926034046105,0.009889958419065363,0.00866521507451875,0.004745262828151846,5.889445146128677e-19,-0.0041781309962327495,-0.006023545912098537,-0.005391449014834047,-0.002994414358599297,-1.1230053625740414e-18,0.002088561916880099,0.0031804883436020726,0.0030000529126578725,0.0017514814281848912,8.219658810139776e-19,-0.0019245044963493302,-0.0028058198624407804,-0.0025278425066898374,-0.0014072328434379241,-1.1752948734920818e-18,0.00075906245276894,0.0012236630482035434,0.001211295998854671,0.0007364419508854685,6.8869437711590935e-19,-0.0011046596499392188,-0.0015585326003872881,-0.0013523184597456562,-0.0007212938699852271,-9.41545102171158e-19,0.00013135228263553775,0.00026780036175283006,0.00031142106015936066,0.00021286821669375447,3.1837748521173342e-19,-0.0006238064982857781,-0.0008338812680090364,-0.0006779015315937626,-0.0003337556926127043,-5.394614849592816e-19,0.0,0.0,0.0,0.0,0.0,0.0,0.0,0.0,0.0,0.0,0.0,0.0,0.0,0.0,0.0,0.0,0.0,0.0,0.0,0.0,0.0,0.0,0.0,0.0,0.0,0.0,0.0,0.0,0.0,0.0,0.0,0.0,0.0,0.0,0.0,0.0,0.0,0.0,0.0,0.0,0.0,0.0,0.0,0.0,0.0,0.0,0.0,0.0,0.0,0.0,0.0,0.0,0.0,0.0,0.0,0.0,0.0,0.0,0.0,0.0,0.0,0.0,0.0,0.0,0.0,0.0,0.0,0.0,0.0,0.0,0.0,0.0,0.0,0.0,0.0,0.0,0.0,0.0,0.0,0.0,0.0,0.0,0.0,0.0,0.0,0.0,0.0,0.0,0.0,0.0,0.0,0.0,0.0,0.0,0.0,0.0,0.0,0.0,0.0,0.0,0.0,0.0,0.0,0.0,0.0,0.0,0.0,0.0,0.0,0.0,0.0,0.0,0.0,0.0,0.0,0.0,0.0,0.0,0.0,0.0,0.0,0.0,0.0,0.0,0.0,0.0,0.0,0.0,0.0,0.0,0.0,0.0,0.0,0.0,0.0,0.0,0.0,0.0,0.0,0.0,0.0,0.0,0.0,0.0,0.0,0.0,0.0,0.0,0.0,0.0,0.0,0.0,0.0,0.0,0.0,0.0,0.0,0.0,0.0,0.0,0.0,0.0,0.0,0.0,0.0,0.0,0.0,0.0,0.0,0.0,0.0,0.0,0.0,0.0,0.0,0.0,0.0,0.0,0.0,0.0,0.0,0.0,0.0,0.0
0.7877900407190392,0.8647437719030193,0.8874969471135613,0.8666699330557047,0.8208916000024195,0.770863053976573,0.7332404370265834,0.7168515159217052,0.7210544533572147,0.737493718182376,0.7539360672341067,0.7587111561225492,0.7448066185727213,0.7114452361448249,0.6637088458877063,0.6102509041868796,0.5600977674948636,0.5199741130464199,0.4925137096599918,0.47618975406037695,0.4665657411396524,0.45827140933692173,0.44692713456834987,0.4303834585973577,0.40898324178050316,0.38494108876779404,0.361222627622343,0.34040775972807086,0.32393215103592954,0.3118866037601189,0.30331643639593575,0.2967954010064233,0.2910005448013797,0.2850802034688089,0.2787380106395628,0.27208614700160116,0.2653986835925895,0.25890042515111017,0.2526723551486491,0.24667810761945583,0.24085585760726663,0.2352006605434055,0.2297845620633253,0.22470716424519724,0.22001138548386664,0.2156172232809764,0.21131438447533635,0.20682211818876034,0.20188983742466304,0.1963925199791246,0.1903785889546862,0.18364629376914726,0.17722814134297488,0.17126428199308366,0.16572624153383303,0.16048131575245633,0.1549505050175664,0.14964979742447299,0.14418573097739748,0.13802038402876537,0.1305840425502265,0.12100338487310403,0.10969575466496692,0.09650875707607903,0.08154697370291614,0.06529202127511324,0.048304138988170126,0.03231447253911804,0.018432298220176814,0.007508810747625737,2.51878613282113e-19,-0.004344920971501195,-0.005547159945969724,-0.004497129379833726,-0.002300057177740753,-5.094049807374173e-19,0.0014497704756539923,0.0020679408246674653,0.001845842109646282,0.0010286081050334597,2.4783418371694676e-19,-0.0010112443890072952,-0.0014512973724251058,-0.001290340532101121,-0.0007104822099876105,-4.070663744525359e-19,0.0004271029699088871,0.0006609510891462979,0.000632487378715857,0.0003739652159403951,2.1843875058163747e-19,-0.0004648742906732048,-0.000667675992971988,-0.0005916447977205859,-0.0003234355698812799,-3.163389564401598e-19,0.00014086790586112486,0.0002310986286746296,0.00023207691549472918,0.00014278100427805716,1.4205831994316768e-19,-0.0002359528847129212,-0.00032959224795341493,-0.00028271770440078904,-0.0001488046939086763,-2.0166753409135783e-19,2.2750618799382053e-05,4.638384520107969e-05,5.3939084145524885e-05,3.686942895344556e-05,5.514395833116912e-20,-0.00010804520151701899,-0.00014443079687513692,-0.00011741462743818576,-5.780751108699058e-05,-9.343638614420752e-20,0.0,0.0,0.0,0.0,0.0,0.0,0.0,0.0,0.0,0.0,0.0,0.0,0.0,0.0,0.0,0.0,0.0,0.0,0.0,0.0,0.0,0.0,0.0,0.0,0.0,0.0,0.0,0.0,0.0,0.0,0.0,0.0,0.0,0.0,0.0,0.0,0.0,0.0,0.0,0.0,0.0,0.0,0.0,0.0,0.0,0.0,0.0,0.0,0.0,0.0,0.0,0.0,0.0,0.0,0.0,0.0,0.0,0.0,0.0,0.0,0.0,0.0,0.0,0.0,0.0,0.0,0.0,0.0,0.0,0.0,0.0,0.0,0.0,0.0,0.0,0.0,0.0,0.0,0.0,0.0,0.0,0.0,0.0,0.0,0.0,0.0,0.0,0.0,0.0,0.0,0.0,0.0,0.0,0.0,0.0,0.0,0.0,0.0,0.0,0.0,0.0,0.0,0.0,0.0,0.0,0.0,0.0,0.0,0.0,0.0,0.0,0.0,0.0,0.0,0.0,0.0,0.0,0.0,0.0,0.0,0.0,0.0,0.0,0.0,0.0,0.0,0.0,0.0,0.0,0.0,0.0,0.0,0.0,0.0,0.0,0.0,0.0,0.0,0.0,0.0,0.0,0.0,0.0,0.0,0.0,0.0,0.0,0.0,0.0,0.0,0.0,0.0,0.0,0.0,0.0,0.0,0.0,0.0,0.0,0.0,0.0,0.0,0.0,0.0,0.0,0.0,0.0,0.0,0.0,0.0,0.0,0.0,0.0,0.0,0.0,0.0,0.0,0.0,0.0,0.0,0.0,0.0,0.0,0.0
0.8318155725949492,0.9032066969513879,0.9109717225984246,0.8660796228929448,0.7890415379216222,0.7036916297219479,0.6301676060777401,0.581614456381285,0.5610368944075171,0.5626981333258029,0.5755676868489467,0.5872330233135086,0.5893641236816637,0.5787583252952557,0.5576653036087066,0.5319629390079607,0.5081417586329501,0.49149486839903694,0.4839751898428304,0.48417243264745713,0.4883581911669748,0.4921790971076987,0.49228783519310665,0.4873403540301498,0.4781117845969646,0.46684585322154476,0.4562124514075917,0.44832429480982705,0.44415712863066703,0.4434997315108552,0.4453335152761147,0.44839732861287895,0.45167451367801686,0.45463187758133095,0.45718594947081115,0.4594992229437183,0.46176503384002976,0.4641099283365667,0.46665250968134914,0.4696577181805672,0.473664930611322,0.47947458315858615,0.48794608695785036,0.49965644393020797,0.5145491396094778,0.5317297133061751,0.5495244453103861,0.5658264704655861,0.5786449504392334,0.5866894132731291,0.5897944960010282,0.5886027960048432,0.5859452147932034,0.5841096832193109,0.5849336046964765,0.5891943269363502,0.595818647994286,0.6031541248429046,0.6074143676653756,0.6040233474696721,0.5885941578716725,0.5576383622429647,0.5105043467584787,0.4483102795408481,0.3744774686364741,0.29429707893583623,0.21383648175021572,0.13994854155725572,0.07785482517498449,0.03086281642529517,-3.954244997660024e-20,-0.01617399862848187,-0.020150451433543035,-0.01600370411283067,-0.008050042034807001,-4.541779968020151e-19,0.005400624673059809,0.007534893348545846,0.00658456007772143,0.003596870739777335,3.837012091954982e-19,-0.003117020103739137,-0.004496213705443199,-0.004027929777916947,-0.0022397482580787872,-7.686734572886988e-19,0.0015972084519037246,0.002425894931379057,0.0022828133578803745,0.0013298928541443655,5.994601546043984e-19,-0.0014278693129032606,-0.0020880520043954328,-0.0018873428165863404,-0.001054356965349898,-8.535095237172889e-19,0.0005882008029671521,0.0009463461677933042,0.0009352315750895583,0.0005678132857939882,5.270062884890898e-19,-0.0008415276148540129,-0.0011888341582459454,-0.0010330634167739002,-0.0005519419436359638,-7.170073683328534e-19,0.00010254607723704978,0.00020907041757784947,0.0002431248810266628,0.00016618516368656496,2.485557276507272e-19,-0.0004870026471613061,-0.0006510069806175435,-0.0005292343720498125,-0.00026056141809070965,-4.2115491252286123e-19,0.0,0.0,0.0,0.0,0.0,0.0,0.0,0.0,0.0,0.0,0.0,0.0,0.0,0.0,0.0,0.0,0.0,0.0,0.0,0.0,0.0,0.0,0.0,0.0,0.0,0.0,0.0,0.0,0.0,0.0,0.0,0.0,0.0,0.0,0.0,0.0,0.0,0.0,0.0,0.0,0.0,0.0,0.0,0.0,0.0,0.0,0.0,0.0,0.0,0.0,0.0,0.0,0.0,0.0,0.0,0.0,0.0,0.0,0.0,0.0,0.0,0.0,0.0,0.0,0.0,0.0,0.0,0.0,0.0,0.0,0.0,0.0,0.0,0.0,0.0,0.0,0.0,0.0,0.0,0.0,0.0,0.0,0.0,0.0,0.0,0.0,0.0,0.0,0.0,0.0,0.0,0.0,0.0,0.0,0.0,0.0,0.0,0.0,0.0,0.0,0.0,0.0,0.0,0.0,0.0,0.0,0.0,0.0,0.0,0.0,0.0,0.0,0.0,0.0,0.0,0.0,0.0,0.0,0.0,0.0,0.0,0.0,0.0,0.0,0.0,0.0,0.0,0.0,0.0,0.0,0.0,0.0,0.0,0.0,0.0,0.0,0.0,0.0,0.0,0.0,0.0,0.0,0.0,0.0,0.0,0.0,0.0,0.0,0.0,0.0,0.0,0.0,0.0,0.0,0.0,0.0,0.0,0.0,0.0,0.0,0.0,0.0,0.0,0.0,0.0,0.0,0.0,0.0,0.0,0.0,0.0,0.0,0.0,0.0,0.0,0.0,0.0,0.0,0.0,0.0,0.0,0.0,0.0,0.0
0.5897944960010282,0.6485060697604125,0.667333237325091,0.6542491607329253,0.6231078737988385,0.5891943269363502,0.5646604477688479,0.5557452438179095,0.5615984313727761,0.5756613393055449,0.5885941578716725,0.5916299553014605,0.5796565745936367,0.5523592003489055,0.5138849735120314,0.47105858978683424,0.43091368522533696,0.39864118177696395,0.37621822277961325,0.36236514516978663,0.353523021701996,0.34539804950590997,0.3344766686358838,0.31902031961484983,0.2993054535280014,0.27716933499133556,0.25514522828868613,0.23555479165464793,0.21986530403382307,0.2084629103647407,0.20081564828067508,0.19587093897398758,0.19248941995367388,0.18975791486389668,0.18711433234247804,0.18430942230722516,0.18128672310446195,0.17806781520996887,0.17469510573551522,0.17123455109067615,0.16780319633377525,0.16457728254907128,0.16175543066725767,0.15948382533286493,0.15777729387273862,0.15647761315773895,0.1552754439278809,0.1537935558389732,0.15170116015118476,0.14881540930900536,0.14515202998170265,0.14060563270646106,0.13604349674762173,0.13168646410342708,0.12762163160930315,0.12382625729770153,0.11989119073923996,0.116196816318986,0.11239115259766945,0.10799318029358666,0.10250048461370041,0.09519384573017017,0.08639161298513223,0.07599795292077859,0.06414042074604738,0.051250242306850206,0.03781731607046658,0.025220564650693313,0.014336481909823898,0.005819167892843086,1.7146526572119533e-19,-0.0033400246707296927,-0.004250583495734766,-0.0034356639009554017,-0.0017522603143039937,-3.6422577890831526e-19,0.0011064756266902622,0.0015723048167710276,0.0013983589894651502,0.0007766026259052243,1.6787987605828164e-19,-0.0007452014104729445,-0.0010711148528588198,-0.0009542041819772607,-0.0005266579676003885,-2.806092408428406e-19,0.0003280139533966978,0.0005058942660861555,0.0004826515255445061,0.00028461853469126017,1.6046305522774194e-19,-0.0003447395525932919,-0.0004966727918163584,-0.0004416357340998021,-0.00024235169380478361,-2.309521536042975e-19,0.00010982640534974285,0.00017987676790169268,0.00018039683060462987,0.00011086493479220622,1.0969821701283337e-19,-0.00018166439996692034,-0.000253972023972644,-0.00021806457955255513,-0.00011490633599957551,-1.552317065109391e-19,1.7857843934501304e-05,3.640848084120895e-05,4.2338881202953516e-05,2.8940246153774885e-05,4.3284633727650917e-20,-8.480887326963945e-05,-0.00011336933965074879,-9.216329942092339e-05,-4.5375359691819534e-05,-7.334184693087909e-20,0.0,0.0,0.0,0.0,0.0,0.0,0.0,0.0,0.0,0.0,0.0,0.0,0.0,0.0,0.0,0.0,0.0,0.0,0.0,0.0,0.0,0.0,0.0,0.0,0.0,0.0,0.0,0.0,0.0,0.0,0.0,0.0,0.0,0.0,0.0,0.0,0.0,0.0,0.0,0.0,0.0,0.0,0.0,0.0,0.0,0.0,0.0,0.0,0.0,0.0,0.0,0.0,0.0,0.0,0.0,0.0,0.0,0.0,0.0,0.0,0.0,0.0,0.0,0.0,0.0,0.0,0.0,0.0,0.0,0.0,0.0,0.0,0.0,0.0,0.0,0.0,0.0,0.0,0.0,0.0,0.0,0.0,0.0,0.0,0.0,0.0,0.0,0.0,0.0,0.0,0.0,0.0,0.0,0.0,0.0,0.0,0.0,0.0,0.0,0.0,0.0,0.0,0.0,0.0,0.0,0.0,0.0,0.0,0.0,0.0,0.0,0.0,0.0,0.0,0.0,0.0,0.0,0.0,0.0,0.0,0.0,0.0,0.0,0.0,0.0,0.0,0.0,0.0,0.0,0.0,0.0,0.0,0.0,0.0,0.0,0.0,0.0,0.0,0.0,0.0,0.0,0.0,0.0,0.0,0.0,0.0,0.0,0.0,0.0,0.0,0.0,0.0,0.0,0.0,0.0,0.0,0.0,0.0,0.0,0.0,0.0,0.0,0.0,0.0,0.0,0.0,0.0,0.0,0.0,0.0,0.0,0.0,0.0,0.0,0.0,0.0,0.0,0.0,0.0,0.0,0.0,0.0,0.0,0.0
0.627396317032353,0.6847614037728451,0.6956319299364543,0.6680023714471951,0.6169050444477435,0.5598108715433736,0.5113711746955594,0.4812116929423345,0.4714624117771959,0.47784590734953647,0.4922254260543944,0.5054179005580043,0.511396084664437,0.5078859358953931,0.4966109423669976,0.48192696597737344,0.4685728598403576,0.4604684601747181,0.4591170927464194,0.46365384199702314,0.4716285059003525,0.4802134211640336,0.4873110072912969,0.49215966120920757,0.49529378570352683,0.497987770828497,0.5014966907049159,0.5064394608630837,0.5125604610219658,0.518915783464541,0.5243470357566414,0.5280025141230079,0.5296749530116713,0.5298298153194065,0.529343997679134,0.529096661403972,0.5296032428264493,0.5308470576725489,0.5323638064274299,0.5335200021457585,0.5338462870513028,0.5332718117833367,0.5321578404667809,0.5311213591281124,0.5307317279575345,0.531217227378267,0.532313503635274,0.5333267887709222,0.5333967715725392,0.5318622636779818,0.5285881677052315,0.5237977858384464,0.5192196751950975,0.5161338161038588,0.5155212574483304,0.5176443033135171,0.5214361013350894,0.5254909943915318,0.526782615196481,0.5216827122219291,0.5067004389218026,0.4790122175776939,0.4380809954080235,0.38474953285011526,0.3217402602021948,0.2533502194609013,0.1845681720973341,0.12118342238582624,0.06766554797927626,0.02693275773112639,7.477615689437294e-20,-0.014259821689534921,-0.017841989601513154,-0.014228840603962213,-0.007185284949341106,-5.449582594839067e-19,0.004814193183667555,0.006748277433135604,0.005924199618909783,0.0032503204953906496,4.536706469967346e-19,-0.002899862241672579,-0.004177856125222673,-0.0037358900824089446,-0.002072434530985075,-8.335463126802132e-19,0.0014141481965042361,0.002159262187170939,0.0020417802544980754,0.0011946759848582697,5.79146228819243e-19,-0.001346051701255234,-0.0019559947924701736,-0.0017559301171119288,-0.0009737802523333314,-8.354256459888768e-19,0.000509995109255828,0.0008220843683798842,0.0008137227773478504,0.0004946989856413737,4.6248810725798925e-19,-0.0007416970649550465,-0.0010464921217698876,-0.0009080799466653299,-0.0004843797259471089,-6.321688312170547e-19,8.827838613554618e-05,0.0001799815219629779,0.00020929783668678517,0.00014306308388577817,2.1397306550332793e-19,-0.0004192438062331466,-0.0005604294884829375,-0.0004555996436998454,-0.00022430835091882587,-3.625577593244364e-19,0.0,0.0,0.0,0.0,0.0,0.0,0.0,0.0,0.0,0.0,0.0,0.0,0.0,0.0,0.0,0.0,0.0,0.0,0.0,0.0,0.0,0.0,0.0,0.0,0.0,0.0,0.0,0.0,0.0,0.0,0.0,0.0,0.0,0.0,0.0,0.0,0.0,0.0,0.0,0.0,0.0,0.0,0.0,0.0,0.0,0.0,0.0,0.0,0.0,0.0,0.0,0.0,0.0,0.0,0.0,0.0,0.0,0.0,0.0,0.0,0.0,0.0,0.0,0.0,0.0,0.0,0.0,0.0,0.0,0.0,0.0,0.0,0.0,0.0,0.0,0.0,0.0,0.0,0.0,0.0,0.0,0.0,0.0,0.0,0.0,0.0,0.0,0.0,0.0,0.0,0.0,0.0,0.0,0.0,0.0,0.0,0.0,0.0,0.0,0.0,0.0,0.0,0.0,0.0,0.0,0.0,0.0,0.0,0.0,0.0,0.0,0.0,0.0,0.0,0.0,0.0,0.0,0.0,0.0,0.0,0.0,0.0,0.0,0.0,0.0,0.0,0.0,0.0,0.0,0.0,0.0,0.0,0.0,0.0,0.0,0.0,0.0,0.0,0.0,0.0,0.0,0.0,0.0,0.0,0.0,0.0,0.0,0.0,0.0,0.0,0.0,0.0,0.0,0.0,0.0,0.0,0.0,0.0,0.0,0.0,0.0,0.0,0.0,0.0,0.0,0.0,0.0,0.0,0.0,0.0,0.0,0.0,0.0,0.0,0.0,0.0,0.0,0.0,0.0,0.0,0.0,0.0,0.0,0.0
0.5664388816970897,0.6195525109862141,0.6313302372892045,0.6089112159858162,0.5657001196175407,0.5172454289010329,0.4765630919900902,0.45212137128813257,0.4457113835799416,0.45344379164528537,0.468051976104976,0.4814481869695131,0.4883368577228095,0.48679277016648703,0.4784140463853787,0.46707902687989244,0.45696501301477377,0.45145902889424944,0.4518413190300451,0.4573864702732311,0.46610607765480894,0.47582017631491036,0.4850770348538541,0.49357072540031827,0.501954867541569,0.5112087905406953,0.5218780127774141,0.5335303753187699,0.5446510815686231,0.5530054510179198,0.5563115034265819,0.5529573289866594,0.5425033870270245,0.5258128165914665,0.5048026348253034,0.48194228414234885,0.45969435786135693,0.44007816336383726,0.42445743431812694,0.4135498423224827,0.40757306485811584,0.40641062798246286,0.4097059852205475,0.416856360862252,0.42694605082038845,0.43870070098059816,0.45054233456755816,0.460782323205306,0.4679259327715834,0.4710050054308393,0.4698283371030805,0.46476214276103356,0.45769715301175645,0.45023174219581363,0.4437743077906294,0.4391458183223254,0.43600609092119147,0.43374369000714474,0.43024171551269436,0.42274593479204975,0.40846329954157035,0.3849685335171537,0.3516799143198231,0.30898629222514895,0.2587722915812364,0.20423164977078517,0.14916003609561396,0.09821867227595903,0.05501569640905184,0.021970520064686087,1.4389696439406468e-19,-0.011752440804858745,-0.014748869159819364,-0.011792657589524361,-0.005968047766616183,-5.587691513587652e-19,0.003961712136987216,0.0055717546454698424,0.004907630667595326,0.002701344106557821,4.2037055499395374e-19,-0.0024851663659712694,-0.003571157161776665,-0.00318342119332499,-0.0017596324543180672,-7.724056866481728e-19,0.001172069913840273,0.0017872768445477295,0.0016878939465554974,0.0009864347470162245,4.778924463384112e-19,-0.0010925022265765713,-0.001591437295968473,-0.001432364929316581,-0.0007965104485654923,-6.790738686090349e-19,0.000418736342049501,0.000678231567478013,0.0006740206577470166,0.0004111328883330762,3.912854232244769e-19,-0.0006340742730446705,-0.0008919590863130942,-0.0007713364549029916,-0.00040982456235013243,-5.408897789233957e-19,7.116331092165253e-05,0.0001450873941888514,0.0001687199741565458,0.0001153265614115556,1.7248878752600035e-19,-0.0003379624236575521,-0.0004517755668679475,-0.0003672697306747789,-0.00018082030741080872,-2.922664502978896e-19,0.0,0.0,0.0,0.0,0.0,0.0,0.0,0.0,0.0,0.0,0.0,0.0,0.0,0.0,0.0,0.0,0.0,0.0,0.0,0.0,0.0,0.0,0.0,0.0,0.0,0.0,0.0,0.0,0.0,0.0,0.0,0.0,0.0,0.0,0.0,0.0,0.0,0.0,0.0,0.0,0.0,0.0,0.0,0.0,0.0,0.0,0.0,0.0,0.0,0.0,0.0,0.0,0.0,0.0,0.0,0.0,0.0,0.0,0.0,0.0,0.0,0.0,0.0,0.0,0.0,0.0,0.0,0.0,0.0,0.0,0.0,0.0,0.0,0.0,0.0,0.0,0.0,0.0,0.0,0.0,0.0,0.0,0.0,0.0,0.0,0.0,0.0,0.0,0.0,0.0,0.0,0.0,0.0,0.0,0.0,0.0,0.0,0.0,0.0,0.0,0.0,0.0,0.0,0.0,0.0,0.0,0.0,0.0,0.0,0.0,0.0,0.0,0.0,0.0,0.0,0.0,0.0,0.0,0.0,0.0,0.0,0.0,0.0,0.0,0.0,0.0,0.0,0.0,0.0,0.0,0.0,0.0,0.0,0.0,0.0,0.0,0.0,0.0,0.0,0.0,0.0,0.0,0.0,0.0,0.0,0.0,0.0,0.0,0.0,0.0,0.0,0.0,0.0,0.0,0.0,0.0,0.0,0.0,0.0,0.0,0.0,0.0,0.0,0.0,0.0,0.0,0.0,0.0,0.0,0.0,0.0,0.0,0.0,0.0,0.0,0.0,0.0,0.0,0.0,0.0,0.0,0.0,0.0,0.0
0.65976933184286,0.7173475551383292,0.724825820641828,0.6908136731160097,0.631458997332905,0.5655434614467468,0.5089176686684292,0.47197228916416667,0.45709314471157386,0.45977179129178,0.47131759105063364,0.4819188563201968,0.48500752106523365,0.47804285287112475,0.46278246417977553,0.4438495441472491,0.4263529961981915,0.41449649552658724,0.4098729638376074,0.4114499013114426,0.41638149724386464,0.42132199228094597,0.4236845322501439,0.4224027906940835,0.4180100925959215,0.41213488568443846,0.406711038578687,0.4032536595064759,0.40245902319348204,0.40420980048400623,0.4078882741250122,0.4127929992283142,0.4184514756417653,0.4247082251353746,0.43159402919634504,0.43908750089277476,0.44692046481300945,0.454542815250364,0.4612740144998965,0.4665716173049183,0.4702867276605373,0.4727777377615379,0.4748142699361073,0.4772948622287208,0.4808846078962176,0.4857180005441914,0.4912920979851353,0.49660450328749506,0.5004977127153601,0.5020916897507386,0.5011492734278455,0.4978977156095715,0.4942178511807589,0.491568459519879,0.49112677061258003,0.4933378344108925,0.4972817152229653,0.5016679094754847,0.5035414732174694,0.499316550120786,0.48552639539393955,0.4593708647873133,0.4202942270715805,0.3691251006970361,0.3085435633748088,0.24276319769696977,0.17666371804110292,0.11583411015798398,0.06457402921865349,0.02565576076193017,4.87832086754215e-21,-0.01351377237126086,-0.016875856932491516,-0.013433841519344528,-0.006772400399958425,-4.340850197009131e-19,0.004553176372973117,0.006367244736200456,0.005576441454207246,0.003052459304896364,3.7420785127004295e-19,-0.002669480562030077,-0.0038517672455053685,-0.003450822319719167,-0.001918564157491239,-7.083978732493806e-19,0.0013434541816401448,0.00204768039945165,0.0019331323420337335,0.0011294581657946565,5.349985351718293e-19,-0.0012524580531776196,-0.0018237555367005293,-0.0016408922951867853,-0.0009121828392912104,-7.683170712521967e-19,0.00048775126420679167,0.0007858306241280378,0.0007775088996833947,0.0004725158696850056,4.409022902660373e-19,-0.0007062762036267607,-0.00099684369026313,-0.0008653223844886633,-0.0004617699706745477,-6.019234884459755e-19,8.45894009935933e-05,0.0001724604379308339,0.0002005516798574687,0.0001370847508654366,2.0503153979161065e-19,-0.00040172440834026737,-0.000537010210598185,-0.0004365610048000907,-0.00021493493337033354,-3.4740716305963853e-19,0.0,0.0,0.0,0.0,0.0,0.0,0.0,0.0,0.0,0.0,0.0,0.0,0.0,0.0,0.0,0.0,0.0,0.0,0.0,0.0,0.0,0.0,0.0,0.0,0.0,0.0,0.0,0.0,0.0,0.0,0.0,0.0,0.0,0.0,0.0,0.0,0.0,0.0,0.0,0.0,0.0,0.0,0.0,0.0,0.0,0.0,0.0,0.0,0.0,0.0,0.0,0.0,0.0,0.0,0.0,0.0,0.0,0.0,0.0,0.0,0.0,0.0,0.0,0.0,0.0,0.0,0.0,0.0,0.0,0.0,0.0,0.0,0.0,0.0,0.0,0.0,0.0,0.0,0.0,0.0,0.0,0.0,0.0,0.0,0.0,0.0,0.0,0.0,0.0,0.0,0.0,0.0,0.0,0.0,0.0,0.0,0.0,0.0,0.0,0.0,0.0,0.0,0.0,0.0,0.0,0.0,0.0,0.0,0.0,0.0,0.0,0.0,0.0,0.0,0.0,0.0,0.0,0.0,0.0,0.0,0.0,0.0,0.0,0.0,0.0,0.0,0.0,0.0,0.0,0.0,0.0,0.0,0.0,0.0,0.0,0.0,0.0,0.0,0.0,0.0,0.0,0.0,0.0,0.0,0.0,0.0,0.0,0.0,0.0,0.0,0.0,0.0,0.0,0.0,0.0,0.0,0.0,0.0,0.0,0.0,0.0,0.0,0.0,0.0,0.0,0.0,0.0,0.0,0.0,0.0,0.0,0.0,0.0,0.0,0.0,0.0,0.0,0.0,0.0,0.0,0.0,0.0,0.0,0.0
0.8695626002435258,0.9382522287207368,0.9368830871988708,0.8769193519223258,0.780367700762359,0.6732624586066399,0.578129152827683,0.5105147209262783,0.47525374952520516,0.46767376798073423,0.47696231696975405,0.4900872542581545,0.4976800823923102,0.49518633503111675,0.48349491254341265,0.46732622439705135,0.45231654169147395,0.4433682635942534,0.4424031795978497,0.4482748799815361,0.4576901318243487,0.4667659173443838,0.4725371995920961,0.4738655940540866,0.4715168080331635,0.4675273351582566,0.4642289051964364,0.4633636502595656,0.46560792073017326,0.4706022752496314,0.47736453849216465,0.48483174770618903,0.49227530580422557,0.499442098756475,0.5064292814381114,0.5134267658133943,0.5205057135162231,0.5275823980899886,0.5345764086704574,0.5416672347263157,0.549488993134624,0.5591189153434007,0.5718036778608063,0.5884892829031153,0.6093217089750166,0.6333226217885424,0.6583995181480566,0.6817381647650984,0.7004883139904876,0.7125418470188631,0.7171562504424609,0.7147653753665041,0.7084869628011037,0.7012346462153964,0.6956920531400309,0.693495964070796,0.6942533660986683,0.6965990261968645,0.696660400230872,0.6894206140806926,0.669835677699131,0.6337876853739512,0.5800240251950386,0.5094922443380754,0.4258363617398035,0.3349178388495655,0.24363309216425824,0.15963118731192874,0.08889769192759152,0.03527270561131754,-1.0981937004349638e-19,-0.018458755993590807,-0.02301322344412339,-0.018293013670398657,-0.009210937449903304,-4.352934113574492e-19,0.0062298207676094175,0.008696147447876085,0.007602365585190431,0.004154139740200628,4.386054113855748e-19,-0.003582393584043317,-0.005173922308226983,-0.004641114962404536,-0.002584216668026003,-8.760411633505961e-19,0.0018573864605276914,0.002821972405189513,0.002656214165033784,0.0015477331454039978,7.083130827182275e-19,-0.0016611978375468892,-0.0024296989754599672,-0.0021964905019203063,-0.0012272183151553206,-1.0018222653589738e-18,0.0006773943261670122,0.001093290098633853,0.0010833002050884243,0.0006591614228017378,6.191530746702106e-19,-0.000995703411123737,-0.0014037520759359358,-0.001216973452831552,-0.0006484678536406418,-8.488550165418462e-19,0.00011670014087438916,0.00023792765010017614,0.00027668252779960707,0.0001891230999370553,2.8286297451362845e-19,-0.0005542218587118328,-0.0007408631163204486,-0.0006022826756308879,-0.00029652576692256187,-4.792853997500507e-19,0.0,0.0,0.0,0.0,0.0,0.0,0.0,0.0,0.0,0.0,0.0,0.0,0.0,0.0,0.0,0.0,0.0,0.0,0.0,0.0,0.0,0.0,0.0,0.0,0.0,0.0,0.0,0.0,0.0,0.0,0.0,0.0,0.0,0.0,0.0,0.0,0.0,0.0,0.0,0.0,0.0,0.0,0.0,0.0,0.0,0.0,0.0,0.0,0.0,0.0,0.0,0.0,0.0,0.0,0.0,0.0,0.0,0.0,0.0,0.0,0.0,0.0,0.0,0.0,0.0,0.0,0.0,0.0,0.0,0.0,0.0,0.0,0.0,0.0,0.0,0.0,0.0,0.0,0.0,0.0,0.0,0.0,0.0,0.0,0.0,0.0,0.0,0.0,0.0,0.0,0.0,0.0,0.0,0.0,0.0,0.0,0.0,0.0,0.0,0.0,0.0,0.0,0.0,0.0,0.0,0.0,0.0,0.0,0.0,0.0,0.0,0.0,0.0,0.0,0.0,0.0,0.0,0.0,0.0,0.0,0.0,0.0,0.0,0.0,0.0,0.0,0.0,0.0,0.0,0.0,0.0,0.0,0.0,0.0,0.0,0.0,0.0,0.0,0.0,0.0,0.0,0.0,0.0,0.0,0.0,0.0,0.0,0.0,0.0,0.0,0.0,0.0,0.0,0.0,0.0,0.0,0.0,0.0,0.0,0.0,0.0,0.0,0.0,0.0,0.0,0.0,0.0,0.0,0.0,0.0,0.0,0.0,0.0,0.0,0.0,0.0,0.0,0.0,0.0,0.0,0.0,0.0,0.0,0.0
0.7171562504424609,0.7864511430502511,0.8059180601333968,0.785222781688054,0.7414105577815473,0.693495964070796,0.6567914451206845,0.6396365018205697,0.6416794739824143,0.6554562759380181,0.669835677699131,0.6739575515640307,0.6612659898601673,0.6308049988990428,0.5870042210387743,0.5376610269527998,0.49101987058587165,0.4534744471218117,0.4277955865687653,0.41301823329666726,0.4054863762064688,0.4005630502024067,0.39431952479176213,0.3846414847318507,0.37149020565570023,0.3563986139891725,0.34153582078838013,0.3287617416938546,0.3190119184801432,0.31216179455160453,0.3073108517718761,0.30328278414002524,0.2991014515357027,0.29426703899028583,0.2887770567038973,0.2829529500592122,0.2771981952053818,0.2718107911098313,0.26691697673027015,0.26251902725039356,0.2585950483465483,0.2551749429365483,0.25234394353824524,0.2501740453103564,0.24862745355171917,0.24749353731792478,0.24640524933153374,0.24494210029365962,0.24278416406974787,0.23985501096687278,0.23639202628930134,0.23254023571081628,0.22963038709665565,0.2281281160274126,0.22816283270359836,0.22947711407119634,0.23106608002700643,0.23259005355229168,0.23268051182140403,0.22980295643782797,0.22256220185309133,0.20964956360282935,0.19138756117341907,0.16811443538079213,0.14085571408663067,0.11128110092654567,0.08123752084856115,0.053495147240017124,0.029982648969963957,0.011987763923056907,1.5684047004298562e-19,-0.00651448355089786,-0.008186691583726969,-0.006549384420196376,-0.0033135409126119003,-4.287876478305248e-19,0.002155241644820665,0.003032515396487922,0.0026722543332530213,0.0014715293771107169,2.44035564856343e-19,-0.0013568019436316654,-0.0019495647629815139,-0.0017376306690790704,-0.0009602541407430915,-4.348710320974369e-19,0.0006288254053041795,0.0009622720053234848,0.0009117403236233237,0.000534428752113336,2.6655504569519684e-19,-0.0006137176594267614,-0.0008896562824468354,-0.0007965505743354902,-0.00044047759558496057,-3.8631470452350516e-19,0.00022474384924608113,0.00036258837891444307,0.00035915956889923735,0.00021848103190934233,2.0492277481986636e-19,-0.0003292699352308893,-0.0004643222818156592,-0.00040265414831620937,-0.00021462440320146712,-2.80689303508992e-19,3.8775241711201083e-05,7.905476440120613e-05,9.193161047032057e-05,6.28387751572999e-05,9.398514968135998e-20,-0.00018414790566802683,-0.0002461620542614401,-0.00020011677921788834,-9.852480211139931e-05,-1.592492269907479e-19,0.0,0.0,0.0,0.0,0.0,0.0,0.0,0.0,0.0,0.0,0.0,0.0,0.0,0.0,0.0,0.0,0.0,0.0,0.0,0.0,0.0,0.0,0.0,0.0,0.0,0.0,0.0,0.0,0.0,0.0,0.0,0.0,0.0,0.0,0.0,0.0,0.0,0.0,0.0,0.0,0.0,0.0,0.0,0.0,0.0,0.0,0.0,0.0,0.0,0.0,0.0,0.0,0.0,0.0,0.0,0.0,0.0,0.0,0.0,0.0,0.0,0.0,0.0,0.0,0.0,0.0,0.0,0.0,0.0,0.0,0.0,0.0,0.0,0.0,0.0,0.0,0.0,0.0,0.0,0.0,0.0,0.0,0.0,0.0,0.0,0.0,0.0,0.0,0.0,0.0,0.0,0.0,0.0,0.0,0.0,0.0,0.0,0.0,0.0,0.0,0.0,0.0,0.0,0.0,0.0,0.0,0.0,0.0,0.0,0.0,0.0,0.0,0.0,0.0,0.0,0.0,0.0,0.0,0.0,0.0,0.0,0.0,0.0,0.0,0.0,0.0,0.0,0.0,0.0,0.0,0.0,0.0,0.0,0.0,0.0,0.0,0.0,0.0,0.0,0.0,0.0,0.0,0.0,0.0,0.0,0.0,0.0,0.0,0.0,0.0,0.0,0.0,0.0,0.0,0.0,0.0,0.0,0.0,0.0,0.0,0.0,0.0,0.0,0.0,0.0,0.0,0.0,0.0,0.0,0.0,0.0,0.0,0.0,0.0,0.0,0.0,0.0,0.0,0.0,0.0,0.0,0.0,0.0,0.0
0.6506317950987598,0.7081522363312267,0.7157368923969802,0.6814588218657396,0.6210485221534517,0.5531682790052355,0.49349856318948254,0.45352180829249544,0.43681732173551113,0.4401257690303796,0.4557047629117112,0.4736495417230489,0.48747247332753246,0.49393044788700036,0.49372720785105695,0.4903197144741091,0.48756027320383993,0.4891746463797332,0.49664795075136975,0.5092987263049908,0.5249346660365071,0.5409451746255605,0.5553376307129739,0.5673325410402025,0.5773713755050159,0.5866479948658623,0.5964460973165684,0.6075945733860544,0.6202481481860185,0.6340240775945177,0.6483613236952175,0.6628861473770877,0.6775946002330441,0.6927752220672136,0.7087356311292103,0.7254979099436671,0.7426443869022306,0.7594220875563228,0.7750857283211424,0.7893345506426207,0.8026344961921167,0.8162449875551423,0.8318808178769226,0.8510909239230681,0.8745660689712828,0.9016425063867765,0.930222596987252,0.9571985764156183,0.9792884702109835,0.9940364590661708,1.0006505165814363,1.0000439776903058,0.9958681190736789,0.9919721456449423,0.9918095526370214,0.9972178510119291,1.0071995751499367,1.0186596136856383,1.0253609350191895,1.0195832671324527,0.9937851854424216,0.9421291370657003,0.8628198201996089,0.7577066537830582,0.6326886091701303,0.4968925927212108,0.3609420782159026,0.23610446877673513,0.13124845516640588,0.05197698799869031,-2.42811456165221e-19,-0.02701616202440879,-0.0336223180177635,-0.026686212474757928,-0.01342096430083601,-5.015843156372926e-19,0.009111242949607194,0.012701287120597066,0.011089497753279755,0.006052241780295096,6.064803591845768e-19,-0.005184464864031964,-0.007487986639433654,-0.00671802287193354,-0.0037417444441095946,-1.2269968247412082e-18,0.0027012297023149903,0.004102978819730797,0.0038611948904519328,0.002249514100716261,1.0156393847794794e-18,-0.002416124105962301,-0.0035330908779976616,-0.003193335858078704,-0.001783854501562712,-1.4455670445793966e-18,0.0009939640469077051,0.00159953409826279,0.0015810481194922362,0.0009600648254454989,8.918432427156016e-19,-0.001424842759417466,-0.002012585020518448,-0.0017485798972267617,-0.0009340434174377145,-1.2140608643265093e-18,0.0001731392862476097,0.00035299549090738163,0.0004104932095323761,0.0002805878235509759,4.1966267689324954e-19,-0.0008222575938744997,-0.00109916329325574,-0.0008935618397433958,-0.00043993314193388884,-7.110799644273222e-19,0.0,0.0,0.0,0.0,0.0,0.0,0.0,0.0,0.0,0.0,0.0,0.0,0.0,0.0,0.0,0.0,0.0,0.0,0.0,0.0,0.0,0.0,0.0,0.0,0.0,0.0,0.0,0.0,0.0,0.0,0.0,0.0,0.0,0.0,0.0,0.0,0.0,0.0,0.0,0.0,0.0,0.0,0.0,0.0,0.0,0.0,0.0,0.0,0.0,0.0,0.0,0.0,0.0,0.0,0.0,0.0,0.0,0.0,0.0,0.0,0.0,0.0,0.0,0.0,0.0,0.0,0.0,0.0,0.0,0.0,0.0,0.0,0.0,0.0,0.0,0.0,0.0,0.0,0.0,0.0,0.0,0.0,0.0,0.0,0.0,0.0,0.0,0.0,0.0,0.0,0.0,0.0,0.0,0.0,0.0,0.0,0.0,0.0,0.0,0.0,0.0,0.0,0.0,0.0,0.0,0.0,0.0,0.0,0.0,0.0,0.0,0.0,0.0,0.0,0.0,0.0,0.0,0.0,0.0,0.0,0.0,0.0,0.0,0.0,0.0,0.0,0.0,0.0,0.0,0.0,0.0,0.0,0.0,0.0,0.0,0.0,0.0,0.0,0.0,0.0,0.0,0.0,0.0,0.0,0.0,0.0,0.0,0.0,0.0,0.0,0.0,0.0,0.0,0.0,0.0,0.0,0.0,0.0,0.0,0.0,0.0,0.0,0.0,0.0,0.0,0.0,0.0,0.0,0.0,0.0,0.0,0.0,0.0,0.0,0.0,0.0,0.0,0.0,0.0,0.0,0.0,0.0,0.0,0.0
1.0006505165814363,1.10196759260539,1.1350653345776762,1.1127572641442358,1.0581329519949012,0.9972178510119291,0.9512259550804512,0.9320616881204532,0.9399078384795672,0.9653084509597344,0.9937851854424216,1.0114924949639421,1.0094444298426657,0.9860521868731474,0.9466078200354786,0.900643735561005,0.858351720298163,0.8271350948805036,0.809886009469552,0.8049240514520403,0.8075022856795883,0.8120582985152102,0.814283594994345,0.8123045192952957,0.8067146953066363,0.7996733578314532,0.7936020132352095,0.790073877984131,0.7893091159371564,0.7903703814200006,0.7918444299833183,0.792620809425119,0.79239249161164,0.7916767978964635,0.7913967394625493,0.7922631421609413,0.7942751709573017,0.7965883575717722,0.7978245147836864,0.7966969662986554,0.7926818543385643,0.7864369093441683,0.7797595175982203,0.7750462413613997,0.7743993242977699,0.7786560667585649,0.7866527902154973,0.7949711614048043,0.7982787440635272,0.7902144374783973,0.7646302791785657,0.7164032337653456,0.6445385971677943,0.5502733538023393,0.43819139724784584,0.31582759842841734,0.19215105547416603,0.07809290195276396,-0.017623536022088278,-0.08888216178939115,-0.13297508232173097,-0.15130776784555947,-0.14700439945510904,-0.12651589940313546,-0.09732710899532798,-0.06648754116086548,-0.03988981639580988,-0.019825608802576902,-0.007246359064703278,-0.0013024930941183035,7.751920851377531e-19,-0.0014002197600426775,-0.002725022044301452,-0.0028884248841183294,-0.001787497664139842,-1.3257651606158163e-18,0.0012459557918707955,0.0020586514598871803,0.0020649164250940745,0.0012640520332365857,8.99504669045274e-19,-0.0016145239914305484,-0.002357353748704441,-0.0021218259108329637,-0.0011775786192964781,-1.2498940581198407e-18,0.0005364327654806085,0.0008955495165986725,0.0009109187235344838,0.0005657226522418212,6.6849028649741e-19,-0.0009611195211933236,-0.0013417689237343125,-0.001149494349580885,-0.0006037581002040333,-9.009299160668948e-19,2.3543670642115194e-05,0.00010513010213379463,0.0001595898131601329,0.00012522846283740763,2.601005302399041e-19,-0.0005527850462038486,-0.000724503582978089,-0.0005739360989235429,-0.0002727812660522625,-4.804685856127672e-19,-2.3167190635521492e-05,-4.7233149729145843e-05,-5.492672775734577e-05,-3.754452117190281e-05,-5.615366361332332e-20,0.00011002354717780708,0.00014707537559099118,0.00011956453058468316,5.8865986957405735e-05,9.514723925469015e-20,0.0,0.0,0.0,0.0,0.0,0.0,0.0,0.0,0.0,0.0,0.0,0.0,0.0,0.0,0.0,0.0,0.0,0.0,0.0,0.0,0.0,0.0,0.0,0.0,0.0,0.0,0.0,0.0,0.0,0.0,0.0,0.0,0.0,0.0,0.0,0.0,0.0,0.0,0.0,0.0,0.0,0.0,0.0,0.0,0.0,0.0,0.0,0.0,0.0,0.0,0.0,0.0,0.0,0.0,0.0,0.0,0.0,0.0,0.0,0.0,0.0,0.0,0.0,0.0,0.0,0.0,0.0,0.0,0.0,0.0,0.0,0.0,0.0,0.0,0.0,0.0,0.0,0.0,0.0,0.0,0.0,0.0,0.0,0.0,0.0,0.0,0.0,0.0,0.0,0.0,0.0,0.0,0.0,0.0,0.0,0.0,0.0,0.0,0.0,0.0,0.0,0.0,0.0,0.0,0.0,0.0,0.0,0.0,0.0,0.0,0.0,0.0,0.0,0.0,0.0,0.0,0.0,0.0,0.0,0.0,0.0,0.0,0.0,0.0,0.0,0.0,0.0,0.0,0.0,0.0,0.0,0.0,0.0,0.0,0.0,0.0,0.0,0.0,0.0,0.0,0.0,0.0,0.0,0.0,0.0,0.0,0.0,0.0,0.0,0.0,0.0,0.0,0.0,0.0,0.0,0.0,0.0,0.0,0.0,0.0,0.0,0.0,0.0,0.0,0.0,0.0,0.0,0.0,0.0,0.0,0.0,0.0,0.0,0.0,0.0,0.0,0.0,0.0,0.0,0.0,0.0,0.0,0.0,0.0
0.7926818543385643,0.8668700150709164,0.8872549797398747,0.8659489889010663,0.8227471896926599,0.7786560667585649,0.7495735308122699,0.7417499812408037,0.7508072163119507,0.7639472152916732,0.7646302791785657,0.7381949987040367,0.6760575357016307,0.5783581737463666,0.4535634620914841,0.31582759842841734,0.1811313325884428,0.06316694973439134,-0.02934270384568819,-0.09377631631125917,-0.13297508232173097,-0.153367624081599,-0.16262099099524627,-0.1675597619053843,-0.17285313557187676,-0.18062944399813322,-0.1908698742528176,-0.20224942624071165,-0.21306067042889512,-0.22194315919158178,-0.2282838056745355,-0.23228626604380534,-0.2347901246425823,-0.23694662704519628,-0.2398455502144381,-0.24416465373247861,-0.2498978934441656,-0.25621364453590323,-0.26148838703106014,-0.26354034345930366,-0.26004550179042174,-0.24906376497925647,-0.2295558804773525,-0.20175470596198564,-0.16728025699565865,-0.1289529505569759,-0.09034300930033357,-0.05516709924492485,-0.02668041523285603,-0.0072020600635109245,0.002139600676469977,0.0010182168761768522,-0.008691556165593532,-0.025230419420641415,-0.0464389432305678,-0.06991146313308087,-0.09355348400868939,-0.11422859034315204,-0.12998151799832958,-0.13945718273257413,-0.14196252694263173,-0.13788418839943178,-0.1271560150214052,-0.11114914008087184,-0.09173832086996943,-0.07098126347131586,-0.05097485732816443,-0.03299644273603903,-0.0181804543026462,-0.007150056666761839,-1.2051262611895033e-19,0.0037181326123926816,0.004617438258893894,0.0036588256594762836,0.0018374052582859927,2.3690872999274663e-19,-0.0011916361216709106,-0.0016700891746733813,-0.0014673690980225463,-0.0008062657008310352,-1.8277319606268934e-19,0.0007721437343001149,0.001099193926847594,0.0009697824581309873,0.0005300429402511618,2.912354368795139e-19,-0.00029154376017977027,-0.0004561280553428918,-0.00044115181296495174,-0.00026347930951159263,-1.3796980690412615e-19,0.0003782966191139352,0.0005332666553044491,0.00046297243928723124,0.0002474940315835138,2.3781627224467417e-19,-0.00011671144802654525,-0.00017696008749553457,-0.00016592525937989618,-9.618250612256876e-05,-6.613347366146789e-20,8.349773269583112e-05,0.00012703139699808653,0.00011933396773836091,6.920249380996761e-05,6.961831068537515e-20,-2.4733001607195343e-05,-5.0425517126477645e-05,-5.863908435308797e-05,-4.0082059024553325e-05,-5.994894565544588e-20,0.00011745975642837288,0.00015701582285481812,0.00012764559042305129,6.284458797495812e-05,1.0157799702300759e-19,0.0,0.0,0.0,0.0,0.0,0.0,0.0,0.0,0.0,0.0,0.0,0.0,0.0,0.0,0.0,0.0,0.0,0.0,0.0,0.0,0.0,0.0,0.0,0.0,0.0,0.0,0.0,0.0,0.0,0.0,0.0,0.0,0.0,0.0,0.0,0.0,0.0,0.0,0.0,0.0,0.0,0.0,0.0,0.0,0.0,0.0,0.0,0.0,0.0,0.0,0.0,0.0,0.0,0.0,0.0,0.0,0.0,0.0,0.0,0.0,0.0,0.0,0.0,0.0,0.0,0.0,0.0,0.0,0.0,0.0,0.0,0.0,0.0,0.0,0.0,0.0,0.0,0.0,0.0,0.0,0.0,0.0,0.0,0.0,0.0,0.0,0.0,0.0,0.0,0.0,0.0,0.0,0.0,0.0,0.0,0.0,0.0,0.0,0.0,0.0,0.0,0.0,0.0,0.0,0.0,0.0,0.0,0.0,0.0,0.0,0.0,0.0,0.0,0.0,0.0,0.0,0.0,0.0,0.0,0.0,0.0,0.0,0.0,0.0,0.0,0.0,0.0,0.0,0.0,0.0,0.0,0.0,0.0,0.0,0.0,0.0,0.0,0.0,0.0,0.0,0.0,0.0,0.0,0.0,0.0,0.0,0.0,0.0,0.0,0.0,0.0,0.0,0.0,0.0,0.0,0.0,0.0,0.0,0.0,0.0,0.0,0.0,0.0,0.0,0.0,0.0,0.0,0.0,0.0,0.0,0.0,0.0,0.0,0.0,0.0,0.0,0.0,0.0,0.0,0.0,0.0,0.0,0.0,0.0
0.6303406175340902,0.6879180802023602,0.6988478571089011,0.6712348036126352,0.6202426228935756,0.5634405333051048,0.5153608962657474,0.48564638736291654,0.476273366116094,0.48271964323496114,0.49654044907611933,0.5080716120612724,0.5111999221624259,0.503661008943887,0.487406395128921,0.4672105112764469,0.44826003434267686,0.4350868987451664,0.42966626954596127,0.4314081628019972,0.43788057347677445,0.44602102149630585,0.4533136037925472,0.4585140746239236,0.46174792872034914,0.46407400077648275,0.4667929904287087,0.47082687848453736,0.4764049489303752,0.48312220286516666,0.490267428076191,0.497220440228663,0.5037219334526893,0.5099093421735464,0.5161378941363518,0.5227077342835509,0.5296524583380446,0.5367020018235029,0.5434386978439105,0.5495657170978339,0.5551480404909108,0.5606935585365946,0.5670117287974249,0.5748883669722441,0.5847036425002687,0.5961580150794256,0.6082406842394557,0.6194875539499324,0.6284637889559257,0.6343121493115921,0.6371679896679405,0.6379471336912801,0.6393221973716634,0.6434866612965573,0.6520012988445909,0.6651182639090747,0.6810370776042824,0.6969417933330537,0.707925610248442,0.708364844850382,0.6930685381502089,0.6581801431998933,0.6030554632390905,0.5294127402881252,0.4417077629143167,0.34653426907510443,0.2513555484442111,0.16417871735839165,0.09113800789081333,0.036046354357125304,-1.065942773916719e-19,-0.01873445766938981,-0.023292154691559076,-0.018467263744875367,-0.009276773150657065,-4.1925429458152664e-19,0.006251020049996985,0.008709021729355677,0.007600418564277334,0.004146590551817628,4.2440346654020245e-19,-0.003574123952946274,-0.00515423081309584,-0.00461674191389393,-0.002567047584015684,-8.580802905498704e-19,0.0018329885841124553,0.0027838161013278365,0.002619592939753281,0.0015261394295965486,6.777042828935882e-19,-0.0016447443339864783,-0.0024035697810023283,-0.0021710576018984006,-0.0012120349182274635,-9.744267811834355e-19,0.0006826200109302035,0.0010939627860589536,0.0010775593440376444,0.000652416935432814,5.963459951218309e-19,-0.0009434756763393567,-0.0013364586850434308,-0.00116489644609048,-0.000624538637478061,-8.032651922231243e-19,0.00012074781730880813,0.0002461800321040997,0.0002862791001704611,0.00019568272453633878,2.926739120800263e-19,-0.0005734447211706052,-0.0007665595221224622,-0.0006231724995397889,-0.00030681059048813357,-4.959091347635111e-19,0.0,0.0,0.0,0.0,0.0,0.0,0.0,0.0,0.0,0.0,0.0,0.0,0.0,0.0,0.0,0.0,0.0,0.0,0.0,0.0,0.0,0.0,0.0,0.0,0.0,0.0,0.0,0.0,0.0,0.0,0.0,0.0,0.0,0.0,0.0,0.0,0.0,0.0,0.0,0.0,0.0,0.0,0.0,0.0,0.0,0.0,0.0,0.0,0.0,0.0,0.0,0.0,0.0,0.0,0.0,0.0,0.0,0.0,0.0,0.0,0.0,0.0,0.0,0.0,0.0,0.0,0.0,0.0,0.0,0.0,0.0,0.0,0.0,0.0,0.0,0.0,0.0,0.0,0.0,0.0,0.0,0.0,0.0,0.0,0.0,0.0,0.0,0.0,0.0,0.0,0.0,0.0,0.0,0.0,0.0,0.0,0.0,0.0,0.0,0.0,0.0,0.0,0.0,0.0,0.0,0.0,0.0,0.0,0.0,0.0,0.0,0.0,0.0,0.0,0.0,0.0,0.0,0.0,0.0,0.0,0.0,0.0,0.0,0.0,0.0,0.0,0.0,0.0,0.0,0.0,0.0,0.0,0.0,0.0,0.0,0.0,0.0,0.0,0.0,0.0,0.0,0.0,0.0,0.0,0.0,0.0,0.0,0.0,0.0,0.0,0.0,0.0,0.0,0.0,0.0,0.0,0.0,0.0,0.0,0.0,0.0,0.0,0.0,0.0,0.0,0.0,0.0,0.0,0.0,0.0,0.0,0.0,0.0,0.0,0.0,0.0,0.0,0.0,0.0,0.0,0.0,0.0,0.0,0.0
0.42577144378985615,0.46791224337475223,0.4798086614858335,0.4666253198912734,0.43818050051947643,0.4059012181648771,0.3791035649161628,0.3642372397141876,0.36271944617386775,0.37176468256049816,0.3860309925398981,0.3992086237948379,0.4074952149552252,0.40945394213582337,0.4062963840056386,0.4009539179701627,0.39644735652335755,0.3954375053455783,0.3989063282102353,0.4062647447589012,0.4158768434004274,0.42586128948041646,0.4348212293181531,0.4422394361445972,0.44844892218335347,0.45427155915026357,0.460535506621004,0.46769768393846883,0.47571711455316146,0.4841937489786989,0.4926662749000998,0.5009018700352748,0.5090309961959983,0.517465382702515,0.5266451084283909,0.536742217136396,0.547468894180598,0.5580911386137034,0.5676565660055287,0.5753483773522315,0.5808181593726923,0.5843530357038236,0.586796559361422,0.5892415057220256,0.5926065232991887,0.5972599404237011,0.602842374213748,0.6083690317249107,0.6125889468584186,0.6144800454658419,0.6137017214747099,0.6106124958783697,0.6070248130925092,0.6046924790346456,0.6051073536336914,0.608877813871913,0.6150355895469062,0.6216531326914515,0.6250067352745114,0.6205911680811613,0.6040539062691159,0.5719894597522994,0.5235194015397802,0.45974643875512844,0.38412623707199167,0.30202695313455796,0.21968879352847304,0.14395837919272403,0.08019428059814188,0.03183506461798095,-4.2452543418410074e-20,-0.016684797535957762,-0.020819393695188884,-0.01656424661995757,-0.008348279916832173,-4.580684898324656e-19,0.0056415001771764235,0.007885751172767987,0.006903449702596896,0.003777332116259271,4.552815587955058e-19,-0.0032950104147833337,-0.004754731524488489,-0.004260359407766473,-0.00236906347236783,-8.649609033639446e-19,0.0016626020450861692,0.0025337901974627607,0.0023917834590945278,0.0013973022803460125,6.591751761700061e-19,-0.001548792834909215,-0.0022553220792822463,-0.0020292638514316837,-0.001128136494482762,-9.479144445240887e-19,0.0006051164636123097,0.0009741918395788102,0.0009632722400424567,0.0005851033936728465,5.444023447495703e-19,-0.0008705941536043275,-0.0012293678919752767,-0.0010677645941422637,-0.0005701646106146917,-7.4186179783899e-19,0.00010523950620168997,0.00021456176676960727,0.00024951068937960623,0.00017055010816252147,2.550841801690438e-19,-0.0004997940388075077,-0.0006681060360375277,-0.0005431350031140999,-0.0002674052066534934,-4.322167773016318e-19,0.0,0.0,0.0,0.0,0.0,0.0,0.0,0.0,0.0,0.0,0.0,0.0,0.0,0.0,0.0,0.0,0.0,0.0,0.0,0.0,0.0,0.0,0.0,0.0,0.0,0.0,0.0,0.0,0.0,0.0,0.0,0.0,0.0,0.0,0.0,0.0,0.0,0.0,0.0,0.0,0.0,0.0,0.0,0.0,0.0,0.0,0.0,0.0,0.0,0.0,0.0,0.0,0.0,0.0,0.0,0.0,0.0,0.0,0.0,0.0,0.0,0.0,0.0,0.0,0.0,0.0,0.0,0.0,0.0,0.0,0.0,0.0,0.0,0.0,0.0,0.0,0.0,0.0,0.0,0.0,0.0,0.0,0.0,0.0,0.0,0.0,0.0,0.0,0.0,0.0,0.0,0.0,0.0,0.0,0.0,0.0,0.0,0.0,0.0,0.0,0.0,0.0,0.0,0.0,0.0,0.0,0.0,0.0,0.0,0.0,0.0,0.0,0.0,0.0,0.0,0.0,0.0,0.0,0.0,0.0,0.0,0.0,0.0,0.0,0.0,0.0,0.0,0.0,0.0,0.0,0.0,0.0,0.0,0.0,0.0,0.0,0.0,0.0,0.0,0.0,0.0,0.0,0.0,0.0,0.0,0.0,0.0,0.0,0.0,0.0,0.0,0.0,0.0,0.0,0.0,0.0,0.0,0.0,0.0,0.0,0.0,0.0,0.0,0.0,0.0,0.0,0.0,0.0,0.0,0.0,0.0,0.0,0.0,0.0,0.0,0.0,0.0,0.0,0.0,0.0,0.0,0.0,0.0,0.0
0.6137017214747099,0.6766600558299163,0.6974153478684877,0.6834155638779844,0.6485705938514761,0.608877813871913,0.5771480610085701,0.5620003474879851,0.5649076082711809,0.5815085969744486,0.6040539062691159,0.6236163081013311,0.6352701075063814,0.6375667692553574,0.6328129001854464,0.6255605737385826,0.620098598406214,0.6198971336534419,0.6256859523329467,0.6357864624281525,0.6470672412080493,0.6562970118890771,0.6613421737851826,0.6617906114398637,0.6588551151463666,0.6546991353733879,0.6515233102971372,0.6507911273631357,0.6528615718082929,0.6570986050807475,0.6623310295387266,0.6674190886878246,0.6716821943830035,0.6750407055495111,0.6778697599726655,0.6806880086690519,0.683858028999762,0.6874430512007248,0.6912697673894785,0.6951379155430427,0.6990449877993774,0.7032901487233854,0.7083847283077219,0.7147969038711475,0.7226491019121615,0.7315263704012566,0.7405225795196893,0.7485587878433368,0.754890032850782,0.759620037253609,0.7640077530031357,0.770077760946926,0.7813190098749281,0.8002306899773751,0.8279333565422551,0.863377802284243,0.9026174598811676,0.9401491291172186,0.9680870342489524,0.9780428935073965,0.9627478515653504,0.9172807685563831,0.8413700874367556,0.7382623810527967,0.614986515595603,0.4813739257826752,0.34822290045509907,0.22678399250933756,0.12550900912477617,0.049489262508032705,-1.246388260149042e-19,-0.02559516812687214,-0.03173222733281268,-0.025089006411010938,-0.012568585061083916,-5.753495687202065e-19,0.008409076325576647,0.011688301157911446,0.010178538531738578,0.005542263578116144,5.227122149089895e-19,-0.004765813372775558,-0.006862178622179294,-0.006137726047634212,-0.0034081806928237812,-1.0973880860118739e-18,0.002433789017647226,0.0036898206865752237,0.0034668309998975542,0.0020170578204596317,8.537716919016966e-19,-0.002152330364706294,-0.003148686544171702,-0.002847564829779131,-0.0015918893265125487,-1.2412967048004466e-18,0.0009271374843888231,0.0014766228514276128,0.0014468308484865385,0.0008720900076972524,7.772557226282947e-19,-0.0012104024096875545,-0.0017225590244050958,-0.0015092919350845578,-0.0008139485176935949,-1.0291812231941133e-18,0.00016773189850101899,0.00034197093643737733,0.00039767291900565105,0.00027182466417914933,4.0655601077537786e-19,-0.0007965773122121417,-0.0010648348502300857,-0.0008656546244153881,-0.00042619340017700975,-6.888719192757924e-19,0.0,0.0,0.0,0.0,0.0,0.0,0.0,0.0,0.0,0.0,0.0,0.0,0.0,0.0,0.0,0.0,0.0,0.0,0.0,0.0,0.0,0.0,0.0,0.0,0.0,0.0,0.0,0.0,0.0,0.0,0.0,0.0,0.0,0.0,0.0,0.0,0.0,0.0,0.0,0.0,0.0,0.0,0.0,0.0,0.0,0.0,0.0,0.0,0.0,0.0,0.0,0.0,0.0,0.0,0.0,0.0,0.0,0.0,0.0,0.0,0.0,0.0,0.0,0.0,0.0,0.0,0.0,0.0,0.0,0.0,0.0,0.0,0.0,0.0,0.0,0.0,0.0,0.0,0.0,0.0,0.0,0.0,0.0,0.0,0.0,0.0,0.0,0.0,0.0,0.0,0.0,0.0,0.0,0.0,0.0,0.0,0.0,0.0,0.0,0.0,0.0,0.0,0.0,0.0,0.0,0.0,0.0,0.0,0.0,0.0,0.0,0.0,0.0,0.0,0.0,0.0,0.0,0.0,0.0,0.0,0.0,0.0,0.0,0.0,0.0,0.0,0.0,0.0,0.0,0.0,0.0,0.0,0.0,0.0,0.0,0.0,0.0,0.0,0.0,0.0,0.0,0.0,0.0,0.0,0.0,0.0,0.0,0.0,0.0,0.0,0.0,0.0,0.0,0.0,0.0,0.0,0.0,0.0,0.0,0.0,0.0,0.0,0.0,0.0,0.0,0.0,0.0,0.0,0.0,0.0,0.0,0.0,0.0,0.0,0.0,0.0,0.0,0.0,0.0,0.0,0.0,0.0,0.0,0.0
0.9627478515653504,1.0579572200109695,1.085496724597634,1.0573620900297764,0.9958407810733831,0.9265477117624341,0.8703556196179337,0.8407679796130105,0.8399574164776813,0.860699241357802,0.8903475719595179,0.9149212207953077,0.9260242522417832,0.9211379397585788,0.9038843477186259,0.8817132681484231,0.862193375198031,0.851402231199149,0.8512994663328621,0.8599858068187749,0.8730789643373283,0.8857426122364161,0.8945189209011183,0.8983185541998608,0.898337482497209,0.8971124582006181,0.897224462535278,0.9002170910473278,0.9061246781405111,0.9137014404409431,0.921145952063908,0.9269430438122578,0.9304514055847232,0.9320247268306122,0.9326823429396787,0.9335386001865476,0.9352807743947366,0.9379308142197379,0.9409730052053638,0.9437528890321206,0.9459312483091872,0.9477600881121419,0.9500369189117277,0.9537457492552159,0.9595402803247075,0.967304118984504,0.976001869940239,0.9839229101538783,0.9892616887885645,0.9908364814191278,0.9886769896598206,0.983742262533886,0.979534475486528,0.9788578543972019,0.9837650097915815,0.9946637531206285,1.009203960506569,1.0239465534542824,1.0324078362204234,1.02701607978067,1.0006505165814363,0.9477686728253212,0.8674339026487126,0.761682320960225,0.6363421164481324,0.5003252582907182,0.36383231249332687,0.23838054902756717,0.13279631069211517,0.05272660492117166,6.07835730960241e-20,-0.02775140310906917,-0.03463884570730187,-0.02756102177660101,-0.01388800594416851,-9.375024176651076e-19,0.009301548517087564,0.013008033046452934,0.011394060915732591,0.0062382435202768295,7.851405658644714e-19,-0.005503141497270381,-0.007929091931874792,-0.007092612056977289,-0.003936685544732905,-1.4894651623291453e-18,0.0027283133903572322,0.004156609820287781,0.0039225771106001575,0.0022910713597610183,1.071908150521425e-18,-0.0025354474351904502,-0.003692642442663015,-0.0033231241227011064,-0.0018478259591209528,-1.5446531223243794e-18,0.000997540206391873,0.0016038756377264804,0.0015841692436006534,0.0009613648057562514,8.900288969128267e-19,-0.0014190594427987797,-0.0020055995579134566,-0.0017436779484478722,-0.0009321353737015408,-1.2089342740930782e-18,0.00017433537827099142,0.0003554340772046597,0.00041332900529089515,0.00028252619851416817,4.225618177596683e-19,-0.000827937967003633,-0.0011067566042595575,-0.0008997348014788785,-0.00044297231653887023,-7.159922930609384e-19,0.0,0.0,0.0,0.0,0.0,0.0,0.0,0.0,0.0,0.0,0.0,0.0,0.0,0.0,0.0,0.0,0.0,0.0,0.0,0.0,0.0,0.0,0.0,0.0,0.0,0.0,0.0,0.0,0.0,0.0,0.0,0.0,0.0,0.0,0.0,0.0,0.0,0.0,0.0,0.0,0.0,0.0,0.0,0.0,0.0,0.0,0.0,0.0,0.0,0.0,0.0,0.0,0.0,0.0,0.0,0.0,0.0,0.0,0.0,0.0,0.0,0.0,0.0,0.0,0.0,0.0,0.0,0.0,0.0,0.0,0.0,0.0,0.0,0.0,0.0,0.0,0.0,0.0,0.0,0.0,0.0,0.0,0.0,0.0,0.0,0.0,0.0,0.0,0.0,0.0,0.0,0.0,0.0,0.0,0.0,0.0,0.0,0.0,0.0,0.0,0.0,0.0,0.0,0.0,0.0,0.0,0.0,0.0,0.0,0.0,0.0,0.0,0.0,0.0,0.0,0.0,0.0,0.0,0.0,0.0,0.0,0.0,0.0,0.0,0.0,0.0,0.0,0.0,0.0,0.0,0.0,0.0,0.0,0.0,0.0,0.0,0.0,0.0,0.0,0.0,0.0,0.0,0.0,0.0,0.0,0.0,0.0,0.0,0.0,0.0,0.0,0.0,0.0,0.0,0.0,0.0,0.0,0.0,0.0,0.0,0.0,0.0,0.0,0.0,0.0,0.0,0.0,0.0,0.0,0.0,0.0,0.0,0.0,0.0,0.0,0.0,0.0,0.0,0.0,0.0,0.0,0.0,0.0,0.0
1.0006505165814363,1.099297856921975,1.127644353105337,1.0982379258910924,1.0342808665872723,0.9623755220276349,0.9043272151353668,0.8738831208122588,0.8730802386581035,0.894224303444767,0.9241005274738336,0.9484867293492862,0.9586823084655763,0.952252376762374,0.9331139976326155,0.9090821222629817,0.8880981852308576,0.8762309342254234,0.8752273517452646,0.8827852339171858,0.8940637170521295,0.9038638385996028,0.908577325032408,0.9072216304518516,0.9013217677177491,0.8938691808849811,0.8879033835494086,0.8853235259679004,0.8863549372069436,0.8897735991072978,0.8936746447178326,0.8963841942461139,0.8971147366584982,0.8961281809690035,0.8944102183783208,0.8930670180387235,0.8927484198997379,0.8933548104624435,0.8941326429724629,0.8940810523368435,0.8924593913596143,0.8891546724071328,0.8847437739286321,0.8802280717946515,0.8765635217798292,0.8741964362748732,0.8728113542443836,0.8714082786364741,0.8686912629654077,0.8636234760445245,0.855933481190132,0.8458534480774783,0.8359773613786162,0.8281926420457096,0.8239740257546679,0.8237609621605663,0.8259716513984724,0.828709557865961,0.8274940162743921,0.8168844496801118,0.7915884431310006,0.7471721393658073,0.6828799096182248,0.599829652830878,0.5019921443794709,0.3957942215655003,0.2887309283532693,0.18988733898187643,0.1062287239942189,0.04237005830094495,2.227865846412096e-19,-0.022611106682415533,-0.02834760549259864,-0.022645001141419388,-0.011450788628938079,-1.0226346867656562e-18,0.007634804994595106,0.010719922978689476,0.009425921305606991,0.0051793591592383115,7.740126173179439e-19,-0.004661976890050762,-0.006715114581607524,-0.0060023586502796315,-0.003327859540838052,-1.3960388216287028e-18,0.002244293707997962,0.0034318006280201294,0.003249330594217635,0.0019034351520609682,9.436921007568892e-19,-0.00216933961995978,-0.0031478805190694355,-0.002821507169015995,-0.0015620593076915174,-1.3620793791410149e-18,0.0008019885035874686,0.001295004068281101,0.0012836857060783977,0.0007813522185879142,7.3525053425372e-19,-0.001183656948519157,-0.001668221658008449,-0.0014457505354268734,-0.0007700655283494034,-1.0091743054218985e-18,0.00013791215652358773,0.00028117459907116586,0.00032697376194526485,0.00022349908376562502,3.3427759832646747e-19,-0.0006549600639276881,-0.0008755261929847577,-0.0007117566612233718,-0.00035042380990026685,-5.664027701641401e-19,0.0,0.0,0.0,0.0,0.0,0.0,0.0,0.0,0.0,0.0,0.0,0.0,0.0,0.0,0.0,0.0,0.0,0.0,0.0,0.0,0.0,0.0,0.0,0.0,0.0,0.0,0.0,0.0,0.0,0.0,0.0,0.0,0.0,0.0,0.0,0.0,0.0,0.0,0.0,0.0,0.0,0.0,0.0,0.0,0.0,0.0,0.0,0.0,0.0,0.0,0.0,0.0,0.0,0.0,0.0,0.0,0.0,0.0,0.0,0.0,0.0,0.0,0.0,0.0,0.0,0.0,0.0,0.0,0.0,0.0,0.0,0.0,0.0,0.0,0.0,0.0,0.0,0.0,0.0,0.0,0.0,0.0,0.0,0.0,0.0,0.0,0.0,0.0,0.0,0.0,0.0,0.0,0.0,0.0,0.0,0.0,0.0,0.0,0.0,0.0,0.0,0.0,0.0,0.0,0.0,0.0,0.0,0.0,0.0,0.0,0.0,0.0,0.0,0.0,0.0,0.0,0.0,0.0,0.0,0.0,0.0,0.0,0.0,0.0,0.0,0.0,0.0,0.0,0.0,0.0,0.0,0.0,0.0,0.0,0.0,0.0,0.0,0.0,0.0,0.0,0.0,0.0,0.0,0.0,0.0,0.0,0.0,0.0,0.0,0.0,0.0,0.0,0.0,0.0,0.0,0.0,0.0,0.0,0.0,0.0,0.0,0.0,0.0,0.0,0.0,0.0,0.0,0.0,0.0,0.0,0.0,0.0,0.0,0.0,0.0,0.0,0.0,0.0,0.0,0.0,0.0,0.0,0.0,0.0
