0.035672597143738626,0.039326332276056156,0.086562111124724,0.08553019058084482,0.06866501749496733,0.07380429031755677,0.07394121316355504,0.1015090928860182,0.12409671562150071,0.13090707696457107,0.12735358977882866,0.16748212565031423,0.21347537213233608,0.20049678311322566,0.22581912263054274,0.24621849171532065,0.29412137181515446,0.36953093777996254,0.3805863465880206,0.40293896433987375,0.3987609899360723,0.42208515484712766,0.41886861172120926,0.4755620633033223,0.4894853442149765,0.43901110003040944,0.448408868670617,0.4257988229663096,0.4306019127282041,0.462796487013336,0.5061477041165684,0.49578529509250235,0.4478916490202626,0.4434908270629338,0.4339163489044842,0.4299399885343124,0.4423313503600722,0.4386284550825174,0.46742230050869443,0.49084282328945994,0.5196507362219946,0.5375859016350149,0.5337892628544246,0.5352248300327073,0.5904686613795099,0.6130021577085889,0.6459920695112643,0.6461432142541537,0.6350013304539623,0.6449162844130637,0.6650053334202213,0.7005935479353856,0.6651401261270556,0.596385385965992,0.5861031122310203,0.6450089190109919,0.5892830368478894,0.5323048300369301,0.5496249617020587,0.5276626596626328,0.3150086488571136,0.14931592197327728,0.09531816062782662,-0.17672028545562857,-0.526415448318623,-0.8782107225860099,-0.6863793985893946,-0.24268162052652778,0.22603182445814066,0.4659148077197627,0.6500107312730675,0.6865803842661337,0.7054321550790378,0.7607194896777593,0.6958488160835871,0.6892508722742774,0.7194167847013306,0.6675680070462313,0.6742989999482822,0.6586500369210958,0.6207132087463295,0.5767883507080642,0.591805307782164,0.552369625724041,0.5450200235447448,0.5103931186337161,0.4809853505450613,0.45146485211120607,0.4597267852447795,0.4409941487676273,0.42235019013245295,0.3660318008107797,0.3801731002966604,0.39458496264644577,0.3606910780544635,0.36500514506196835,0.3535433982322146,0.33716439811316656,0.35914701304101515,0.381713236766916,0.3454685503034806,0.3855489791284435,0.3777122173350453,0.4030538428046765,0.4454013183419878,0.4561580159771982,0.45697291099523996,0.49651109414531375,0.46672867303684595,0.4865338012603169,0.5181256004876225,0.5345081182233914,0.5248938490968588,0.5433367662071039,0.5196035954139597,0.5617797611721256,0.5780119576361478,0.5953250135808985,0.5813003959618956,0.5629570668691566,0.5943294781450672,0.5889536063240691,0.6116654753175625,0.6246282585023938,0.5845983916771625,0.572613810269177,0.5940580172016128,0.5354307088094624,0.5209904981758958,0.46424983044662327,0.4300215648392139,0.41827208831164925,0.38033252445625965,0.3269723772645001,0.2959776453195514,0.22246278657618487,0.20905483587790397,0.1746546212247117,0.14623551035982443,0.10754056374639526,0.08013786542611288,0.06398024473436878,0.07523116806983612,0.03819123466518067,0.05007840362505599,0.024385348568374828,-0.006514563758836357,-0.026459126289902817,-0.040900230078071295,-0.012057818552633933,0.0005858238633213185,-0.05704676250966127,-0.039096907997980636,-0.015847693520382258,0.0018619859702140658,-0.023823655202575095,-0.03349418550940965,-0.02717738193327111,-0.0427235942656048,-0.026118043181788803,-0.020608117131399047,-0.026209289342952122,-0.05374243377557615,-0.022163387241128,-0.012533258546344413,-0.019452182962259503,-0.005097029595127833,-0.018101687607736023,-0.009833335429406443,-0.012712620592182908,0.02729961155267095,-0.0032703334241105924,-0.007152795665935648,-0.0005550689027990474,0.00031623265089255964,0.000869264515757159,0.0011085013803792218,-0.02057630341645776,-0.031758609569781354,-0.043239356032751086,-0.0009723136801817311,0.019404552331064043,-0.003709838277379991,-0.005457794792728361,0.02498193342374484,0.006568568236487175,0.004160546373759226,-0.025457313296412473,-0.006619269189601634,-0.0203638595518378,0.025188742229251073,0.03279152355225742,0.04028932714380356,0.04770107701680621,0.02802709948319809,0.024515312610831903,0.03178038107423621,0.044436846971376426,0.03548437649483413,0.01574816840904308,0.055493715816120295,0.04666501779864271,0.043316173496697113,0.07248265247093313,0.026107726429392037,0.033896191705116076,0.02561658181033937,0.03911084579372988,0.031165615858002094,0.050429875916425025,0.059093586040274745,0.0733832466601436,0.044680911728258506,0.08107496655583185,0.09071744076734094,0.046604109622866,0.06222595531789339,0.09977070800301191,0.08360003194294621,0.08397443232236074,0.10630984531532488,0.10198499471504952,0.12504797853204155,0.19172063009574705,0.18853585547484797,0.20196173441705198,0.19958446047165734,0.21383336838972614,0.21229264398958167,0.23279323418401024,0.30235766592083885,0.3669521134186793,0.41577067311477034,0.4271982481840445,0.4660765309619828,0.46755677577195415,0.4856688500738038,0.4825777362787148,0.4744827809623158,0.4829845970624231,0.5134703873503399,0.5064807886639473,0.4782053800013645,0.5204827174689419,0.5035981168604747,0.5139814615909555,0.45973870180609466,0.4543130292773406,0.43822760105480385,0.4438658498882322,0.47118694188415,0.4877257483146141,0.0,0.0,0.0,0.0,0.0,0.0,0.0,0.0,0.0,0.0,0.0,0.0,0.0,0.0,0.0,0.0,0.0,0.0,0.0,0.0,0.0,0.0,0.0,0.0,0.0,0.0,0.0,0.0,0.0,0.0,0.0,0.0,0.0,0.0,0.0,0.0,0.0,0.0,0.0,0.0,0.0,0.0,0.0,0.0,0.0,0.0,0.0,0.0,N
0.7005935479353856,0.6651401261270556,0.596385385965992,0.5861031122310203,0.6450089190109919,0.5892830368478894,0.5323048300369301,0.5496249617020587,0.5276626596626328,0.3150086488571136,0.14931592197327728,0.09531816062782662,-0.17672028545562857,-0.526415448318623,-0.8782107225860099,-0.6863793985893946,-0.24268162052652778,0.22603182445814066,0.4659148077197627,0.6500107312730675,0.6865803842661337,0.7054321550790378,0.7607194896777593,0.6958488160835871,0.6892508722742774,0.7194167847013306,0.6675680070462313,0.6742989999482822,0.6586500369210958,0.6207132087463295,0.5767883507080642,0.591805307782164,0.552369625724041,0.5450200235447448,0.5103931186337161,0.4809853505450613,0.45146485211120607,0.4597267852447795,0.4409941487676273,0.42235019013245295,0.3660318008107797,0.3801731002966604,0.39458496264644577,0.3606910780544635,0.36500514506196835,0.3535433982322146,0.33716439811316656,0.35914701304101515,0.381713236766916,0.3454685503034806,0.3855489791284435,0.3777122173350453,0.4030538428046765,0.4454013183419878,0.4561580159771982,0.45697291099523996,0.49651109414531375,0.46672867303684595,0.4865338012603169,0.5181256004876225,0.5345081182233914,0.5248938490968588,0.5433367662071039,0.5196035954139597,0.5617797611721256,0.5780119576361478,0.5953250135808985,0.5813003959618956,0.5629570668691566,0.5943294781450672,0.5889536063240691,0.6116654753175625,0.6246282585023938,0.5845983916771625,0.572613810269177,0.5940580172016128,0.5354307088094624,0.5209904981758958,0.46424983044662327,0.4300215648392139,0.41827208831164925,0.38033252445625965,0.3269723772645001,0.2959776453195514,0.22246278657618487,0.20905483587790397,0.1746546212247117,0.14623551035982443,0.10754056374639526,0.08013786542611288,0.06398024473436878,0.07523116806983612,0.03819123466518067,0.05007840362505599,0.024385348568374828,-0.006514563758836357,-0.026459126289902817,-0.040900230078071295,-0.012057818552633933,0.0005858238633213185,-0.05704676250966127,-0.039096907997980636,-0.015847693520382258,0.0018619859702140658,-0.023823655202575095,-0.03349418550940965,-0.02717738193327111,-0.0427235942656048,-0.026118043181788803,-0.020608117131399047,-0.026209289342952122,-0.05374243377557615,-0.022163387241128,-0.012533258546344413,-0.019452182962259503,-0.005097029595127833,-0.018101687607736023,-0.009833335429406443,-0.012712620592182908,0.02729961155267095,-0.0032703334241105924,-0.007152795665935648,-0.0005550689027990474,0.00031623265089255964,0.000869264515757159,0.0011085013803792218,-0.02057630341645776,-0.031758609569781354,-0.043239356032751086,-0.0009723136801817311,0.019404552331064043,-0.003709838277379991,-0.005457794792728361,0.02498193342374484,0.006568568236487175,0.004160546373759226,-0.025457313296412473,-0.006619269189601634,-0.0203638595518378,0.025188742229251073,0.03279152355225742,0.04028932714380356,0.04770107701680621,0.02802709948319809,0.024515312610831903,0.03178038107423621,0.044436846971376426,0.03548437649483413,0.01574816840904308,0.055493715816120295,0.04666501779864271,0.043316173496697113,0.07248265247093313,0.026107726429392037,0.033896191705116076,0.02561658181033937,0.03911084579372988,0.031165615858002094,0.050429875916425025,0.059093586040274745,0.0733832466601436,0.044680911728258506,0.08107496655583185,0.09071744076734094,0.046604109622866,0.06222595531789339,0.09977070800301191,0.08360003194294621,0.08397443232236074,0.10630984531532488,0.10198499471504952,0.12504797853204155,0.19172063009574705,0.18853585547484797,0.20196173441705198,0.19958446047165734,0.21383336838972614,0.21229264398958167,0.23279323418401024,0.30235766592083885,0.3669521134186793,0.41577067311477034,0.4271982481840445,0.4660765309619828,0.46755677577195415,0.4856688500738038,0.4825777362787148,0.4744827809623158,0.4829845970624231,0.5134703873503399,0.5064807886639473,0.4782053800013645,0.5204827174689419,0.5035981168604747,0.5139814615909555,0.45973870180609466,0.4543130292773406,0.43822760105480385,0.4438658498882322,0.47118694188415,0.4877257483146141,0.5258589355274076,0.4990797877224395,0.5046040543345087,0.5477824421346915,0.579926342365096,0.5847664828608374,0.5892601258322747,0.5879395341521358,0.6185634583994755,0.6594472376961125,0.6402700050887457,0.6420106154122356,0.5997453823779366,0.5728320324141274,0.6152216139713045,0.6619813678206706,0.631964420872749,0.5412868166468773,0.5735754956172465,0.5774265782700475,0.31497444920007867,0.03468173844751327,-0.004183140317982145,-0.17458241918718098,-0.49823878154600043,-0.8725737026805319,-0.7572633058721809,-0.2225165752488656,0.24004246350772435,0.5062611128496821,0.6249032110446113,0.7041705368141176,0.7279771215937489,0.7126555514715869,0.7015531689044535,0.7272063945696746,0.7302855941139459,0.6784758934063385,0.6691470689088236,0.6753808819339036,0.6216226348009092,0.6214430267051992,0.6154919127011291,0.5714344368822692,0.5109694583913225,0.5044260924566345,0.49784627668925663,0.512920936081953,0.4740722798804505,0.4786376887536239,0.4456307577302502,0.0,0.0,0.0,0.0,0.0,0.0,0.0,0.0,0.0,0.0,0.0,0.0,0.0,0.0,0.0,0.0,0.0,0.0,0.0,0.0,0.0,0.0,0.0,0.0,0.0,0.0,0.0,0.0,0.0,0.0,0.0,0.0,0.0,0.0,0.0,0.0,0.0,0.0,0.0,0.0,0.0,0.0,0.0,0.0,0.0,0.0,0.0,0.0,N
-0.17458241918718098,-0.49823878154600043,-0.8725737026805319,-0.7572633058721809,-0.2225165752488656,0.24004246350772435,0.5062611128496821,0.6249032110446113,0.7041705368141176,0.7279771215937489,0.7126555514715869,0.7015531689044535,0.7272063945696746,0.7302855941139459,0.6784758934063385,0.6691470689088236,0.6753808819339036,0.6216226348009092,0.6214430267051992,0.6154919127011291,0.5714344368822692,0.5109694583913225,0.5044260924566345,0.49784627668925663,0.512920936081953,0.4740722798804505,0.4786376887536239,0.4456307577302502,0.4669804246784907,0.4508883047831507,0.4514530181003918,0.4417157414818075,0.4487521870225962,0.46181010348316176,0.47553867511384207,0.5007958148670666,0.4998039447440622,0.5212418507808955,0.5327306312308647,0.5451182121449711,0.5854608936736693,0.6429864956202643,0.6474794387240279,0.6584092308126243,0.686609029058697,0.732101340086997,0.7300610864666931,0.729136794528517,0.7131291892873322,0.7252758218335952,0.7385628473505114,0.763798549398264,0.7415396884614943,0.7528348665547071,0.7652517137257029,0.74635409584795,0.7501609205502608,0.7658432126805337,0.7123204160207591,0.6976369189173008,0.6677231705883541,0.6225429245762156,0.5836713128108084,0.5348545997513449,0.4436250937478644,0.3963933723965396,0.3606868516489424,0.2932236069880433,0.24258245772733875,0.17088188904837598,0.15371643748867603,0.08295469064674721,0.07201531682456518,0.018169399515866977,-0.0029909225834967687,-0.03475454514380482,-0.023143853182037252,-0.01684783579990825,-0.02132384942612257,-0.047431329195853425,-0.05199089196988233,-0.05666279964315254,-0.05068029947065237,-0.03407861424314333,-0.028502869126415527,-0.028576555563557805,-0.045131494977700796,-0.024152643008761136,-0.019694252822024576,-0.015560452820386102,-0.02797557595794017,-0.03533672218967552,-0.021442013041734403,-0.03493036406208633,0.016057006715148668,-0.008976008146957702,-0.018167388582973024,-0.01692048832234457,0.00017042330913544533,0.0060906089268480445,-0.020770990455073003,-0.026373954763364273,-0.010712683189364719,-0.0007974656530588735,-0.012830215867789173,0.02884977547712297,0.01617934203329633,0.024820267733039678,0.0007459535910804486,0.01961797854167851,0.022005936517584722,0.013323474372092385,0.009791487430551714,0.011419766648331655,0.018218054023363857,0.03559971370561618,0.04195962250043798,0.042710875468958076,-0.005366755383633904,0.03282770367217217,0.043826490667645095,0.02763894376379777,0.03290729524701618,0.03802580894766211,0.032195942661360166,0.047848398061646966,0.05256956483190988,0.030156631166154562,0.013039635668389204,0.0012263906542480235,0.02714671874640453,0.03136788917079538,0.04631958268454679,0.023376134442294708,0.03279259151989354,0.05836501609861087,0.035256193138930185,0.03912427629886419,0.026746299436328766,0.030550610300032623,0.018121271896751456,0.027290024741514502,0.0310443677325554,0.03479373882320178,0.011525345239724753,0.02068508825361516,-0.007969490511233348,0.012025745418850656,0.005025312093048466,-0.001946428801663028,-0.0413056124644336,0.016642188342412368,-0.011818071660704185,0.04083763034222218,0.03412472258443598,0.022090882142336184,-0.02767525254520518,0.009121544781492507,0.03522828024544733,0.03444710312499768,0.01759838281142901,-0.004497683539489192,0.027612126493925058,0.02207844358894082,0.03295110013567391,-0.010004804637979429,0.017508116771682816,0.00742999453740949,0.046233324322671736,0.0420691493622701,0.043583942246993676,0.03998349346231861,0.0745101680827062,0.0391031122408006,0.05265562805492998,0.05573940684916343,0.04836634842899548,0.07377750790984355,0.08335115131059895,0.07709828902043957,0.08745159017800475,0.08199918742005283,0.06615453088147832,0.12098217021341369,0.17083962601911737,0.16169853099447531,0.1908326826615926,0.22042308877817837,0.2396681991928765,0.2701874371441051,0.3119843105258073,0.3326389007895226,0.3807849182282824,0.3969808249232215,0.4244530847974061,0.4307746673576029,0.4915900048625473,0.48260524341546174,0.4956712412043287,0.48214078286830364,0.47982304270424936,0.4886990295490266,0.4601142398664557,0.45888899089347124,0.43636403502754595,0.45735509448946005,0.4245653321537297,0.4406317564015748,0.42446415825798667,0.44627314461352324,0.47900097352229837,0.48478031317096265,0.5013929462534742,0.47475568429744164,0.49668217163922157,0.5076806598124003,0.5671378604588376,0.572327569291005,0.5934384823598996,0.5871791698104095,0.6075214611106637,0.6489937780733751,0.6628920708969951,0.6599495165706504,0.6617033361248519,0.5870175450760049,0.5492853034551403,0.6078600436968674,0.6113489610253627,0.5002187586293673,0.5337501587541241,0.636193268997167,0.6345293016895817,0.44759883546089174,0.35088210685150834,0.2415995668467897,-0.026259521985396748,-0.43659672754893014,-0.9246780098352732,-0.8367268138019812,-0.38346742013481666,0.11097811525950843,0.4143867131439782,0.6133518151923086,0.7242169608833443,0.7633226229368539,0.7686203699912798,0.7402321993158615,0.7539277745901632,0.7233626808066632,0.7567211863502734,0.7298257350051078,0.0,0.0,0.0,0.0,0.0,0.0,0.0,0.0,0.0,0.0,0.0,0.0,0.0,0.0,0.0,0.0,0.0,0.0,0.0,0.0,0.0,0.0,0.0,0.0,0.0,0.0,0.0,0.0,0.0,0.0,0.0,0.0,0.0,0.0,0.0,0.0,0.0,0.0,0.0,0.0,0.0,0.0,0.0,0.0,0.0,0.0,0.0,0.0,N
0.2415995668467897,-0.026259521985396748,-0.43659672754893014,-0.9246780098352732,-0.8367268138019812,-0.38346742013481666,0.11097811525950843,0.4143867131439782,0.6133518151923086,0.7242169608833443,0.7633226229368539,0.7686203699912798,0.7402321993158615,0.7539277745901632,0.7233626808066632,0.7567211863502734,0.7298257350051078,0.6968164022280461,0.6577928218385968,0.6560805775812135,0.6647541339749354,0.624462599630696,0.5731179859044115,0.564840219591609,0.545672776880493,0.5156931022668659,0.5019943081369939,0.47763013590293557,0.4588812510121651,0.42960385525625905,0.4601107240344533,0.4531984279497487,0.44675321832326675,0.4300259672261629,0.4354947469704573,0.4524060457313775,0.46460049495954553,0.4937422188314425,0.5182635845141174,0.5165944904635248,0.5157953570755232,0.5645387387769975,0.6142283845023938,0.6162652204924642,0.6247170076125615,0.6666300291475874,0.70960697303784,0.7158435148226017,0.7069722537658557,0.7424479646700983,0.7250151892013383,0.7249288135627191,0.7313849101183937,0.7443832850901867,0.7260943330192845,0.730547273795232,0.7145014703202555,0.7589972555302135,0.7397315783205675,0.7269300456318074,0.6881446599800091,0.6773826572449342,0.6297668890639121,0.6155088014327273,0.5751283894918474,0.5031793633464294,0.44824934996837895,0.4373087434293064,0.3784447530349407,0.2986233450664252,0.2626343483372256,0.18396307951973265,0.12739656113894499,0.10368410339576742,0.08574862475221168,0.014090449744554801,0.002127210193777995,-0.015044947810084005,-0.02127470005000309,-0.04904240629673567,-0.044367537210619486,-0.06133848944078653,-0.08379161445902877,-0.06853904032629299,-0.04263276516145724,-0.04392563437630788,-0.06703700926298399,-0.0417379271679233,-0.04909607594603309,-0.024275838575659507,-0.026721556677935247,0.003005677849803556,-0.01614834886450521,-0.003127488195224042,0.009648678308164951,0.027586620963645697,0.023670686340592568,0.014114517082232101,-0.006483079525119359,-0.011101291262513186,0.011070272228945239,0.03301730117473339,0.006110713445488664,-0.004801473906395219,-0.010522783894266629,0.021373150615504242,0.026047469905363958,0.03592743390765912,0.02940337980869037,0.02269121991367618,0.010392002507457315,0.04654713417834098,0.023087592028532517,0.0372839319576123,-0.002722179353236751,0.01655054989055405,0.03566593406276436,0.02220610103877224,0.04101922687993886,0.0002466783419005495,0.02958046636981396,0.037161751389789284,0.028397772441257872,0.008695582754894059,0.010480489826857934,0.012140965166699706,0.0244875033867378,0.009697425136638219,0.0055994381407246906,-0.009418270123370804,0.024087648587837174,0.003451059727406947,0.009730802839721277,0.032123152949080656,0.0003838646662053698,0.01718626801387889,0.0014785965659937625,-0.008910058515765705,0.002234669533823488,0.013302239179455855,-0.024336298541869958,0.0028004184217373697,-0.002547426713384422,0.02987439204396852,0.0028062859135795626,0.0027136112728394415,0.002584446199446622,0.002425251457391442,-0.003161204362436651,-0.0033611270427965855,-0.019782497557250533,-0.030803543565334383,-0.009396934138446687,0.033641833232565845,0.0010592857516855487,0.017152631699383438,-0.00992809597508364,0.011692144443949956,0.03879735656952723,0.017364127052229693,0.001442433573248436,-0.003550946264687267,-0.01381395907449484,-0.0023147801222390585,0.009346614394300425,0.031992543686673945,0.01700480847379346,0.0022239175257666786,0.02008661533778921,0.04899284277677284,0.045727723273074006,0.026516607052401102,-0.003222742799893118,0.03757881373068338,0.05707298679136027,0.06067752515095219,0.07002092996594847,0.036483568743906986,0.03573008165773722,0.04075502069598185,0.06237851395286233,0.12222784424923544,0.15547111449947415,0.1729273259909047,0.2448551744148467,0.26319107554729204,0.2657695606618404,0.2580017695714959,0.2507011924923288,0.28710210513677925,0.35099705795175906,0.39915876961930585,0.4369913170939943,0.42126366827872386,0.45464194589328843,0.48848714731479076,0.5065800722158219,0.5251211533384541,0.4954641395139628,0.46622638048350973,0.45900435241321136,0.4575664455811932,0.4943118685016459,0.4503345228321822,0.45529508421107484,0.428108485820067,0.39035729013200293,0.3744292775790378,0.3424624465455704,0.35385914978526484,0.3437354049695505,0.36608640399323944,0.3830430728093349,0.42157865794925536,0.4438203397186198,0.4389115867841052,0.45003044121938685,0.4663159580315087,0.5309417345840053,0.5357760176362709,0.5618131730194637,0.5657602649146515,0.5691656994474731,0.5989787331931121,0.5956869088843401,0.5267931706146108,0.5002931445654428,0.4944915209316306,0.5309199224492019,0.5500523106335348,0.5193783886547436,0.4550182226792155,0.5460070180092225,0.5652944025389616,0.31824934963275736,0.1452022520190145,0.06766483537808149,-0.27110944818182786,-0.6658848427862349,-0.9762439881735203,-0.5159346606841662,-0.014375857207620264,0.36104508124987444,0.5131900096498159,0.6151029402717763,0.6777149419191913,0.6849356116264468,0.7233410636197416,0.6903752136667788,0.6780108138612505,0.6917582964068664,0.7047026279480484,0.0,0.0,0.0,0.0,0.0,0.0,0.0,0.0,0.0,0.0,0.0,0.0,0.0,0.0,0.0,0.0,0.0,0.0,0.0,0.0,0.0,0.0,0.0,0.0,0.0,0.0,0.0,0.0,0.0,0.0,0.0,0.0,0.0,0.0,0.0,0.0,0.0,0.0,0.0,0.0,0.0,0.0,0.0,0.0,0.0,0.0,0.0,0.0,N
0.06766483537808149,-0.27110944818182786,-0.6658848427862349,-0.9762439881735203,-0.5159346606841662,-0.014375857207620264,0.36104508124987444,0.5131900096498159,0.6151029402717763,0.6777149419191913,0.6849356116264468,0.7233410636197416,0.6903752136667788,0.6780108138612505,0.6917582964068664,0.7047026279480484,0.6466958823307798,0.5988896289122535,0.5937990903124234,0.5990923436926633,0.5716271387171561,0.5709281353548892,0.5484435504217638,0.52046289710344,0.503272946367825,0.4699284328613838,0.4799404428797629,0.4415146940520951,0.43036856108225713,0.41954730533413237,0.4199197910848858,0.41533438862080735,0.40584840638184055,0.4185354723903335,0.41021935516529734,0.4457953155657735,0.4442572235805477,0.4596887014935683,0.4759233200413603,0.5092144270221589,0.5379872358615121,0.583893847919789,0.6037395236107446,0.6569965096454168,0.6572346942637453,0.7017457752526891,0.7149004281979076,0.7399467634753155,0.733670448944773,0.7555233584988451,0.7838985089148082,0.8133961771057543,0.8007869657361442,0.7730852407508574,0.7789160811634237,0.7696344740455154,0.7722430214005745,0.7543000053001062,0.7482039976109447,0.7269093269403317,0.6741739393772596,0.6602110144780011,0.6579641344134782,0.5971441462925835,0.5371469094244089,0.4725211463868788,0.39240921477250135,0.36700629833109705,0.3043952412403239,0.24774903391808892,0.1807986730465269,0.1305033505695601,0.07518824117991908,0.0634256973148864,0.04652146895488532,0.002799385206200477,-0.02997648567266242,-0.030253127172732687,-0.05212618453107553,-0.0686332401746301,-0.08522900004802314,-0.069535895181977,-0.04860873161177516,-0.03328467171004993,-0.045203618521668903,-0.06277287904072987,-0.04818442816496188,-0.05548682463336821,-0.009035747643405454,-0.011503020422887554,0.018165486725965088,-0.02810377749256443,-0.015218888912493516,0.0027859727105853855,0.0259148659242231,0.021749759840888835,0.017312965758288144,-0.02521746478510809,0.007639452208691283,0.0024125678603080926,0.034759468873539784,0.05064942786847347,0.03928097767480875,-0.00474392287402439,0.010442715166168674,0.030809991638775753,0.0347490296788265,0.022265515374870547,-0.006635038929690964,0.012896918791401882,0.021426948123106047,0.05138309143056793,0.00010130267245279654,0.0026791659302320067,0.026700208001905097,0.018133225286163297,0.047231503450659205,0.011330501469090629,-0.008509463312794643,-0.006879639713931418,1.4814842281969293e-05,0.028391472003438094,0.008009035329140922,0.003718047693375474,0.004717502412775371,0.021821091217214213,0.017209368991226597,0.0016958947717175404,-0.013905858451253302,-0.0025713884144913405,-0.007522702059554431,-0.0017337317847953954,-0.001407129338828254,-0.006534344013138159,0.015315384083294716,-0.016903828664090518,-0.000512847917208178,0.032077085254009985,0.016032702994966896,-0.010809517167837922,0.011001539132058324,0.01122971114437891,0.006097651125065046,-0.009786761821976282,0.012221113427602124,-0.003517775029480505,-0.013761596682940457,0.0031170961626555633,-0.0015007717068797003,0.02643561467530866,0.0004815523267776976,0.039532017620056446,0.057142172986866774,0.03171113420927766,0.03890395787414665,0.01929356074091926,0.026929929317513437,0.013193047877520575,0.05374738881488616,0.06214698103222791,0.03300077345826374,0.02035787604637177,0.029634120488236382,0.07164891593703107,0.0653589761105431,0.0323905622485032,0.080828476809675,0.09180283176348657,0.14097578796828827,0.1797244244982702,0.2134619080573793,0.1935637142187429,0.22811094952116753,0.24686233740619035,0.27684168727625436,0.2856311024625489,0.33267384935261113,0.34231978490672443,0.3740090839876662,0.42233605884885345,0.444067396942196,0.4229860702936571,0.40771698160265046,0.46849763564171654,0.5134531210723989,0.5209540143293682,0.4963867208360369,0.4505387204966159,0.442828124539538,0.4516156027365888,0.46066328996980105,0.4483273837923234,0.3767507406882461,0.3593769945290898,0.358344876408322,0.35200235828704624,0.33490665815459275,0.3394389887445878,0.3493457749995397,0.3483717446670129,0.37970035052526246,0.40545811473077614,0.4255954156943754,0.4022348497802208,0.4325888666471348,0.46256488575534116,0.4542792013733396,0.49413041771520155,0.5010008108220335,0.5072474503511145,0.5236101839521907,0.5175968890307991,0.4513091456906871,0.44355264432637564,0.434809403507959,0.47903648831057194,0.46267473298537276,0.39644719937107936,0.4693960512114428,0.43826712994464617,0.13545543954079103,-0.07708564078044713,-0.15081680562702993,-0.372219540024962,-0.7737880766128398,-0.7071177015633843,-0.1451533050320456,0.2691711718995415,0.47112925755677065,0.5526998326843953,0.5680336676247928,0.6037008447263942,0.6057729456466822,0.628392118556308,0.5797981429877145,0.5735674680457962,0.5881816625729931,0.558889993567446,0.5884528438959418,0.5688843111913835,0.5218838528433256,0.5285885535793324,0.4918114734290059,0.45485869000179036,0.4340154255954143,0.4077388734580694,0.3815024530151663,0.40400697900470517,0.3942630566315502,0.3955638938356715,0.3917602554821899,0.3450862116132782,0.0,0.0,0.0,0.0,0.0,0.0,0.0,0.0,0.0,0.0,0.0,0.0,0.0,0.0,0.0,0.0,0.0,0.0,0.0,0.0,0.0,0.0,0.0,0.0,0.0,0.0,0.0,0.0,0.0,0.0,0.0,0.0,0.0,0.0,0.0,0.0,0.0,0.0,0.0,0.0,0.0,0.0,0.0,0.0,0.0,0.0,0.0,0.0,N
-0.7071177015633843,-0.1451533050320456,0.2691711718995415,0.47112925755677065,0.5526998326843953,0.5680336676247928,0.6037008447263942,0.6057729456466822,0.628392118556308,0.5797981429877145,0.5735674680457962,0.5881816625729931,0.558889993567446,0.5884528438959418,0.5688843111913835,0.5218838528433256,0.5285885535793324,0.4918114734290059,0.45485869000179036,0.4340154255954143,0.4077388734580694,0.3815024530151663,0.40400697900470517,0.3942630566315502,0.3955638938356715,0.3917602554821899,0.3450862116132782,0.3690768924941815,0.38273324992778013,0.36449486209205706,0.36304722376005105,0.3892482524744025,0.410724616534676,0.45454150975873986,0.48832160058181323,0.5229147187385239,0.5637645731046265,0.5946975409788037,0.6373629355929599,0.6647739834334673,0.6823627996772385,0.7333839303873556,0.7476112455446408,0.7736958917293956,0.7468080131974322,0.7588205840003225,0.7557035043760933,0.7752854277246346,0.7635286816635308,0.7690616231497506,0.7702609612355494,0.7617105974176754,0.7596052988915497,0.7260992317909093,0.742223707742129,0.6998776340949873,0.701699697864639,0.6449852751450236,0.5837329318068093,0.5287085747873319,0.4852715131083987,0.45877841224894256,0.38973936031989553,0.3267357365575207,0.24809914123997442,0.20240737122803543,0.17339283187634097,0.11776852024832361,0.06789807595543149,0.03452983276303267,0.012200747193506419,-0.015359755381670927,-0.026596555838671758,-0.04858618913473367,-0.048962191794723865,-0.060197635665977134,-0.07693518643152046,-0.03437131923942618,-0.06763133267723191,-0.057864335266274824,-0.0645344258299859,-0.03902662106255373,-0.024582354152497623,-0.015806237501509928,-0.012704227438507803,-0.00987709944897586,-0.012731780618531478,-0.015866901206604615,0.0077348350500118035,-0.022981353247252725,-0.021556229394185812,-0.004198279224539477,0.007482380018857226,0.018894426184049913,0.008428103452835626,-0.002297004458162393,-0.013276072976316911,0.02953273319511946,0.01265845380286836,0.033373471713900885,0.021436049725960363,-0.012340527467524167,0.007701068657063107,0.022127357701707033,0.03094529252261492,-0.003664039416881795,0.004764917390086758,0.002202406011524881,0.042692230708242296,0.05058988270814771,0.02049847003930133,-0.009749718212693152,0.03009958005063527,0.015769100119681193,0.02832123831998494,0.035341047863323725,0.015220798857022233,0.05982984897142801,0.007064554982021715,0.02444540881808656,-0.006902133209959696,0.010294433016041946,0.00039053128907702605,0.02823719445257641,0.01818979287470385,0.040502895511131044,0.04114635759856369,0.025530303618795727,-0.03876110243425452,-0.027437125942967815,-0.010735803016300127,0.0005479085233236204,0.022638467009112928,0.01772353552603841,0.002027456475431797,0.0025818421426865557,-0.013022177083652352,-0.0015419742120761052,0.010018484594442364,-0.010748299590389584,0.006420029981235011,0.0075022283755828995,0.008724848820075666,0.042525444783602005,0.011653224089934983,0.007985955716060826,0.03153880310806148,0.0390974557752829,0.00906216253653402,0.011695523988128547,0.0037828311473046762,0.017760826065855304,0.04824047712533018,0.024988512892712703,0.029074439756950156,0.02268669564529344,0.05447244112670841,0.06500513831928977,0.07591316574197102,0.07099882213190628,0.07188978141650866,0.11102072103081907,0.12355973244531845,0.20678472955297098,0.23642215916242446,0.2665188494373762,0.26466157841681315,0.2902983388102586,0.3110132527545609,0.34302210415269996,0.3809244048379147,0.3760885175259653,0.43118391933493716,0.4381347161564123,0.4671842732410735,0.47509650089776045,0.45645872827003375,0.5355442110398204,0.5718436393027941,0.5599370067053137,0.5052088061772804,0.4994995989774761,0.5157664768015191,0.5269640338470333,0.47362220997403986,0.43676397074500134,0.4217584040991557,0.4069540179015382,0.3869082489777721,0.39400225413947865,0.4011747838974675,0.408381015005626,0.4209777975947909,0.44431993989072416,0.45674174897585074,0.47440106508898333,0.5026460862584506,0.5252079215037767,0.5744482798718805,0.5530379423492013,0.579791987715565,0.5735865972789077,0.582983355408099,0.5916968275285848,0.567227626396426,0.5365138780431105,0.5318945516128628,0.5694948959279095,0.5897859908255427,0.5332360686685751,0.5186318281685629,0.5999131508462839,0.45275977750249974,0.13650967618396193,0.040122985441580584,-0.020230839314295885,-0.34185980755650797,-0.7249315157481566,-0.9047369326601872,-0.4651951395452007,0.01558375019279383,0.4026355152593541,0.5609958564412855,0.6529008201456465,0.6460511947689065,0.6810622402312623,0.6878024954130204,0.6879996411480704,0.6709558437526061,0.6529882257989635,0.6666215928328687,0.6363039004415252,0.6539938278811289,0.638729136860547,0.5905995078825512,0.5799392580655337,0.5527951287603465,0.5416698296354648,0.5250265138750231,0.4867293055648785,0.44306177916353545,0.4265161132355799,0.4749859502875712,0.44263770571593514,0.44301202402908807,0.422133279769959,0.4016751419335317,0.3870981310957817,0.42168651421306214,0.44064903773367814,0.4224217736803206,0.42109010034266603,0.0,0.0,0.0,0.0,0.0,0.0,0.0,0.0,0.0,0.0,0.0,0.0,0.0,0.0,0.0,0.0,0.0,0.0,0.0,0.0,0.0,0.0,0.0,0.0,0.0,0.0,0.0,0.0,0.0,0.0,0.0,0.0,0.0,0.0,0.0,0.0,0.0,0.0,0.0,0.0,0.0,0.0,0.0,0.0,0.0,0.0,0.0,0.0,N
-0.020230839314295885,-0.34185980755650797,-0.7249315157481566,-0.9047369326601872,-0.4651951395452007,0.01558375019279383,0.4026355152593541,0.5609958564412855,0.6529008201456465,0.6460511947689065,0.6810622402312623,0.6878024954130204,0.6879996411480704,0.6709558437526061,0.6529882257989635,0.6666215928328687,0.6363039004415252,0.6539938278811289,0.638729136860547,0.5905995078825512,0.5799392580655337,0.5527951287603465,0.5416698296354648,0.5250265138750231,0.4867293055648785,0.44306177916353545,0.4265161132355799,0.4749859502875712,0.44263770571593514,0.44301202402908807,0.422133279769959,0.4016751419335317,0.3870981310957817,0.42168651421306214,0.44064903773367814,0.4224217736803206,0.42109010034266603,0.46371888764717434,0.4963157113067594,0.5459410172029412,0.5856159771299868,0.5829553539262077,0.6244519258691611,0.6885219714422424,0.7157528921131294,0.7331875147535574,0.7624614082199305,0.7495549659189051,0.8133625049779237,0.8025906322061183,0.8145111331400984,0.7842814028372241,0.7875504243217998,0.791889674193723,0.8134998045585962,0.8253480740666939,0.8166087116218766,0.798066536391113,0.7859059637486833,0.7368669469766195,0.7319701325971368,0.7117368222751049,0.665317771082557,0.5980712131600238,0.5477741315643982,0.5089710849895508,0.4329744592517364,0.3683603218274389,0.2934547450595403,0.21900403499453122,0.19357878516126445,0.11444547504406785,0.08420942776638976,0.010942941192996547,-0.018960692579786605,-0.021778141936863688,-0.06782106650603956,-0.04907764171293748,-0.11690620402360438,-0.08222863472333826,-0.05856174705675374,-0.07295567453425317,-0.028170364530267007,-0.053913362166669164,-0.0637423663459182,-0.04145778446237185,-0.024890760894282788,0.007571970229186894,-0.035931224867102096,-0.009500130779876744,-0.021204043430374447,-0.011597299450450136,-0.0022874098508770583,0.022944970857106808,-0.0007357832968451333,-0.0030734317361931105,0.021344185004580556,0.02389272585831206,0.04240661105082678,0.006646556326928094,-0.007727594828156056,0.004696137576715412,0.03852310915245294,0.007303463266234648,0.03533064145360843,0.025347199447150522,0.025994856099709904,0.015667373266833026,0.03760253384022142,0.026964457357317454,-0.010835094395800597,-0.010944022695775655,0.021242970253412142,0.015488070919503211,0.03664534082712742,0.03068782054142814,0.04085459391649778,0.04013676110602063,0.044754651997668315,0.03310264103921949,0.026804312912149617,0.0042536527777715565,-0.0021186957154702853,0.045521569063474134,0.006687534743050223,0.005672344636469893,0.015466089594921741,0.00365515285700124,0.013477349843030987,0.01792264743626384,0.016999341387551464,0.0323303548379865,0.026098054172388745,0.03073247438510866,-0.007795348033688208,0.023999526520750093,0.018051928925583764,-0.00941880716965828,-0.020578721371613293,-0.020822392507194403,0.02228331033130327,0.01688887340887128,0.049466086852647195,0.022761561815834216,0.03405411515250759,0.04012678938632336,0.02478085302470978,0.036661524951583674,0.00012927737659503696,-0.003748902523011694,0.025038783020576563,0.032467695412216155,0.050971938876762664,0.031930266537549976,-0.008434672331346654,0.0379621591575988,0.03604103289665053,0.04525448399858372,0.043999678607964325,0.010673556596938399,0.02093906435491166,0.0802112646422019,0.08583153050641203,0.08644385296317116,0.10907707686697696,0.1483375393478442,0.20423471140127294,0.23895156757897873,0.26870685376781633,0.2394702908354975,0.2971463883976412,0.33906921317840927,0.3490302141839358,0.38106697533559397,0.38114175038629355,0.4140958312731987,0.42048398145472055,0.4327214411748978,0.4670103105052528,0.5179358089066235,0.5314477075304678,0.534548376612244,0.4893933781384358,0.5310533373814729,0.5190087908525425,0.480251676573103,0.441771337520659,0.41974735691259224,0.38172399585176997,0.37089492621644954,0.37641511875621253,0.36041929349166135,0.37690283563258775,0.41501517728188003,0.41527075277042164,0.42085182711973174,0.4371128342414785,0.4315803490321065,0.46904498733954253,0.48460690508909643,0.49982278099505567,0.4876137574793554,0.5127610251148096,0.5481807891406606,0.5992087664962422,0.5468933104469413,0.5208490237543152,0.47236635943466976,0.4608067512765855,0.513107195731627,0.526514083196731,0.43609699328894336,0.5065473073579406,0.5918746032023405,0.4596270578703101,0.26101111584874326,0.23368979150315874,0.04253479355131464,-0.36659201669276814,-0.7992597450490326,-0.86106653881366,-0.3250486723840102,0.11721390851590895,0.4009989308868426,0.5102166489178199,0.5908856893293046,0.6052970332289485,0.6292159715642175,0.63033118378002,0.6411723542518403,0.6510365816922875,0.6492177589521987,0.6520249199538503,0.6109197015202884,0.5800303861164823,0.5432343713475882,0.560057664179006,0.5333168571290586,0.5225324407029659,0.4899560123060091,0.44106599068822233,0.44077881657914386,0.40810938560487836,0.4403918047761448,0.4134072912710797,0.381256275587493,0.3818260834341292,0.36654326622444067,0.3895023720079855,0.36430045559538005,0.35043196405886035,0.33714169270707933,0.0,0.0,0.0,0.0,0.0,0.0,0.0,0.0,0.0,0.0,0.0,0.0,0.0,0.0,0.0,0.0,0.0,0.0,0.0,0.0,0.0,0.0,0.0,0.0,0.0,0.0,0.0,0.0,0.0,0.0,0.0,0.0,0.0,0.0,0.0,0.0,0.0,0.0,0.0,0.0,0.0,0.0,0.0,0.0,0.0,0.0,0.0,0.0,N
0.23368979150315874,0.04253479355131464,-0.36659201669276814,-0.7992597450490326,-0.86106653881366,-0.3250486723840102,0.11721390851590895,0.4009989308868426,0.5102166489178199,0.5908856893293046,0.6052970332289485,0.6292159715642175,0.63033118378002,0.6411723542518403,0.6510365816922875,0.6492177589521987,0.6520249199538503,0.6109197015202884,0.5800303861164823,0.5432343713475882,0.560057664179006,0.5333168571290586,0.5225324407029659,0.4899560123060091,0.44106599068822233,0.44077881657914386,0.40810938560487836,0.4403918047761448,0.4134072912710797,0.381256275587493,0.3818260834341292,0.36654326622444067,0.3895023720079855,0.36430045559538005,0.35043196405886035,0.33714169270707933,0.35690211869582655,0.3665325239602529,0.42552031169143906,0.43124067489175666,0.4810028112441952,0.5100033847022807,0.5507028807211358,0.6031371592337423,0.6241098926517209,0.6514769264639407,0.6960725893554591,0.7363058771214839,0.7505823051942755,0.7821478584871444,0.7715748632353523,0.8053310747083482,0.7861552957716972,0.8059110764160284,0.7997513375802726,0.8000911971636316,0.7853049817999233,0.8148182064300239,0.8183641574490298,0.8229382736766584,0.7852840718505348,0.7594071805325688,0.7452725093556147,0.688804378407928,0.6169785701782616,0.5729784608860853,0.5459475493493217,0.46018231848315333,0.3804721819876265,0.3445858563968466,0.29842760861922535,0.20411102038650134,0.14803280406237138,0.09770770793629835,0.04766813638807317,0.003253363760685944,-0.04100493244529442,-0.04734565698916068,-0.06986636642640685,-0.07620125146119879,-0.06099626174724006,-0.051312183324562895,-0.06339664908659427,-0.07026298326238814,-0.06653320440281361,-0.00899690131924231,-0.005740361192977362,-0.04056439372969514,-0.027021433039453657,-0.040770437140995985,-0.011568457243446644,0.017354064367336407,-0.0026358948419361173,-0.006694179906613172,-0.005627894964208764,0.005967529547463354,0.006478801586262864,0.0013109955267500012,-0.009534525901392801,-0.015249048021721565,-0.010426629628701346,0.015743798393634555,0.0200375031823713,0.013266465664298187,0.017049925080427963,0.020584978834226945,0.05089439383562319,0.06475300380834556,0.04595378425850151,0.010711462432397114,-0.024759464192582802,-0.04424455169636605,-0.015315966257172655,0.002595781914404618,0.047327864140220964,0.059451212247568705,0.03897699318398489,0.018338152146163307,0.02456376019496162,0.003627607937432713,-0.00663408957338827,-0.0008072109277235924,0.03733035402445329,0.015927207100814657,-0.010968896759257676,-0.010924999255895788,0.010667145199872712,-0.00021629318587708317,-0.0003329710271429823,0.01033004160297305,0.03178570626361665,-0.006200897397579731,-0.006350791884556613,-0.006476391887742069,0.015050962987230703,0.004209038879783043,0.02585647019365315,-0.017258507238704215,0.015374100171078492,0.004889321527814243,0.005339845093643486,0.011337862924532899,0.03370657812983237,0.029232344620881354,0.035756536539172545,0.026276230854040076,0.0062104012573527744,0.02961100331765211,0.026245338781471388,0.03395414635771967,0.02033020326730695,0.028617626472586106,0.03181260102358838,0.051544282140039394,0.05540487346996317,0.08123415120127811,0.053394350229272934,0.020531922048481643,0.031293051181687404,0.0586723099798881,0.10808618983404329,0.1363177755157362,0.10555329061646984,0.12387761691234978,0.175090485643027,0.2592020464126766,0.2573406298539135,0.28299147837651456,0.25510609465580036,0.27635966093926695,0.3467561781774139,0.4284725107663487,0.45666539306693954,0.44214092658967546,0.48216179753199395,0.47945602835539247,0.48264857048586035,0.49713254406228835,0.5391060144824537,0.5383056934674992,0.5379428614767582,0.48936356017631155,0.5114251982948916,0.5338539639629928,0.5241992429412046,0.5094482234798627,0.4733560388261312,0.42128999198953415,0.39644077395548954,0.3771528182490194,0.3741906516964934,0.4145279531127989,0.43327398309478105,0.4682058353660423,0.47604324851722435,0.47834777112022797,0.5236969677850588,0.5255740301111261,0.5487625502373494,0.5877956621711924,0.5669559258460615,0.5726333397431412,0.6263709165535509,0.652442579286058,0.602137515349194,0.5780446689629435,0.520639596133625,0.5595237364246496,0.6243597939192697,0.6015782410750985,0.5343131268259994,0.6007874734863704,0.6441935182510583,0.44828002261797617,0.21287582943440622,0.13780754014751728,-0.04181572374945732,-0.47740826553272303,-0.8610676796608098,-0.8578278105526733,-0.33257683347987793,0.14199658806409368,0.45254812170885833,0.6154210271219632,0.6793783767355647,0.7526206376362483,0.7217940307330613,0.7275139386227351,0.7158596819005394,0.6923474153516173,0.711122827720528,0.7074472024956222,0.6976334563141555,0.6493578553195443,0.6329630832544452,0.6107149920548459,0.5989130613500133,0.5652206039364294,0.5151236928013551,0.5081423673377301,0.4849131478008971,0.5049509572534937,0.4656579166663297,0.4373513582832564,0.42550213504810575,0.3977531583918306,0.4190114387503619,0.4353010542747066,0.3926439880586777,0.3991704242169056,0.37928348911451293,0.4032836530379811,0.0,0.0,0.0,0.0,0.0,0.0,0.0,0.0,0.0,0.0,0.0,0.0,0.0,0.0,0.0,0.0,0.0,0.0,0.0,0.0,0.0,0.0,0.0,0.0,0.0,0.0,0.0,0.0,0.0,0.0,0.0,0.0,0.0,0.0,0.0,0.0,0.0,0.0,0.0,0.0,0.0,0.0,0.0,0.0,0.0,0.0,0.0,0.0,N
0.6441935182510583,0.44828002261797617,0.21287582943440622,0.13780754014751728,-0.04181572374945732,-0.47740826553272303,-0.8610676796608098,-0.8578278105526733,-0.33257683347987793,0.14199658806409368,0.45254812170885833,0.6154210271219632,0.6793783767355647,0.7526206376362483,0.7217940307330613,0.7275139386227351,0.7158596819005394,0.6923474153516173,0.711122827720528,0.7074472024956222,0.6976334563141555,0.6493578553195443,0.6329630832544452,0.6107149920548459,0.5989130613500133,0.5652206039364294,0.5151236928013551,0.5081423673377301,0.4849131478008971,0.5049509572534937,0.4656579166663297,0.4373513582832564,0.42550213504810575,0.3977531583918306,0.4190114387503619,0.4353010542747066,0.3926439880586777,0.3991704242169056,0.37928348911451293,0.4032836530379811,0.4496069425915617,0.4696689717068931,0.47972725729133614,0.49063328865652356,0.5402545527321494,0.5799972152675505,0.6207052124988658,0.6462011844218095,0.6727267430112516,0.7057129107344001,0.7181652709195308,0.7749484255951489,0.8058314046916644,0.8216345521604039,0.8007521072904527,0.8080330692120488,0.8434782822844586,0.8584514374437756,0.8097156874855513,0.8269476289759782,0.8128652813662868,0.8052745106413035,0.7933440052016211,0.7824494648278877,0.7239258300720296,0.7150034690121284,0.6691840355675481,0.6188465521594392,0.5693482990344266,0.48281402819941716,0.386209795930258,0.37134339544309114,0.28145144336507594,0.2461636999024845,0.20057606497306574,0.16624207568998287,0.11067747377737802,0.07704867926118969,0.07069580402390001,0.005096027439811,-0.04956712632057629,-0.03391751706863743,-0.07229939026831467,-0.06750291993377364,-0.04119235515623659,-0.052851287005618953,-0.08090420451505231,-0.04433010408583607,-0.018806994495059893,-0.02597188065122886,-0.038826867540544194,-0.04658263057315432,-0.04925351510853033,-0.030638403403630405,-0.00695357413669464,-0.02143079159198812,-0.025438612199448978,-0.01897666972164099,-0.02365689825644716,-0.012456315860300333,0.030842948313961727,-0.012632032808232564,0.008429622027284733,0.018385465581274286,0.0172445179785609,0.021226745169250417,-0.012888444878707331,-0.004037127561086944,0.004561223358599071,0.007513272400044103,0.042655095283781586,0.007327069641372616,-0.001194507888922172,0.011696716929286609,0.018992494807159557,0.05312498973183827,0.006030610205379585,0.007407386143155589,0.02484293978139833,0.03673221482114827,0.021470030748746753,0.016891495149026835,0.023005853500579973,0.01820754982104363,0.02952402635661427,0.051560558810521566,0.008674445004557732,0.01975517798902771,-0.028666000345382935,0.0039149779069937,0.009435658381855535,0.0365402654152299,-0.0012190051068885135,0.004242313031474489,0.004302103576559039,-0.0010286576791334618,0.03149041755333771,-0.000799524488087383,0.010185995766359299,0.005017477064313629,0.02153159373908616,0.027317164775296804,-0.015440777751272875,0.0013420014228144401,0.02364082690879399,-0.0025689833921064935,0.041605506245034056,0.0264882300585566,-0.020890387465510134,0.012958813731625954,0.030783487511651213,0.03800112870870592,0.02381804048688379,0.02066977001159189,0.017762311351077937,0.015108913726478743,0.03433745455085249,0.026827905431383782,0.06284100980711589,0.03431596169886688,0.016916735451973322,0.08090345458109328,0.1344257804911187,0.15047712108010416,0.18850908013111561,0.22151364102769905,0.233289203109739,0.24005513365413236,0.29585538824784774,0.2764113069234876,0.3330303922310638,0.37385319837492037,0.4096885201739632,0.4243248869267577,0.46639293049970404,0.40079606660520023,0.4490782095483873,0.492349476849286,0.5305986841560011,0.5205827513622956,0.45688170012459944,0.4583575719555874,0.470952387931605,0.44600955659200786,0.4483473959824738,0.41309369208002655,0.3726402156403629,0.39179874745593724,0.36246146909029714,0.3332253013884723,0.3364743151355383,0.3073246884744106,0.3267902569499076,0.3461950174625341,0.3871091632228159,0.36843125069966803,0.3927829953457568,0.4006738929314058,0.4244740225767456,0.4479183467746153,0.4817581019020882,0.4664944544831989,0.49933286052669124,0.4937513490394692,0.4712990373815263,0.4211004986508933,0.3809110627082402,0.4317133879187013,0.4329373788064419,0.3845064418512982,0.4214338001179529,0.5274277351145292,0.4214141378875382,0.20597748915655842,0.1350031815948284,0.07871435117639725,-0.2871989941719014,-0.7304682772554182,-0.7918431084385323,-0.2875913453936359,0.1339277746682595,0.3701539400517871,0.4806365469487952,0.5141157822796925,0.56255886378911,0.5396090233640698,0.5750538501320592,0.5825310651406639,0.5621343821821323,0.5193582816442563,0.5353459427550916,0.5237238911743268,0.5115932401001988,0.5044377671080095,0.4591055785490341,0.4243048058504953,0.4109155301556358,0.41360467333106,0.4216334234148519,0.3864351456656409,0.3621110029414626,0.370338150419406,0.3895624987145886,0.3766133897478967,0.3531623686381588,0.3354754181863849,0.3236057176291324,0.3392194858293463,0.34994453111268653,0.3720400789652108,0.35151577488901536,0.37487506470841253,0.0,0.0,0.0,0.0,0.0,0.0,0.0,0.0,0.0,0.0,0.0,0.0,0.0,0.0,0.0,0.0,0.0,0.0,0.0,0.0,0.0,0.0,0.0,0.0,0.0,0.0,0.0,0.0,0.0,0.0,0.0,0.0,0.0,0.0,0.0,0.0,0.0,0.0,0.0,0.0,0.0,0.0,0.0,0.0,0.0,0.0,0.0,0.0,N
0.1350031815948284,0.07871435117639725,-0.2871989941719014,-0.7304682772554182,-0.7918431084385323,-0.2875913453936359,0.1339277746682595,0.3701539400517871,0.4806365469487952,0.5141157822796925,0.56255886378911,0.5396090233640698,0.5750538501320592,0.5825310651406639,0.5621343821821323,0.5193582816442563,0.5353459427550916,0.5237238911743268,0.5115932401001988,0.5044377671080095,0.4591055785490341,0.4243048058504953,0.4109155301556358,0.41360467333106,0.4216334234148519,0.3864351456656409,0.3621110029414626,0.370338150419406,0.3895624987145886,0.3766133897478967,0.3531623686381588,0.3354754181863849,0.3236057176291324,0.3392194858293463,0.34994453111268653,0.3720400789652108,0.35151577488901536,0.37487506470841253,0.4097386931497076,0.44534024756736107,0.47631494587323703,0.5026994585288315,0.5299317536717801,0.590465682196775,0.6356972565766945,0.6818636879664418,0.7127769335294195,0.7230528996123295,0.7667444004367715,0.7844233706915855,0.7815020623540446,0.7741961637863075,0.7895248143419606,0.8004664898850747,0.7962067564082581,0.7875418945751479,0.7744568455138601,0.7623362918939072,0.745753685598835,0.7679117800885565,0.720706581030207,0.7067737453159367,0.6828459865315111,0.6002488051430989,0.5670109856621556,0.523644254579153,0.46469429583833,0.400915212915262,0.316040389559697,0.26404903520662354,0.19084519407168965,0.12879045813928147,0.08322706891346665,0.0486892654442827,0.0034998328938137158,-0.009174536011748061,-0.04343339256102811,-0.03449447294259895,-0.07427808544795901,-0.07637984611497926,-0.057058220329935884,-0.054179134397202684,-0.06237366008326484,-0.07626772213684016,-0.06886660280545975,-0.040186735157399955,-0.033467443940627714,-0.03250376440370396,-0.03729859014062433,-0.010025972131678535,-0.010122644506746145,0.0002418375872986172,-0.03296366660997345,0.009147436959648127,0.007702986864438348,-0.015673563541902576,-0.006936723915390732,-0.014709420690028507,0.02045966370634656,0.01752758371825197,0.008928555760148987,0.01628935010684084,0.023410937634264425,0.04111260402595421,0.0748098386598868,0.027248019584495544,0.03893403783728405,0.050438515933481934,0.03475395722334726,0.040524122376732974,0.04614476803240107,0.01920408970676191,0.019152599457169253,0.0135781660557447,0.007894317267699671,0.02912922997089391,0.028659532059425702,0.01730217754080942,0.04910341113185598,0.032210051265008685,0.004456972876525919,-0.01793582715106886,-0.0025373364675075204,-0.0033737068328568735,0.028199056806303618,0.0219443264864119,0.015698918266014397,-0.022948291779280396,0.003279795952415835,0.029552083624621594,0.007248494754484742,-0.004177609883872953,-0.015520736020108557,0.000250762245147603,0.03234425052509963,0.04294869692479211,0.042886021085843766,0.048381607157258116,9.115345758568879e-06,0.011259699977860523,0.006495741554065517,0.01815314929376792,0.003016290425479545,0.02594302642935833,0.00048818467976006,0.040142595118084885,0.04224991521002421,0.044649262230903985,0.06356482520299568,0.044972739640954135,0.04292240825270083,0.04121517862115347,0.0290558629680581,0.04968585994796399,0.03827283791871281,0.05426883957884791,0.07607052749967838,0.09288165141005485,0.1317313354422778,0.16561144681169415,0.21614630733480034,0.2725373352656408,0.28075543411976595,0.27322901273996386,0.28238507619185177,0.3028235086398956,0.3723722163301374,0.38295825161759606,0.3940208617731671,0.4325753037712704,0.43917599646810285,0.4462377431081258,0.5294025850627753,0.5481631624799863,0.5025051290173791,0.5004849825341534,0.4556242553325575,0.47057075107036356,0.4696485800053691,0.49065676380987894,0.4633183908959045,0.4092166436564223,0.42558389740462826,0.3989069905865849,0.39399204900756496,0.3567622604187565,0.3304050691267558,0.35270245637598674,0.3911869211242224,0.43500391582043196,0.43547118222289194,0.4735925890911702,0.4520484125502261,0.47345269304424936,0.5053252295036252,0.498972415842665,0.4921569873634459,0.5118318260042269,0.5525252774131125,0.5385152978177714,0.49674698658600797,0.4757774675126149,0.4485098711452772,0.5067258926634735,0.5044430976590623,0.4415758578679188,0.49635743808912786,0.5876422912007416,0.39652050125535876,0.21469496944238917,0.18796727457525658,-0.04580792758920795,-0.4489046565661949,-0.9295557876090768,-0.7258953229210183,-0.1621084863301567,0.24855968461061137,0.46840332673111934,0.5677889190801689,0.611676919439059,0.6163918333866663,0.6360808628733574,0.6546402976290272,0.6073301337214286,0.6023248300446551,0.5910891105669115,0.5953325178935575,0.5881285259265733,0.5479513111562186,0.5343272981931688,0.5149176246267593,0.500610190416791,0.46986824542972416,0.4605930082406322,0.4242244800694476,0.42027394418845393,0.41098433623188113,0.418036962223804,0.37665220525270154,0.38415873574833054,0.3649656048515932,0.3461498486762357,0.3493829992571103,0.34770174462199877,0.36817781839238306,0.36222970616884675,0.3731365999276654,0.4063501257404963,0.45651268549425783,0.464227856816543,0.48897787829064954,0.5416095541027639,0.0,0.0,0.0,0.0,0.0,0.0,0.0,0.0,0.0,0.0,0.0,0.0,0.0,0.0,0.0,0.0,0.0,0.0,0.0,0.0,0.0,0.0,0.0,0.0,0.0,0.0,0.0,0.0,0.0,0.0,0.0,0.0,0.0,0.0,0.0,0.0,0.0,0.0,0.0,0.0,0.0,0.0,0.0,0.0,0.0,0.0,0.0,0.0,N
0.5876422912007416,0.39652050125535876,0.21469496944238917,0.18796727457525658,-0.04580792758920795,-0.4489046565661949,-0.9295557876090768,-0.7258953229210183,-0.1621084863301567,0.24855968461061137,0.46840332673111934,0.5677889190801689,0.611676919439059,0.6163918333866663,0.6360808628733574,0.6546402976290272,0.6073301337214286,0.6023248300446551,0.5910891105669115,0.5953325178935575,0.5881285259265733,0.5479513111562186,0.5343272981931688,0.5149176246267593,0.500610190416791,0.46986824542972416,0.4605930082406322,0.4242244800694476,0.42027394418845393,0.41098433623188113,0.418036962223804,0.37665220525270154,0.38415873574833054,0.3649656048515932,0.3461498486762357,0.3493829992571103,0.34770174462199877,0.36817781839238306,0.36222970616884675,0.3731365999276654,0.4063501257404963,0.45651268549425783,0.464227856816543,0.48897787829064954,0.5416095541027639,0.5843341302918544,0.6388006166086848,0.6834256671264103,0.7182374589185808,0.7324533934286722,0.7747277526724303,0.8018486091338515,0.8354443126686033,0.8106803358753945,0.8194246724065891,0.8130456019902618,0.8239624959941692,0.84676490580197,0.8328088289778869,0.8145012180246568,0.835052219902612,0.8241906447977331,0.8143110334014236,0.7891706921940363,0.7595412523551052,0.6929609652037462,0.6758452278719452,0.6108808781572947,0.5736691106590762,0.4831013672969607,0.38775452366593716,0.34160671910502777,0.26354217290889526,0.21293905686121764,0.13569696076654575,0.0857879947515388,0.07395415645109493,0.013670788044485242,-0.0194767605337126,-0.0471694342185146,-0.05866425214746817,-0.08103950711795739,-0.0603127300603677,-0.05056733816930087,-0.07345894342478515,-0.06417948589580863,-0.07679487057086572,-0.046483961868158764,-0.048913989215796275,-0.040866822546377114,-0.02775279822135135,-0.031189408006635853,-0.018754714643620187,0.01495778586571889,0.015915907457729632,0.005738898792005801,-0.02637614655661399,-0.004773295693870881,-0.0159044875176722,0.010485490812385471,0.0041577025404093155,0.01915778125305394,-0.014753283021540256,0.032121536238036916,0.02470038382247113,0.03864473469868222,0.01452395905993017,0.0009808188931939496,0.003428569558699903,0.027280461512580068,0.05093133181377054,0.025757484864551455,0.0058048761770669605,0.0018898984690798198,0.01402155693223231,0.009786771803456499,0.027020223473204732,0.022501354635025853,0.017853623891786817,0.013085660336102825,0.040628079297687254,0.014030487158819856,0.0035489854366030516,-0.034037658772559,-0.012262394096318224,0.004042045390907288,0.020291920803443768,0.014885076791042515,0.009448690550807472,-0.006812210650759157,-0.0230779297871295,-0.012317084919154798,-0.0015328942130529506,-0.0015163679593650596,0.003960025430665999,0.02572028234988427,0.0043405491297010875,0.03710354177533554,0.015952143056214993,0.005746786251885897,-0.025918401634473853,-0.003375737316225156,0.05177869822577313,0.042297635193532544,0.027640243170792504,0.04565076324963792,0.04231075105615459,0.071675118980004,0.052706586585351996,0.03945949633250977,0.02654745538928975,0.057216986883849096,0.05583353768793589,0.06564321210749585,0.07585504277208989,0.0756777340952182,0.08133800746951508,0.09825484739720519,0.11023211468699719,0.12809157512771066,0.15725076409672215,0.20312657651353216,0.27653880029469075,0.2856363019573419,0.33309901835593475,0.3162656466303625,0.3432167092093419,0.4085538829250939,0.43122561901411877,0.46527030721524243,0.4728616338744121,0.486418789247344,0.5059365237763667,0.5260034765589925,0.5898388702679415,0.6001636370359406,0.6001914203239752,0.5466739947609316,0.5530668322938134,0.5328865392174738,0.5509499755169543,0.509960959218511,0.5395750821350461,0.4884540652294452,0.47544089413266366,0.4572657346792423,0.460904205760556,0.44308180967800076,0.4469806122258575,0.4887620675350107,0.4873191683176301,0.5128454824998965,0.5382659148964957,0.5743285608507875,0.5831457111187304,0.6349003698308705,0.6268548893613707,0.6562045798647206,0.6364165226913954,0.6700832919494076,0.6922802228871973,0.6975197720963111,0.6424851800110939,0.6405628977422491,0.637622107197621,0.7038134102405669,0.644503937331296,0.6379111681729697,0.7433684164299307,0.7067924096602419,0.4416102153568427,0.28273234861845353,0.23544268218967207,-0.057022834654913514,-0.48671301427933844,-0.8916344593696487,-0.9260224403459667,-0.4331562961352108,0.11694581336665667,0.5082798029026789,0.681547700762051,0.744963050611911,0.7581028751230673,0.8129625476562927,0.8232122357792863,0.7997842687626623,0.7752215768193342,0.7604483742373923,0.7501739614444329,0.7607185536296593,0.7273434263494226,0.6771685988320896,0.6697325290941121,0.6619003835424249,0.6375523761756653,0.6129874869957705,0.5936941497410576,0.5311209407037117,0.5118054489769105,0.5466310985369527,0.4843683768068031,0.503409472356981,0.4687307553656827,0.4236274942424404,0.4276036514956181,0.4266838072278463,0.4209271960321941,0.4428129945879118,0.42755204842261646,0.4508486495215622,0.4857350463432379,0.5160485916046244,0.0,0.0,0.0,0.0,0.0,0.0,0.0,0.0,0.0,0.0,0.0,0.0,0.0,0.0,0.0,0.0,0.0,0.0,0.0,0.0,0.0,0.0,0.0,0.0,0.0,0.0,0.0,0.0,0.0,0.0,0.0,0.0,0.0,0.0,0.0,0.0,0.0,0.0,0.0,0.0,0.0,0.0,0.0,0.0,0.0,0.0,0.0,0.0,N
0.7067924096602419,0.4416102153568427,0.28273234861845353,0.23544268218967207,-0.057022834654913514,-0.48671301427933844,-0.8916344593696487,-0.9260224403459667,-0.4331562961352108,0.11694581336665667,0.5082798029026789,0.681547700762051,0.744963050611911,0.7581028751230673,0.8129625476562927,0.8232122357792863,0.7997842687626623,0.7752215768193342,0.7604483742373923,0.7501739614444329,0.7607185536296593,0.7273434263494226,0.6771685988320896,0.6697325290941121,0.6619003835424249,0.6375523761756653,0.6129874869957705,0.5936941497410576,0.5311209407037117,0.5118054489769105,0.5466310985369527,0.4843683768068031,0.503409472356981,0.4687307553656827,0.4236274942424404,0.4276036514956181,0.4266838072278463,0.4209271960321941,0.4428129945879118,0.42755204842261646,0.4508486495215622,0.4857350463432379,0.5160485916046244,0.5148168508457309,0.5469273566283926,0.5691914824127977,0.6140693765345253,0.6491741903613077,0.7015564766735597,0.7064009951159612,0.760999375076897,0.8113366949154269,0.8196052657463444,0.8128374930114037,0.8072543256242909,0.802861610558618,0.8158721962689782,0.8354765206475636,0.8238425459712369,0.8241892458973019,0.8148873238598975,0.7959180793504115,0.7996808129288302,0.7667082982999597,0.7618139335345425,0.7093116226392198,0.6523924040700965,0.666665845230382,0.61159108152648,0.5465600473177443,0.4607137887468155,0.40803477016653295,0.3128148503399212,0.2668579046331126,0.18904850831015954,0.1657839591225496,0.12675391130400937,0.0664913411789059,0.02275802530900622,0.02791172854850192,-0.026185558561152948,-0.04773585275497009,-0.06922330590989975,-0.05828338398644515,-0.03117808998887513,-0.0419896447560671,-0.0799531561979141,-0.05864823369588233,-0.06456462710942755,-0.02207613718971545,-0.0662939218322517,-0.03512468290167928,-0.031249107632678658,-0.043867282146792454,0.024282544113576283,0.005686005805216694,-0.002391100535190602,-0.005352912567517413,0.0022040177046550907,-0.039160504205996205,-0.005161589277315338,0.012342201725968002,0.002547987153150218,-0.00211774235052389,0.014560453367645857,0.009357743886317021,0.014700735494055057,-0.01803920107233867,-0.01860982506060869,-0.008619729259181102,0.011938978480377166,0.03767132992990922,0.0307602216611482,0.007425154397873576,-0.01611452493724375,-0.007428468794696037,0.022685767247936542,0.02560557856152239,-0.0040623189049496964,0.009343851532660779,0.017201629708788545,0.0141179427455678,0.043332745014810194,-0.008620777976605749,0.01497430515795509,0.006055461486423721,0.018670460731294018,0.015004495072968848,0.032894172851721776,0.0021024423679584106,0.019906144228178567,0.016068051749711442,0.03382810298742738,0.0029488913876756463,-0.0063114982210992375,0.006057173983785024,-0.03558576209483293,0.014669842445670137,0.02714987536096577,0.04509788708534084,-0.017931009717165353,0.01639835542066266,0.06164257311935176,-0.0010639234975658364,0.022826387031014594,-0.007166986314986725,0.006237238350678995,0.030632721757089493,0.03901677269800021,0.026001263807036223,0.0348309858917852,0.05471380724481946,0.04783902574943368,0.05745085448293026,0.061949116317047324,0.06675174312359825,0.0718726777779452,0.06651817089499522,0.08852722698409274,0.1162980462041619,0.1390357445797309,0.1675595736485749,0.20188073126800712,0.26362429450095065,0.29876282149449734,0.29649698628122306,0.30546644083916186,0.3094652036509808,0.3463225583758393,0.39442576958731224,0.4429677287479216,0.48654303444221153,0.48191831565999477,0.48852767444243445,0.5117660107304196,0.5678331403282058,0.5432380181891235,0.49200081687776004,0.4843500305212206,0.504052825228612,0.5132592283554098,0.5065388224981813,0.4784586239573507,0.43979415409183914,0.4067222212183176,0.4008211139335558,0.39503397396539097,0.378512976688699,0.36742671856283415,0.3941529412348764,0.44243443596048493,0.41495683446756854,0.4629728018518589,0.45674160737969366,0.47726369623731674,0.4920599656346723,0.5172820397210494,0.5474643653424301,0.5609277651819894,0.5576050416045527,0.5428298715869899,0.586777295091397,0.5488761471465973,0.5209105366823319,0.53522135648804,0.5484953852883038,0.5228204049517908,0.49593296438241796,0.6082369041485999,0.508398773324792,0.201724910358324,0.12040977252135968,0.04280161910628537,-0.32840340215555053,-0.7555451117048018,-0.9090695843941342,-0.3620848917749477,0.14519253802403667,0.43996699628012753,0.5709928975935968,0.6140408529840838,0.6232639015032602,0.6582156912494024,0.6811805274856253,0.6436320658948479,0.6483435752817005,0.6305710495135258,0.6174297880045733,0.6144172203103655,0.6000092925831374,0.5472751996381517,0.5049326457563827,0.5000818818393268,0.48416912461307604,0.47888592065561925,0.45728828244149416,0.40323718651737545,0.40866490800591687,0.4087950075686204,0.3874821158002747,0.38261561182932646,0.36183510711233774,0.3468150925365078,0.35922824981350004,0.3613050548199492,0.38552201755254595,0.38329865271966224,0.36549301917914795,0.3699796555499371,0.3968055182297804,0.44601571371815046,0.5014423267343202,0.0,0.0,0.0,0.0,0.0,0.0,0.0,0.0,0.0,0.0,0.0,0.0,0.0,0.0,0.0,0.0,0.0,0.0,0.0,0.0,0.0,0.0,0.0,0.0,0.0,0.0,0.0,0.0,0.0,0.0,0.0,0.0,0.0,0.0,0.0,0.0,0.0,0.0,0.0,0.0,0.0,0.0,0.0,0.0,0.0,0.0,0.0,0.0,N
0.6082369041485999,0.508398773324792,0.201724910358324,0.12040977252135968,0.04280161910628537,-0.32840340215555053,-0.7555451117048018,-0.9090695843941342,-0.3620848917749477,0.14519253802403667,0.43996699628012753,0.5709928975935968,0.6140408529840838,0.6232639015032602,0.6582156912494024,0.6811805274856253,0.6436320658948479,0.6483435752817005,0.6305710495135258,0.6174297880045733,0.6144172203103655,0.6000092925831374,0.5472751996381517,0.5049326457563827,0.5000818818393268,0.48416912461307604,0.47888592065561925,0.45728828244149416,0.40323718651737545,0.40866490800591687,0.4087950075686204,0.3874821158002747,0.38261561182932646,0.36183510711233774,0.3468150925365078,0.35922824981350004,0.3613050548199492,0.38552201755254595,0.38329865271966224,0.36549301917914795,0.3699796555499371,0.3968055182297804,0.44601571371815046,0.5014423267343202,0.5361078534172542,0.5770690752029798,0.6189580174830395,0.6510001410527297,0.6624178119172596,0.7072742920915686,0.7369596257350133,0.7731081508967952,0.7671026905666817,0.7946068249636876,0.8232067137759815,0.7934661474032599,0.7972478192359993,0.8237405495674167,0.8188997384446755,0.7989244974734968,0.7800098437609095,0.794557837544064,0.7560856954917595,0.7672354352640449,0.7631312373155333,0.7221228799306182,0.6765931182462028,0.6427100590321821,0.571794275082424,0.5448514276613721,0.4861776207868755,0.4011214229826895,0.30583633038620434,0.23808855053117395,0.2032206862644826,0.1687483952341742,0.11839735673747039,0.05750712333309483,0.01303137259646611,0.0011161360656464381,-0.016129412386861327,-0.011751953458798996,-0.07767757907286377,-0.10589513243399759,-0.09105598314365368,-0.07103087477266065,-0.040452466566491437,-0.04257978309534202,-0.039612817182040225,-0.03697695057697622,-0.05090116031464688,-0.048977797361417434,-0.03662013182951113,-0.06786989419822796,-0.034654958508255694,-0.028832883442509,-0.0017622749402337956,0.008742132169337138,0.024306242232656813,-0.00909559362665775,0.027428590211627683,0.025817094912617224,0.029311103522813506,0.010903839741939392,0.003028852473766041,-0.005109797904091558,0.040536084852154944,0.02650112564013604,0.044659558210104165,0.024775106280594303,0.020895893042352013,0.016822087549285842,0.03958318838279636,0.04055710050167121,0.0035436064539738524,0.036626908772266514,0.026340342985424512,0.0375384767664769,0.027002161069345144,0.02716356866774164,0.00020690706326814652,-0.021435921799012082,-0.010736696259440537,0.0377201247507334,0.015873838018143013,0.03181072176358294,0.004488201058220669,0.004166560943964339,-0.0015638417448061532,0.014327800753049773,0.019431973004073046,-0.007853553562460354,0.018942480340252785,0.007970664807906685,0.007877155746404112,0.013271276699627247,0.013358632574809924,-0.002655238077197465,0.030086646013467316,-0.00728357616528314,0.031146367233845146,-0.0005092395490775667,0.022047694537663892,0.012371818139627158,0.02991700943737664,0.04767821673847199,0.006228163260207728,-0.029576043401204136,0.005122673209632081,0.040092218000494395,0.0321188665201428,0.035254920371900526,0.0333046903034529,0.05330174479484022,0.04122429703960646,0.06733491649257335,0.08301502296794522,0.07206777511056202,0.09935110525319306,0.1162453211214697,0.15518542244854122,0.22158743148660343,0.2668298020520431,0.2530972385258289,0.2830687716625295,0.2865044307026922,0.3012364145603992,0.3326734141223608,0.32678214233364855,0.4024453848000916,0.4299750476768041,0.4634061194215435,0.4865236083555237,0.4723028472676217,0.49638664209519545,0.5695712862509306,0.5513475721899525,0.5281579730474792,0.5107906957086933,0.47760923076369355,0.5096444206156237,0.5041996250919055,0.5368970710765558,0.4672092944206794,0.4085790712808987,0.3717769360008404,0.39458977628312303,0.39051799817568295,0.4243630538019246,0.42583246142352066,0.4110904855007883,0.43412501608782483,0.4840777367758641,0.5068587265241018,0.5294308326660939,0.5193138964821974,0.5088692631090415,0.5466667188663812,0.5840072792120021,0.6046113017753144,0.6138109411528087,0.5737058948775096,0.5436590179433892,0.5398008628079883,0.5566445466302795,0.5832968083140517,0.5332100940281858,0.5143663864888266,0.6455523608633875,0.6781019314282147,0.5146488037221995,0.35502565157240434,0.3504294623040467,0.1333022400306008,-0.24242878171394025,-0.7228370359067832,-1.0,-0.5389719533907269,-0.03134736542350556,0.3879094597322671,0.5730298374051702,0.675445502174313,0.7114933421978772,0.7299289439117502,0.7524859400307609,0.725242804112843,0.7293662285579707,0.7109272982803565,0.7024523193769842,0.6662162130470402,0.6617566147437678,0.635130564571082,0.5972359448602601,0.5913895377949734,0.5474278751109066,0.5302765128677959,0.5183994019720874,0.5010652004494024,0.45673261582661195,0.4395093598167601,0.42244567170676656,0.41101166874196965,0.41607903519021844,0.41069164550493076,0.42192808625304484,0.3741949847767484,0.4134477080634521,0.41545578958216056,0.43430811084203624,0.43763260805938076,0.4362844799168987,0.47894249169034153,0.0,0.0,0.0,0.0,0.0,0.0,0.0,0.0,0.0,0.0,0.0,0.0,0.0,0.0,0.0,0.0,0.0,0.0,0.0,0.0,0.0,0.0,0.0,0.0,0.0,0.0,0.0,0.0,0.0,0.0,0.0,0.0,0.0,0.0,0.0,0.0,0.0,0.0,0.0,0.0,0.0,0.0,0.0,0.0,0.0,0.0,0.0,0.0,N
0.3504294623040467,0.1333022400306008,-0.24242878171394025,-0.7228370359067832,-1.0,-0.5389719533907269,-0.03134736542350556,0.3879094597322671,0.5730298374051702,0.675445502174313,0.7114933421978772,0.7299289439117502,0.7524859400307609,0.725242804112843,0.7293662285579707,0.7109272982803565,0.7024523193769842,0.6662162130470402,0.6617566147437678,0.635130564571082,0.5972359448602601,0.5913895377949734,0.5474278751109066,0.5302765128677959,0.5183994019720874,0.5010652004494024,0.45673261582661195,0.4395093598167601,0.42244567170676656,0.41101166874196965,0.41607903519021844,0.41069164550493076,0.42192808625304484,0.3741949847767484,0.4134477080634521,0.41545578958216056,0.43430811084203624,0.43763260805938076,0.4362844799168987,0.47894249169034153,0.48999860446305954,0.5451454036302943,0.5741736848207849,0.5933303859501667,0.6080522155639116,0.6453876325590402,0.7161710178188858,0.7447746572747056,0.7690445202709291,0.7457676635156554,0.7506082420135137,0.7511530969134234,0.7960405050861376,0.7880056478634456,0.7810827453989605,0.7644579268076206,0.7759465290484635,0.815534312034806,0.8237626841877528,0.8006094480164151,0.7730666834708309,0.7735261467046676,0.7317058227716526,0.6962007726139118,0.6561619268848903,0.5791220182306926,0.5460877627560508,0.5029709996838645,0.44971763030691625,0.3754636825612507,0.29095765279823926,0.2177535185525802,0.17740380257070745,0.13742314632276598,0.07613266276162715,0.04750428723660545,-0.02958240683803923,-0.025504592785567784,-0.05380219988972471,-0.06590235697185103,-0.04564915714951573,-0.07414665933202899,-0.06498052898181324,-0.08303240665300372,-0.0688931369794809,-0.022586148276059106,-0.04139455052519248,-0.0334705342448122,-0.05286169724402924,-0.007713117857721119,-0.038523060346921364,-0.03721981068646369,-0.025416297181319936,-0.008510874501837424,0.013504196480738579,0.024426425675631858,0.05128268947804053,0.018429836384511497,0.01773851525510247,0.027602018532426765,0.015606191464781788,0.030391930053416692,0.02873750500383951,-0.016367927185482904,0.003156627568131585,0.011668623770880734,0.02538804741060799,0.04972746763029886,0.009044137869657,0.011420157460615239,0.02444191999180653,0.03731047895455448,0.012208369376234887,0.024795204000090516,0.004831194754037467,0.017168410861712332,0.0023742746207759805,0.03610810375857563,0.03191882660499641,-0.0047822617858118074,0.01247116280921223,0.013439180652780056,0.02514803616744253,0.025990793322020245,-0.00023593040397721496,-0.021102534227180184,-0.025794111954309324,-0.0034937526513332145,0.0079847917985886,0.03026857317836459,-0.0068779439178399205,-0.0007727102108972937,0.021578674962121385,0.011555968668136601,0.006997688094608005,-0.008294499859544354,-0.012693208527753463,0.015429736734034114,0.054474282417725395,0.012592467605237776,-0.012935167212486358,0.021135062984460874,0.00674505303252278,0.03036904512413449,0.016370870200377027,0.0025914716253682356,0.026871710908874673,0.040593568589391144,0.05457936260642376,0.031018094673808554,0.050979437127700325,0.022615171185952205,0.016187200695320512,0.05332420316887875,0.0745995864206525,0.05300856714886869,0.07502325332208448,0.07581246884167131,0.13644400226621378,0.1974896025693419,0.24815344976250073,0.2614276986565135,0.2751474143053898,0.2839169206176888,0.3039538827683765,0.36768558410042496,0.4156752409226084,0.39929158961751965,0.43741534496850576,0.48681484777487605,0.49344889325747543,0.5275584653329115,0.5350974579033236,0.5592833535941781,0.51364265752278,0.4954241729192341,0.46137847427774625,0.503345640243399,0.4916125932832483,0.4963998714183247,0.4852556488401694,0.41491825923922654,0.3988303083029155,0.3829182703504003,0.383354455810609,0.3784835057650291,0.38987757852982685,0.4337032607527693,0.43426264242894713,0.4293329093054092,0.47290011356860057,0.5000672172212879,0.516182648026975,0.5049776164096013,0.5258322613920403,0.5570690083460392,0.5662002949802992,0.5801762454180444,0.6043294357775455,0.5629343525328022,0.5099507625315057,0.48852825944784467,0.5201991701987168,0.5130161147914598,0.48850637650582296,0.46279099429011095,0.5978879043342257,0.6343257473052659,0.3450522499360265,0.15145347743492057,0.09125254293736797,-0.11124159423903776,-0.5209769402555026,-0.9435143292800364,-0.6872266115913204,-0.13032549527894022,0.2409690130782282,0.4646061751577148,0.5677266892902438,0.6261020440334901,0.6344457005486376,0.6306974234936058,0.6473901260469417,0.6414020583879002,0.6506634225081498,0.6158349868734133,0.6180699271549112,0.5656006038211009,0.5503813815203717,0.577904928884179,0.5455875776196771,0.5399715436898133,0.49629329609529665,0.49028226450172774,0.46797709508735547,0.4564691713821508,0.4558291407762615,0.38507017955093353,0.36854299637475496,0.37388967629019665,0.38496149937735674,0.38560787626795173,0.37048365128794036,0.32883806147303046,0.36339575570893523,0.371539927158015,0.3911476125264617,0.42767191531561327,0.4217198322783101,0.45439188233042577,0.48790553226954025,0.5493201279442573,0.0,0.0,0.0,0.0,0.0,0.0,0.0,0.0,0.0,0.0,0.0,0.0,0.0,0.0,0.0,0.0,0.0,0.0,0.0,0.0,0.0,0.0,0.0,0.0,0.0,0.0,0.0,0.0,0.0,0.0,0.0,0.0,0.0,0.0,0.0,0.0,0.0,0.0,0.0,0.0,0.0,0.0,0.0,0.0,0.0,0.0,0.0,0.0,N
0.6343257473052659,0.3450522499360265,0.15145347743492057,0.09125254293736797,-0.11124159423903776,-0.5209769402555026,-0.9435143292800364,-0.6872266115913204,-0.13032549527894022,0.2409690130782282,0.4646061751577148,0.5677266892902438,0.6261020440334901,0.6344457005486376,0.6306974234936058,0.6473901260469417,0.6414020583879002,0.6506634225081498,0.6158349868734133,0.6180699271549112,0.5656006038211009,0.5503813815203717,0.577904928884179,0.5455875776196771,0.5399715436898133,0.49629329609529665,0.49028226450172774,0.46797709508735547,0.4564691713821508,0.4558291407762615,0.38507017955093353,0.36854299637475496,0.37388967629019665,0.38496149937735674,0.38560787626795173,0.37048365128794036,0.32883806147303046,0.36339575570893523,0.371539927158015,0.3911476125264617,0.42767191531561327,0.4217198322783101,0.45439188233042577,0.48790553226954025,0.5493201279442573,0.6224631416685619,0.6209114688944941,0.6365603080370835,0.6694392056892311,0.7303818841440373,0.7707782467390077,0.8068586959126639,0.8116203462053356,0.8012857118708304,0.813687966064703,0.8164084452526437,0.836464889220078,0.7819900121910741,0.7988742331035175,0.8114532116595782,0.8251138019533055,0.812816725307473,0.7745369737301925,0.7210528336476891,0.7333865490626245,0.7196390226856636,0.6581553205560323,0.6083320992808868,0.5647185736803457,0.4894388414088131,0.45809144079608677,0.3787584062007991,0.2946114627961192,0.2380130834614459,0.1656727585066891,0.13696869394286434,0.10860836165067173,0.0535095864199503,0.004030121758296873,-0.002068867123754302,-0.029696140932800787,-0.03568667881567086,-0.06333150679971802,-0.058652034162155024,-0.09735195570791952,-0.07140429976913629,-0.05649794077170522,-0.04185610171913408,-0.07613711007012311,-0.05128861867849018,-0.05378350040390307,-0.024190415913774813,-0.01655018071124245,-0.009249802697756354,-0.029307830765425993,-0.04970514256640799,-0.005594076752849264,0.005767372485558617,0.006002685915547346,0.005927956965246897,0.005551890547618141,-0.01132787581677158,0.0039304186436276084,0.0027033843329153638,0.0012117630135331668,-0.0005347548216079309,-0.013333843240151591,0.03307206325501147,0.019813023095661752,0.022551382384569437,0.0034721238911270256,-0.0049920521108804405,0.007976820288234335,0.004564067985282376,0.0334138460068872,0.035096701541939605,0.020430844971405415,0.0002343111927423333,-0.0038676085490771616,-0.013479058187593951,0.0200440160277688,0.015658646337244723,-0.005008329472489716,0.006688244346358098,0.03995352757331508,0.02455217478712052,-0.0016777741837318272,-0.006302081522491884,0.02149893297265956,0.011490359438241914,0.023125482536980987,0.007783944462412778,0.014111498296313729,-0.0065123683149156016,-3.8332515843056494e-05,0.017335716962648025,0.01320085727865484,0.03079958842386435,-0.016313957635194096,-0.003842312146017803,0.030403165943782274,0.016189407201031594,0.023778850699335833,0.047782345053090015,0.028773827473739178,0.037015298281874186,0.03469502891155561,0.02182686047643979,0.030846536120256403,0.03474921809286657,0.01733727291319006,0.03806440286623087,0.06992535553671418,0.06429997118387204,0.04281557070146368,0.07573226674121901,0.06579590110005559,0.0994770314431248,0.14436494293694044,0.17885578186459825,0.24078544444404476,0.27612638534953343,0.30650136484026996,0.29409129078396695,0.31455280280977493,0.36248588132734605,0.3946631792262309,0.4056812917226607,0.4333642747239273,0.4506900047204282,0.4684599461372744,0.5244917062039015,0.5377196063308826,0.5351489304876514,0.5329749155438714,0.4717386131123784,0.47570350446099735,0.47459825913318104,0.4683969984161652,0.4732825083584978,0.44599476126416876,0.4243265517876706,0.3920316521009929,0.365283788248584,0.36025472611663156,0.3877107259215117,0.37195737859205524,0.3940050347786827,0.41598124182578944,0.4378373318086843,0.45952255689646637,0.45936926306809733,0.4967626874527981,0.523012185316081,0.5434614206187176,0.514818329002726,0.5396874685765009,0.5369457288272234,0.5713666405782121,0.5293996346454427,0.502831096544734,0.4753711797763387,0.5225900709498095,0.5309268060383625,0.4570656383261642,0.527872129006832,0.6243740818901361,0.4006421328886758,0.12135955139290992,0.06201496208437138,-0.07469361774534464,-0.5050132921164087,-0.9264308610718212,-0.6851459970853052,-0.11073998535705433,0.3051606002563726,0.503234046266597,0.5916711701591977,0.5976050844864769,0.6454321699605394,0.67041704548763,0.6402431783183625,0.6522789856389922,0.641779305893794,0.6034361878916796,0.6075899810572055,0.5894860363622478,0.5762292140935605,0.5679030308533679,0.5051476503382571,0.4582886987505322,0.47603455955076607,0.461191984982558,0.4462536491375804,0.4042694483880146,0.38934223660084,0.38532501603448915,0.3922798799888194,0.39945963663686945,0.3745004157487989,0.34988050080702,0.34726894429012645,0.33969993601638176,0.34343536346628467,0.3152949438610879,0.3471886585169677,0.3905292517527703,0.40213141119491896,0.43067041908836207,0.43836067900707754,0.46306595068512274,0.4994183680462027,0.0,0.0,0.0,0.0,0.0,0.0,0.0,0.0,0.0,0.0,0.0,0.0,0.0,0.0,0.0,0.0,0.0,0.0,0.0,0.0,0.0,0.0,0.0,0.0,0.0,0.0,0.0,0.0,0.0,0.0,0.0,0.0,0.0,0.0,0.0,0.0,0.0,0.0,0.0,0.0,0.0,0.0,0.0,0.0,0.0,0.0,0.0,0.0,N
0.6243740818901361,0.4006421328886758,0.12135955139290992,0.06201496208437138,-0.07469361774534464,-0.5050132921164087,-0.9264308610718212,-0.6851459970853052,-0.11073998535705433,0.3051606002563726,0.503234046266597,0.5916711701591977,0.5976050844864769,0.6454321699605394,0.67041704548763,0.6402431783183625,0.6522789856389922,0.641779305893794,0.6034361878916796,0.6075899810572055,0.5894860363622478,0.5762292140935605,0.5679030308533679,0.5051476503382571,0.4582886987505322,0.47603455955076607,0.461191984982558,0.4462536491375804,0.4042694483880146,0.38934223660084,0.38532501603448915,0.3922798799888194,0.39945963663686945,0.3745004157487989,0.34988050080702,0.34726894429012645,0.33969993601638176,0.34343536346628467,0.3152949438610879,0.3471886585169677,0.3905292517527703,0.40213141119491896,0.43067041908836207,0.43836067900707754,0.46306595068512274,0.4994183680462027,0.5474514289351387,0.5747740585996937,0.6192402752917912,0.6646644308843653,0.6894541017981043,0.6990319373858898,0.7258355359844424,0.7266474912586213,0.7771277112147372,0.7908220930955557,0.7785388750209393,0.7618896995020243,0.762482316355572,0.7586912319428889,0.7613092157189179,0.7595105266789632,0.7640803342757291,0.7695889726566777,0.7327772008115123,0.6968407977989868,0.6455314070322852,0.5950192632258205,0.5236456186808829,0.4799965808637511,0.40998573324608745,0.36759784433404263,0.2933383684368389,0.2411881861427388,0.22730095659207544,0.1543518687159892,0.07631799396518651,0.04717563203103005,0.02363447449925949,-0.015981305919066758,-0.028503503674827575,-0.057221263008753874,-0.042751114562204,-0.039181417224812026,-0.046559676021632974,-0.07033335299395456,-0.03489029825079811,-0.05374045401308754,-0.07287639114645325,-0.02747821667165531,-0.04184788813273192,-0.05115597886270024,-0.05541323765564042,-0.03841451573503146,0.010646920682355183,-0.02170316801125863,-0.011177187619990753,-0.033421614429174004,-0.02358620236870709,-0.02489111533251029,0.005904591488635309,0.02558535954599107,0.028761355523948557,0.010042618180101204,0.018075834973961,0.04747085064325258,0.060415344041307995,0.008289398165466587,-0.0008205077884334423,0.027694799660192983,0.04521513793321412,0.06256065773806603,0.07434024595388579,0.04814408040217362,0.048828193718853156,0.060193189056401517,0.03361734992110911,0.0339559231215835,0.012586723111420192,0.01815362108025243,0.018245236521053518,0.023679532165648543,0.012852304014462017,-0.014226053326264206,0.01810630000036641,0.001787460796749084,-0.019941545641871217,0.006967655544186094,0.0068770316405661145,0.0014147416102894854,-0.009405806972260176,0.017658220400549637,0.03398800452323023,0.028790392655278184,-0.0033242586329629235,0.007905772789061842,-0.013156814917002668,0.014557335156844127,0.015412131540800648,0.03265235349752127,-0.003954561039259683,0.008276398630252858,0.004516562112194187,0.04422184040070758,0.040948782133645584,0.03794201686052964,0.046023893881752674,0.02197978027892689,0.05768679428593585,0.055893170457324365,0.05984251543627656,0.07495240164403634,0.05800698903144394,0.08467100630646267,0.07390219386689163,0.10136456703071695,0.10762979033321507,0.12513156875161094,0.2133214653685255,0.2479253230791684,0.29920037120272874,0.334732693665257,0.2896848028857294,0.34778678315965694,0.3955649115607065,0.4222136319951515,0.42773276904644675,0.4283310739824957,0.4456188386582262,0.49039685477145606,0.530234251918853,0.5705234624688982,0.5518101166083778,0.5497289731785054,0.48860901294556236,0.49811627956400917,0.5241892791136747,0.5073603478421201,0.4908291068170335,0.44754481004305885,0.4531241631458294,0.4264749357517083,0.39457621688363564,0.35738656693552506,0.3688993659289018,0.3912436596876728,0.4189687250441331,0.4141998071070613,0.4309226034063931,0.4474692309608542,0.47459172768137137,0.5068288563801071,0.5225059691579766,0.5269642802259613,0.563368146021284,0.561402023891504,0.5534174601099725,0.5501484769364429,0.51369321628554,0.4277617863329825,0.48680521757232237,0.5070148541273056,0.4829010213742877,0.45760462287318,0.5985487704487875,0.6246489100806221,0.41152419327956175,0.3157181016393298,0.30470715307007024,0.01634185258837174,-0.40358296874319816,-0.9011351088361185,-0.811728269871569,-0.2974534715784441,0.15545462544782326,0.44985452475421356,0.5966775376319723,0.6392748016049394,0.6696275840670924,0.6662366917701389,0.6832510928400398,0.666742839201905,0.633028396786684,0.6416503318180877,0.6332671018587112,0.6187817864807945,0.5928832611684599,0.5610646659986361,0.5612382521371633,0.5664693144161157,0.5444166622254383,0.5167730651171993,0.45119177805145955,0.4450117741438253,0.41724835527231396,0.43281393802955226,0.4215268714946491,0.3780474916874588,0.35647449875304366,0.3676752685920504,0.36847860222393586,0.4021703303057273,0.37153878057883044,0.41713215697126277,0.39310180542104867,0.42918462799977847,0.4497757497369694,0.4819380555055212,0.5040990680417585,0.510894938144337,0.550996088625268,0.6028225575605677,0.0,0.0,0.0,0.0,0.0,0.0,0.0,0.0,0.0,0.0,0.0,0.0,0.0,0.0,0.0,0.0,0.0,0.0,0.0,0.0,0.0,0.0,0.0,0.0,0.0,0.0,0.0,0.0,0.0,0.0,0.0,0.0,0.0,0.0,0.0,0.0,0.0,0.0,0.0,0.0,0.0,0.0,0.0,0.0,0.0,0.0,0.0,0.0,N
0.30470715307007024,0.01634185258837174,-0.40358296874319816,-0.9011351088361185,-0.811728269871569,-0.2974534715784441,0.15545462544782326,0.44985452475421356,0.5966775376319723,0.6392748016049394,0.6696275840670924,0.6662366917701389,0.6832510928400398,0.666742839201905,0.633028396786684,0.6416503318180877,0.6332671018587112,0.6187817864807945,0.5928832611684599,0.5610646659986361,0.5612382521371633,0.5664693144161157,0.5444166622254383,0.5167730651171993,0.45119177805145955,0.4450117741438253,0.41724835527231396,0.43281393802955226,0.4215268714946491,0.3780474916874588,0.35647449875304366,0.3676752685920504,0.36847860222393586,0.4021703303057273,0.37153878057883044,0.41713215697126277,0.39310180542104867,0.42918462799977847,0.4497757497369694,0.4819380555055212,0.5040990680417585,0.510894938144337,0.550996088625268,0.6028225575605677,0.6339842695440692,0.6445102105620356,0.67225195143547,0.7334431234308435,0.7362404115374782,0.7725219280586455,0.7774554058203405,0.7510488660493528,0.7851689899602273,0.7609352127392626,0.8080322892678106,0.7913608864585475,0.7811574425957496,0.7449845333927372,0.7368596967895319,0.7405489155421836,0.7073924126030398,0.6859929346955241,0.6601055405705614,0.6459039345196208,0.6379438033029903,0.582144490903458,0.5108810195987104,0.44571814244223956,0.37039230332635237,0.3010597930578613,0.2592787297329315,0.21256893364006677,0.11223789092151325,0.08791344015354655,0.053075688688202574,0.029277889327708896,0.0002472747397621972,-0.023270672543039328,-0.07916358448229785,-0.09183961805746178,-0.0397362022161499,-0.04718138091574546,-0.06017800789572333,-0.06255020942045882,-0.08134582885053399,-0.051744220011852304,-0.02239427314483856,-0.0365362835381469,-0.0455458717596988,-0.027813583684827992,0.016659644665470763,0.006820330797608022,-0.01950414756109722,-0.008275409032371117,-0.03514152136479256,-0.002832030115254264,0.0346238385795311,0.01779344837484219,0.022335971078505597,0.026644263015452606,0.04153314433597691,0.023780509460360873,0.04904498866229684,0.04708575353944997,0.039524277729325576,-0.011458672318904543,0.02923520825037079,0.0049066333196733465,0.061462208644182434,0.009780401891993789,0.03899692098103401,0.035641386878520566,0.01593152758793721,0.02310328916018099,0.030144707727205698,0.02085106240625844,0.006035877845395883,0.04514568769518882,-0.007712816106226712,-0.022845525554802463,-0.016456939702439822,-0.04257514203219987,0.0284984419116958,0.029264072425689132,0.06780950910836331,0.014460478199675657,-0.006484708317089684,0.004987566468959231,-0.005145256992691934,0.02257150107787247,0.017904707239111407,-0.00832369604497711,0.024955974427373896,0.009685418828618599,0.021531307080906347,0.017279317160160623,0.013155491145334998,0.009174746966188228,-0.005455421726716024,0.00170186685040777,0.04146929574293057,0.011192275218626813,0.018959498982707306,0.021556585754657118,0.024402172714293024,0.04912582701111151,0.03089812576983123,0.023770344005167584,0.06017888523772842,0.06989012836987832,0.06912901942347013,0.0416980794644964,0.07947306893124574,0.07979708674030223,0.1345452874742119,0.1788857284548682,0.22904098304077092,0.26881065465656,0.26578216376935143,0.27400045480690133,0.3421054640352777,0.3836437764465336,0.38781177601757644,0.4248591172694759,0.45695993064702856,0.47870829780466234,0.49009969484802157,0.4803198458395219,0.5196072131061492,0.5539132346056586,0.5453977880123477,0.5156584531939079,0.5187121585343071,0.5004996691078556,0.5096290621945931,0.5028433653114307,0.49091985033866403,0.43059648243106613,0.35966396090720243,0.4023697001171395,0.36954591954070104,0.3800325441087782,0.3905572734965756,0.40107534122353417,0.40613634877185717,0.4219026092505208,0.45372704658501734,0.47994207893344454,0.5112999313238845,0.5045136365653283,0.5297709352353723,0.5275687433225587,0.5788969884833634,0.5702105074992387,0.5608789786945226,0.49679196507275253,0.4913502820195311,0.45261244942758877,0.5155890589747707,0.49647136347536586,0.43840256633489266,0.5196153698737926,0.6373489633544549,0.4889038056802425,0.13902735806883623,0.06314426028498024,-0.019836638165120157,-0.3639884072422129,-0.764069496102502,-0.874308114480892,-0.2894194137505919,0.14231092778431187,0.4101950105488315,0.5197552611659487,0.606200357304463,0.6426260003307794,0.6453542946164726,0.6523188484065939,0.625798533662546,0.6415462250197511,0.629412328347483,0.6165102682995435,0.5542988129559173,0.5455366668695969,0.5200620270716815,0.5373986649308065,0.5165720909828619,0.4630639967843271,0.4526013212925311,0.44743142387655727,0.40979940089888195,0.41542537583312444,0.3833207248806797,0.3729904076386742,0.35747859908669555,0.36386440176098966,0.34357362129263214,0.3344891120046034,0.33126257634482065,0.36096611982085847,0.3425966066100173,0.38968154909030467,0.426617972876258,0.3940119929272783,0.44321108189681746,0.46618413833662053,0.5062008637673727,0.5524918362803709,0.5726703859591151,0.577576514434881,0.6266804732448404,0.6929907580296795,0.0,0.0,0.0,0.0,0.0,0.0,0.0,0.0,0.0,0.0,0.0,0.0,0.0,0.0,0.0,0.0,0.0,0.0,0.0,0.0,0.0,0.0,0.0,0.0,0.0,0.0,0.0,0.0,0.0,0.0,0.0,0.0,0.0,0.0,0.0,0.0,0.0,0.0,0.0,0.0,0.0,0.0,0.0,0.0,0.0,0.0,0.0,0.0,N
0.6373489633544549,0.4889038056802425,0.13902735806883623,0.06314426028498024,-0.019836638165120157,-0.3639884072422129,-0.764069496102502,-0.874308114480892,-0.2894194137505919,0.14231092778431187,0.4101950105488315,0.5197552611659487,0.606200357304463,0.6426260003307794,0.6453542946164726,0.6523188484065939,0.625798533662546,0.6415462250197511,0.629412328347483,0.6165102682995435,0.5542988129559173,0.5455366668695969,0.5200620270716815,0.5373986649308065,0.5165720909828619,0.4630639967843271,0.4526013212925311,0.44743142387655727,0.40979940089888195,0.41542537583312444,0.3833207248806797,0.3729904076386742,0.35747859908669555,0.36386440176098966,0.34357362129263214,0.3344891120046034,0.33126257634482065,0.36096611982085847,0.3425966066100173,0.38968154909030467,0.426617972876258,0.3940119929272783,0.44321108189681746,0.46618413833662053,0.5062008637673727,0.5524918362803709,0.5726703859591151,0.577576514434881,0.6266804732448404,0.6929907580296795,0.7224943347733696,0.7368262140182665,0.7576177938350526,0.7524599956546434,0.7753988208329002,0.7940176404117917,0.7596849106865731,0.7696644576377781,0.7699132897970373,0.787439756136737,0.7898078843032489,0.744577764744164,0.7652048786411327,0.7273790972487169,0.7013189188283927,0.6869913744848448,0.6465342339720757,0.5907149453450424,0.5140866862349236,0.4868511902103454,0.42250092213128454,0.385828931626116,0.30113049529599395,0.21698358336741622,0.1765609811635343,0.17980495508262617,0.13479434145328012,0.0630843418475712,0.04566995562543315,-0.0039681900518679855,-0.010239318846755491,-0.021836900213599075,-0.044223996864521026,-0.050439521500905554,-0.06215129880226133,-0.07940764469007597,-0.048214178203754565,-0.02804623892471871,-0.062163548334851826,-0.0533275030007291,-0.033981895972704845,-0.047372812690087605,-0.02326584604380625,-0.02651406977932475,-0.024702120871079515,-0.03944890996557425,-0.02752684999739442,-0.053778191272071195,0.006086204736050999,-0.010034414815291515,0.005943129344095054,0.005396271478592955,0.015353925649112426,0.02501922417911877,0.012787864120709886,0.005688530687688885,-0.017883268103288184,0.012330494586564794,0.031497563234763236,0.034226092425915504,-0.0010869584957951522,0.01743246295161443,0.030355493486834972,0.03228997517493879,0.01243991905266112,0.030257004968166527,-0.011513847705195018,0.0006156199048171178,0.007217024458147592,0.04612820605229472,-0.006923408826454372,0.004780696712377877,-0.005205869006025788,0.022569818213513903,-0.009145521151487533,-0.019283864193907783,-0.007831507945159586,-0.023406030727383682,0.025871393653144163,0.0535603996843698,0.048872002009445366,0.022631664473003136,0.007279323563143824,0.02985112335877608,0.030924303528276423,0.01592010549484038,0.0172780123144936,0.007996955683168388,-0.00650214358804673,0.027834708584984703,0.046181180470908405,0.02153655592091439,0.007955076643334759,0.010857763405895343,0.06268399345528658,0.06618478772851089,0.04839547651260496,0.030947379919797173,0.0030495005797154663,0.06198427140248054,0.056464864510707244,0.062158670642177845,0.07367760944730753,0.0694222520305493,0.09804063136961409,0.15954732007312594,0.22693800429220415,0.28401493094310654,0.28215713674685167,0.31323789887241366,0.3124223854278637,0.3769845758578671,0.4042607552129856,0.4482920218961209,0.4604475472398755,0.48395680838152605,0.4917991499593075,0.5326030063395876,0.5199023716212433,0.5779720676720355,0.6095334675622116,0.565938167759508,0.5336266983360631,0.528788929411872,0.5297863082173504,0.5419960342926146,0.5491779412427609,0.508070756438366,0.48888772562856264,0.4159402144352211,0.4404916725781076,0.43281214903069515,0.4522982640885301,0.45567456821989105,0.4699111806630404,0.500361225279921,0.5091460423696149,0.5340359799372527,0.5803767647525345,0.5940709816456949,0.6182845400787982,0.6475472659011728,0.6871932520411864,0.688516561182181,0.7000740465568908,0.6785565715504605,0.6238809331847586,0.6062083659601009,0.6362565132125703,0.6707031947277238,0.6662230490085518,0.6011020780455489,0.6481554057452718,0.7748553389708389,0.6514685850105119,0.3265155244367295,0.19975243178553218,0.1737954579353317,-0.1081168490393616,-0.5218193567139304,-0.9863660955700545,-0.702072182884866,-0.1552346928633879,0.3084116576693408,0.5917161447241074,0.7218111250234115,0.8068811854720738,0.8416300396510266,0.8207573667352758,0.8038027887600637,0.8178797484685811,0.8252535185796397,0.7881852824133081,0.7553909650359768,0.7431604750824061,0.7731836234834009,0.7536692410991273,0.7062995571398965,0.6581567117206837,0.6038972379534598,0.6246332461805517,0.5907303364741803,0.5724871180225122,0.5429330198463782,0.502113004785367,0.49329875502092496,0.45708953640295125,0.44755941255583215,0.41070657663887944,0.3897932105299951,0.3578316123128928,0.352676282115669,0.35273945914879273,0.36345001549567024,0.3361982670337159,0.33044629740765885,0.34081035826045775,0.3727124075053232,0.41536166125106583,0.39852500028489246,0.3816555306065753,0.4133970070891455,0.0,0.0,0.0,0.0,0.0,0.0,0.0,0.0,0.0,0.0,0.0,0.0,0.0,0.0,0.0,0.0,0.0,0.0,0.0,0.0,0.0,0.0,0.0,0.0,0.0,0.0,0.0,0.0,0.0,0.0,0.0,0.0,0.0,0.0,0.0,0.0,0.0,0.0,0.0,0.0,0.0,0.0,0.0,0.0,0.0,0.0,0.0,0.0,N
0.7748553389708389,0.6514685850105119,0.3265155244367295,0.19975243178553218,0.1737954579353317,-0.1081168490393616,-0.5218193567139304,-0.9863660955700545,-0.702072182884866,-0.1552346928633879,0.3084116576693408,0.5917161447241074,0.7218111250234115,0.8068811854720738,0.8416300396510266,0.8207573667352758,0.8038027887600637,0.8178797484685811,0.8252535185796397,0.7881852824133081,0.7553909650359768,0.7431604750824061,0.7731836234834009,0.7536692410991273,0.7062995571398965,0.6581567117206837,0.6038972379534598,0.6246332461805517,0.5907303364741803,0.5724871180225122,0.5429330198463782,0.502113004785367,0.49329875502092496,0.45708953640295125,0.44755941255583215,0.41070657663887944,0.3897932105299951,0.3578316123128928,0.352676282115669,0.35273945914879273,0.36345001549567024,0.3361982670337159,0.33044629740765885,0.34081035826045775,0.3727124075053232,0.41536166125106583,0.39852500028489246,0.3816555306065753,0.4133970070891455,0.42891401205971924,0.4552316081251608,0.44912488306096937,0.0,0.0,0.0,0.0,0.0,0.0,0.0,0.0,0.0,0.0,0.0,0.0,0.0,0.0,0.0,0.0,0.0,0.0,0.0,0.0,0.0,0.0,0.0,0.0,0.0,0.0,0.0,0.0,0.0,0.0,0.0,0.0,0.0,0.0,0.0,0.0,0.0,0.0,0.0,0.0,0.0,0.0,0.0,0.0,0.0,0.0,0.0,0.0,0.0,0.0,0.0,0.0,0.0,0.0,0.0,0.0,0.0,0.0,0.0,0.0,0.0,0.0,0.0,0.0,0.0,0.0,0.0,0.0,0.0,0.0,0.0,0.0,0.0,0.0,0.0,0.0,0.0,0.0,0.0,0.0,0.0,0.0,0.0,0.0,0.0,0.0,0.0,0.0,0.0,0.0,0.0,0.0,0.0,0.0,0.0,0.0,0.0,0.0,0.0,0.0,0.0,0.0,0.0,0.0,0.0,0.0,0.0,0.0,0.0,0.0,0.0,0.0,0.0,0.0,0.0,0.0,0.0,0.0,0.0,0.0,0.0,0.0,0.0,0.0,0.0,0.0,0.0,0.0,0.0,0.0,0.0,0.0,0.0,0.0,0.0,0.0,0.0,0.0,0.0,0.0,0.0,0.0,0.0,0.0,0.0,0.0,0.0,0.0,0.0,0.0,0.0,0.0,0.0,0.0,0.0,0.0,0.0,0.0,0.0,0.0,0.0,0.0,0.0,0.0,0.0,0.0,0.0,0.0,0.0,0.0,0.0,0.0,0.0,0.0,0.0,0.0,0.0,0.0,0.0,0.0,0.0,0.0,0.0,0.0,0.0,0.0,0.0,0.0,0.0,0.0,0.0,0.0,0.0,0.0,0.0,0.0,0.0,0.0,0.0,0.0,0.0,0.0,0.0,0.0,0.0,0.0,0.0,0.0,0.0,0.0,0.0,0.0,0.0,0.0,0.0,0.0,0.0,0.0,0.0,0.0,0.0,0.0,0.0,0.0,0.0,0.0,0.0,0.0,0.0,0.0,0.0,0.0,0.0,0.0,0.0,0.0,0.0,0.0,0.0,0.0,0.0,0.0,0.0,0.0,0.0,0.0,0.0,0.0,N
0.0664224720641409,0.1146904498940412,0.16341280329823007,0.20740111358259117,0.2466654296613998,0.276015478770955,0.27466190080318215,0.2946039409863295,0.3150494858254241,0.3412013721678296,0.3834601462858888,0.4314275097554503,0.4695039621792222,0.5028849847119977,0.4951694336094917,0.5087400594782546,0.5799807137156264,0.5684970251567656,0.5262652556123714,0.536454532442467,0.4690606801120548,0.48523678246834273,0.5173650524691704,0.523821700250507,0.4837774878126921,0.4699876821509145,0.40962516054548975,0.4066361292002065,0.41938477536561675,0.42183110712885136,0.43992588237724795,0.44242561844611616,0.46567533378266207,0.5148221266715489,0.5170214969346449,0.5398070564382114,0.5519234231652655,0.568906078115217,0.6166863120151761,0.6224061622861035,0.6587845537448335,0.6789537517119967,0.6568398662750877,0.6079598901321102,0.5998203785058184,0.606337722716166,0.6222224536708474,0.5901892238648595,0.5517359834566893,0.6575427097792795,0.7099345484342958,0.4748383646029958,0.2641023643967726,0.207597416200904,0.07124314082025941,-0.29585332416883914,-0.7118309783716388,-1.0,-0.557261600185351,-0.05944601947157673,0.33239862401788367,0.6028098303588756,0.6999284449272648,0.7122729852047912,0.7335577537033781,0.7587070827942631,0.7826416370599156,0.7846804335301646,0.7857328534059208,0.7495122230894354,0.6917207870427757,0.6800498888909771,0.6834010048793806,0.6550743569866576,0.6419538742898052,0.5713366630286428,0.5420930138630945,0.5387060979767848,0.5664535147779026,0.5422223307132041,0.49728104275485563,0.4732940061081866,0.4651295275216371,0.46765354727361685,0.43933468728803904,0.4374256399968393,0.4203904923827578,0.44027826840368506,0.4503494812892908,0.45585528960198624,0.4516460308119596,0.43776904778535886,0.466262271882262,0.505972890858974,0.5257457611604406,0.5672131947808701,0.5524213275202727,0.6217834153538357,0.6089521564780156,0.6595342205166935,0.6851654220745923,0.7066632562059072,0.7292439381204978,0.7373230110223102,0.7725045032920909,0.7620044939025475,0.7682166007864895,0.7495449384060886,0.7371797655542305,0.7571083086267001,0.7417269840171041,0.7482112547153069,0.6933521889212267,0.7123070700196594,0.7166604737208967,0.6855841149411889,0.6398404026736844,0.6157861720081823,0.5925829274359761,0.49739624779341585,0.48095798991577393,0.4184354360194404,0.3617691423927403,0.3005061570779181,0.23978957328873154,0.16916312769092798,0.14576005874369688,0.09153135760797235,0.027213695420153203,0.009938278366709269,-0.0019502322101253309,-0.018911516625059056,-0.01501007721388211,-0.03709860513202245,-0.043640526146630595,-0.09188215043312793,-0.07268853279988442,-0.06928953213008764,-0.07652026246536682,-0.05801354730734882,-0.055384210818851025,-0.042650865134388115,-0.030221853595305284,-0.01810289836594334,-0.04269184324140995,-4.126086442271027e-06,-0.03041750864386249,-0.003946949299279824,-0.0037751883437249544,-0.014298182332286531,-0.019911529177160197,-0.015408037808036972,-0.005977194904152713,0.023990115308481975,0.02251287569606376,0.02079850393274641,0.02405788176626354,0.03230250227942065,0.050743022938022665,0.001401384936829513,-0.011725760710221194,0.011372536555716208,0.0031176404994461807,0.031112259505707875,0.048574823578053906,0.0035243224863308834,0.010356612643335086,0.0014925693059575495,0.023737278741010125,0.02510941097669898,0.02641750276855364,0.0016764032733734425,0.028886523008611057,-0.0011259840969983495,0.020834847693816508,0.021990127552523657,0.017948699907294727,-0.0224742628160116,-0.010880130469643945,0.005950460666499083,0.022832185304180394,0.003383980368409545,0.004811792726619911,0.02712942092985092,0.02355707741850317,0.030503393744406266,0.006387613587877236,-0.027979755818835352,0.00020460754253270947,0.0025688589223892286,0.05191897739276348,0.049484534991913944,0.03167624564582967,0.03490457585782449,0.017590563663858645,0.047340050697588544,0.06177667382964315,0.05051667995448148,0.03437171511764346,0.03935245745367764,0.06027370520410657,0.07115292115853203,0.09280082878970491,0.0732378103920533,0.11126303975570345,0.07690679889576174,0.16775374787386232,0.17064467309738435,0.2623658726355946,0.2661514336106256,0.2755969342804814,0.29070949804264745,0.32189343965475437,0.3223594889304506,0.3649003136815783,0.3871255684399179,0.42023020733903155,0.4538129715053721,0.47227121624194773,0.49119573582135906,0.5313742478325337,0.5512005978168194,0.5558595364960004,0.5401344892440544,0.5248025254993185,0.4734458826311917,0.49522414482387894,0.4965224268082458,0.5241040533494595,0.46355204175589376,0.40841817571198996,0.4262554977799386,0.3974407602243501,0.41551925560108877,0.4388528877796002,0.4258014830330514,0.4439076514907463,0.46712475017122246,0.4850017705719853,0.5182810766012392,0.5149126217446198,0.5112316075133206,0.5383713761830184,0.0,0.0,0.0,0.0,0.0,0.0,0.0,0.0,0.0,0.0,0.0,0.0,0.0,0.0,0.0,0.0,0.0,0.0,0.0,0.0,0.0,0.0,0.0,0.0,0.0,0.0,0.0,0.0,0.0,0.0,0.0,0.0,0.0,0.0,0.0,0.0,0.0,0.0,0.0,0.0,0.0,0.0,0.0,0.0,0.0,0.0,0.0,0.0,0.0,0.0,0.0,0.0,0.0,0.0,0.0,0.0,0.0,N
0.207597416200904,0.07124314082025941,-0.29585332416883914,-0.7118309783716388,-1.0,-0.557261600185351,-0.05944601947157673,0.33239862401788367,0.6028098303588756,0.6999284449272648,0.7122729852047912,0.7335577537033781,0.7587070827942631,0.7826416370599156,0.7846804335301646,0.7857328534059208,0.7495122230894354,0.6917207870427757,0.6800498888909771,0.6834010048793806,0.6550743569866576,0.6419538742898052,0.5713366630286428,0.5420930138630945,0.5387060979767848,0.5664535147779026,0.5422223307132041,0.49728104275485563,0.4732940061081866,0.4651295275216371,0.46765354727361685,0.43933468728803904,0.4374256399968393,0.4203904923827578,0.44027826840368506,0.4503494812892908,0.45585528960198624,0.4516460308119596,0.43776904778535886,0.466262271882262,0.505972890858974,0.5257457611604406,0.5672131947808701,0.5524213275202727,0.6217834153538357,0.6089521564780156,0.6595342205166935,0.6851654220745923,0.7066632562059072,0.7292439381204978,0.7373230110223102,0.7725045032920909,0.7620044939025475,0.7682166007864895,0.7495449384060886,0.7371797655542305,0.7571083086267001,0.7417269840171041,0.7482112547153069,0.6933521889212267,0.7123070700196594,0.7166604737208967,0.6855841149411889,0.6398404026736844,0.6157861720081823,0.5925829274359761,0.49739624779341585,0.48095798991577393,0.4184354360194404,0.3617691423927403,0.3005061570779181,0.23978957328873154,0.16916312769092798,0.14576005874369688,0.09153135760797235,0.027213695420153203,0.009938278366709269,-0.0019502322101253309,-0.018911516625059056,-0.01501007721388211,-0.03709860513202245,-0.043640526146630595,-0.09188215043312793,-0.07268853279988442,-0.06928953213008764,-0.07652026246536682,-0.05801354730734882,-0.055384210818851025,-0.042650865134388115,-0.030221853595305284,-0.01810289836594334,-0.04269184324140995,-4.126086442271027e-06,-0.03041750864386249,-0.003946949299279824,-0.0037751883437249544,-0.014298182332286531,-0.019911529177160197,-0.015408037808036972,-0.005977194904152713,0.023990115308481975,0.02251287569606376,0.02079850393274641,0.02405788176626354,0.03230250227942065,0.050743022938022665,0.001401384936829513,-0.011725760710221194,0.011372536555716208,0.0031176404994461807,0.031112259505707875,0.048574823578053906,0.0035243224863308834,0.010356612643335086,0.0014925693059575495,0.023737278741010125,0.02510941097669898,0.02641750276855364,0.0016764032733734425,0.028886523008611057,-0.0011259840969983495,0.020834847693816508,0.021990127552523657,0.017948699907294727,-0.0224742628160116,-0.010880130469643945,0.005950460666499083,0.022832185304180394,0.003383980368409545,0.004811792726619911,0.02712942092985092,0.02355707741850317,0.030503393744406266,0.006387613587877236,-0.027979755818835352,0.00020460754253270947,0.0025688589223892286,0.05191897739276348,0.049484534991913944,0.03167624564582967,0.03490457585782449,0.017590563663858645,0.047340050697588544,0.06177667382964315,0.05051667995448148,0.03437171511764346,0.03935245745367764,0.06027370520410657,0.07115292115853203,0.09280082878970491,0.0732378103920533,0.11126303975570345,0.07690679889576174,0.16775374787386232,0.17064467309738435,0.2623658726355946,0.2661514336106256,0.2755969342804814,0.29070949804264745,0.32189343965475437,0.3223594889304506,0.3649003136815783,0.3871255684399179,0.42023020733903155,0.4538129715053721,0.47227121624194773,0.49119573582135906,0.5313742478325337,0.5512005978168194,0.5558595364960004,0.5401344892440544,0.5248025254993185,0.4734458826311917,0.49522414482387894,0.4965224268082458,0.5241040533494595,0.46355204175589376,0.40841817571198996,0.4262554977799386,0.3974407602243501,0.41551925560108877,0.4388528877796002,0.4258014830330514,0.4439076514907463,0.46712475017122246,0.4850017705719853,0.5182810766012392,0.5149126217446198,0.5112316075133206,0.5383713761830184,0.5702705824748601,0.6068616126151531,0.6220775781152516,0.6262435488853038,0.5932864917407092,0.5543223736756147,0.5352649105792984,0.49963363066027067,0.5409275026126972,0.48228019399735533,0.47437760209923574,0.6263089354230923,0.6520153954826324,0.4006164537295041,0.24635607345162092,0.22552271114808461,-0.0051441895481811875,-0.43015567022163237,-0.8936415976036912,-0.8445453385340737,-0.3712373786069505,0.10523780935653239,0.434233823051433,0.6210822741560127,0.7283047345759094,0.7404304007192644,0.7095755282118541,0.7190483785619022,0.7273708332621899,0.7658511639773224,0.725413319362713,0.7153473750591062,0.6837619547959901,0.6671499449969198,0.6604065358964091,0.627227873944796,0.5988975043010477,0.5858986972951279,0.5623167360626198,0.5334296822800703,0.5357084940747957,0.5068350536499417,0.4780756887695338,0.45469776966028785,0.44716556084288395,0.4659410533491541,0.43829544762459205,0.4266790158920421,0.40515199946616826,0.4205624916802718,0.4365680053491227,0.42722251981984927,0.43936781701327,0.0,0.0,0.0,0.0,0.0,0.0,0.0,0.0,0.0,0.0,0.0,0.0,0.0,0.0,0.0,0.0,0.0,0.0,0.0,0.0,0.0,0.0,0.0,0.0,0.0,0.0,0.0,0.0,0.0,0.0,0.0,0.0,0.0,0.0,0.0,0.0,0.0,0.0,0.0,0.0,0.0,0.0,0.0,0.0,0.0,0.0,0.0,0.0,0.0,0.0,0.0,0.0,0.0,0.0,0.0,0.0,0.0,N
0.22552271114808461,-0.0051441895481811875,-0.43015567022163237,-0.8936415976036912,-0.8445453385340737,-0.3712373786069505,0.10523780935653239,0.434233823051433,0.6210822741560127,0.7283047345759094,0.7404304007192644,0.7095755282118541,0.7190483785619022,0.7273708332621899,0.7658511639773224,0.725413319362713,0.7153473750591062,0.6837619547959901,0.6671499449969198,0.6604065358964091,0.627227873944796,0.5988975043010477,0.5858986972951279,0.5623167360626198,0.5334296822800703,0.5357084940747957,0.5068350536499417,0.4780756887695338,0.45469776966028785,0.44716556084288395,0.4659410533491541,0.43829544762459205,0.4266790158920421,0.40515199946616826,0.4205624916802718,0.4365680053491227,0.42722251981984927,0.43936781701327,0.43665498797907043,0.4659214816863848,0.5064118630880989,0.5425676522020985,0.5536285523145449,0.5916215392870564,0.5941865580455048,0.6341419968906835,0.67511829507002,0.7067391444829987,0.7134255767652208,0.6951929438737898,0.7248430160516429,0.7607898247840135,0.7406466386514216,0.752802177785106,0.729662918910861,0.7492115455710262,0.7230499834762795,0.7239542371242297,0.7051131482971763,0.7080997784371749,0.6912951086620059,0.7014644190215004,0.6761845549693695,0.6362174093957637,0.5971222095956501,0.5276614397252734,0.49018172243318126,0.43264277926773875,0.38099115095482405,0.2987797989375187,0.2587447578237253,0.19843916683973406,0.13860342624658006,0.12077408279909758,0.06690344276959759,0.05492174873222786,-0.008817485445553592,-0.009989633608697932,-0.016244195475331655,-0.032838305679488054,-0.04942970163940521,-0.05047371646187334,-0.07761311882851882,-0.0633009042973284,-0.05436695797298421,-0.04564230465017641,-0.05794922762462955,-0.034116404087000854,-0.04174983818912387,-0.04446659957627647,-0.04227478436596706,-0.03517826434874367,-0.0439740339002731,-0.011466475374983546,0.015558512957750183,0.0007146914885305946,0.001202866918745877,0.0014338569626096828,-0.0037829573351822678,-0.014438917426810747,0.021467841340573904,0.015559869161951295,0.00944172570330335,0.018721469469224164,0.0018149803591875381,0.0627180154927537,0.019465665932121335,0.012448358838729913,8.146051139662529e-05,-0.0072268782687720376,0.021728631561661212,0.01416827217140205,0.016895764551390663,0.014323342782305945,0.011660295155637422,0.0037172690013439363,0.03209841539958387,0.029222888723594836,0.021096806957887963,-0.0026688507343278892,0.041123913429471866,0.02250267920388882,0.0038683536030665816,-0.014769684941147658,-0.02820279266626637,-0.0052244993276909,0.028182213187988844,0.004440581942352339,0.03274938194779725,0.00393740977266038,0.032402539151928325,0.01937195256479586,0.006453356632787588,0.024855791772848627,0.007001857359381977,0.004897575953223993,-0.0022410503077928377,0.006396233605550926,0.010025618242987071,0.013859685535121019,0.0439081059741004,0.03779264132270279,0.05271838126856814,0.04190453308796223,0.03655931055137,0.015897871182527036,0.026725890449925162,0.043058978918982825,0.049311182870483285,0.07149061066958187,0.06281513871180225,0.06489012537055691,0.09852347625393114,0.14292849514011643,0.20331441655196458,0.25889333700781,0.24728205907463705,0.29327033905944605,0.292878171272974,0.3292983318809632,0.3401421618308657,0.37220433369904965,0.40988640328217346,0.4375880653552274,0.4605041039508181,0.46822926114400065,0.4971495385409855,0.516057895860368,0.5197412304350931,0.5029838593086259,0.4553682161458707,0.4444634897785611,0.4598473221112241,0.45989942469648787,0.4497907719020452,0.4242914692536483,0.3573722346335564,0.35818306594929933,0.3746943494025746,0.3704725342969749,0.39227075122287924,0.3880538696322362,0.3941726370541803,0.38978372935200517,0.42163255226712737,0.4324768691741501,0.4378623206986316,0.4429338157369675,0.473631212563583,0.5142978774045572,0.5648726623471313,0.5421032932306246,0.5343110657205211,0.536227440862487,0.5009869307675922,0.4805077751854613,0.49031071622420613,0.5199176700910205,0.46006169266375835,0.44583961983511516,0.570751709810057,0.5955417725613147,0.33294361102715364,0.06882295562613683,0.07344601804154682,-0.11082118829528274,-0.48927525068358174,-0.890426549547807,-0.6592055096296234,-0.13352133757848528,0.2655908297210352,0.496656320997246,0.601387691782841,0.6266942990013169,0.6194824926377119,0.6370540585503853,0.6535191304266984,0.663781795373353,0.6627428729013988,0.6193034402508667,0.6063469543955896,0.6031666516888492,0.594252021421563,0.5432923983617561,0.5491555474999648,0.507934415140806,0.4716977419834104,0.497711013727241,0.4716609633935747,0.4300110909484622,0.4092225380531369,0.38856216491688567,0.35249407030871305,0.3894661036349662,0.3799529649353062,0.37080451643594314,0.330879450512137,0.3278210142923245,0.37727795378360585,0.3701145437502092,0.3583709974112527,0.36288996937868534,0.3837151837198355,0.0,0.0,0.0,0.0,0.0,0.0,0.0,0.0,0.0,0.0,0.0,0.0,0.0,0.0,0.0,0.0,0.0,0.0,0.0,0.0,0.0,0.0,0.0,0.0,0.0,0.0,0.0,0.0,0.0,0.0,0.0,0.0,0.0,0.0,0.0,0.0,0.0,0.0,0.0,0.0,0.0,0.0,0.0,0.0,0.0,0.0,0.0,0.0,0.0,0.0,0.0,0.0,0.0,0.0,0.0,0.0,0.0,N
-0.11082118829528274,-0.48927525068358174,-0.890426549547807,-0.6592055096296234,-0.13352133757848528,0.2655908297210352,0.496656320997246,0.601387691782841,0.6266942990013169,0.6194824926377119,0.6370540585503853,0.6535191304266984,0.663781795373353,0.6627428729013988,0.6193034402508667,0.6063469543955896,0.6031666516888492,0.594252021421563,0.5432923983617561,0.5491555474999648,0.507934415140806,0.4716977419834104,0.497711013727241,0.4716609633935747,0.4300110909484622,0.4092225380531369,0.38856216491688567,0.35249407030871305,0.3894661036349662,0.3799529649353062,0.37080451643594314,0.330879450512137,0.3278210142923245,0.37727795378360585,0.3701145437502092,0.3583709974112527,0.36288996937868534,0.3837151837198355,0.44168568874181807,0.4848486287621121,0.49764393237661136,0.5372990893517834,0.5830498311483076,0.6193284874038254,0.6617601805412725,0.6843726589618808,0.6819875009556124,0.6962164250008102,0.7114756082418204,0.7173770314132724,0.7399241105786128,0.7739209668816817,0.746577321104457,0.7462768492687414,0.7522145163891569,0.7591794101133035,0.7359604336541582,0.7189333950689557,0.6976768605610875,0.7033600790462368,0.6839602562972504,0.64984249735548,0.590571348771363,0.5529002392793413,0.48999252065376253,0.49019018165039524,0.40786495080402846,0.34695176997414395,0.2814014248852605,0.22155795920990565,0.18296329428589125,0.1291653969371494,0.07050488122281591,0.04851742340949213,0.016350507808431156,0.015539215574711107,-0.01636714733729616,-0.03263437454872105,-0.05931669021541407,-0.07047237150355984,-0.05055262983858934,-0.035994828494724136,-0.047633674229126156,-0.049108322893758265,-0.056046251865615224,-0.06847241921379169,-0.029214327216963,-0.02147365942900492,-0.0192643459221319,-0.03819255415017961,-0.03147120538522038,0.0008968453416423474,0.012118170712141448,-0.02900280705899163,-0.049676032899712,-0.013503689178162494,-0.02446392519438633,-0.004558643863661967,-0.010968825510991789,-0.012487177959268885,-0.0091010750274129,-0.000796704252437381,0.002042042085955018,0.025426340101823857,0.04857379364734293,-0.006490251953506595,0.021426400685072792,0.01795447788517111,0.009105284991900626,0.020890037577984102,-0.003868649068814784,-0.0027647166455280897,0.0034197059139400372,0.01989917568580868,0.025891809285725462,0.011014193178276267,-0.009120792268957968,0.04349109430953812,0.033684289185802616,0.023865828727919633,-0.0015466892035980672,0.01465419933633574,0.010092557762889318,0.03677663901321821,0.032330382768704945,0.038363238275704294,0.008096653697714968,-0.0012624211697884714,0.02069936093372476,0.0168047664574878,0.013065013112462952,0.009494811223738402,0.0009095211189282465,0.0029215943412236266,0.025944193213802026,0.02839761872778536,0.015495604205004657,0.02884673368605574,0.01647238963016272,0.019980934366231867,0.05498422449917958,0.059104746643124845,0.05835255192200625,0.03194383388435378,0.07867804178132994,0.08938307824859323,0.08486856934180215,0.07554512485640708,0.09262006893464518,0.09451036257941223,0.14361819714142646,0.21915673666105925,0.2587441497084296,0.28838534850091496,0.2716925354662437,0.3282550112776524,0.32809505387009874,0.38040039483426824,0.4123821617512845,0.43963741963123887,0.45696403288378035,0.5007519451107265,0.5190009756627877,0.5117012868550324,0.5464311467389592,0.5607841480494233,0.5287461440724044,0.49709016958685953,0.4709923382617578,0.4868219863496712,0.5029568250553542,0.4829714161460382,0.42683279931168766,0.391697730781678,0.3671301318800791,0.36348910413194035,0.37033477472201815,0.3668268840447312,0.3997140215619329,0.4013586798080726,0.42890418488529164,0.4355061626541649,0.47830378790250966,0.48965122574952913,0.4954873738988371,0.5061508277806935,0.5267784207160799,0.5625044552718386,0.5924641767606663,0.569793594610942,0.551611449378327,0.5326422165816098,0.47641190564788133,0.5388173956722584,0.5637961033458276,0.4576741673415974,0.4803262650758282,0.5796677052494411,0.5216364313977383,0.21774745954493,0.0682459567394546,-0.04135318127597574,-0.3347203781090082,-0.7079671944533414,-0.8855969983772778,-0.3632773754796777,0.08438419094298748,0.4003160137372712,0.5638409765356309,0.6374685161489883,0.6577088268213402,0.6662682001265117,0.6268603690080673,0.627978567206372,0.6333300620221447,0.679408966276985,0.6467276859699297,0.5977701935894768,0.5950172279856938,0.5813629916922874,0.5724886975705418,0.5372790896151061,0.5174060347908589,0.4817487282535131,0.45637590952510004,0.4621546247116008,0.4419603679533235,0.4062570233587613,0.39670197326901757,0.4185555760332202,0.4042862210769136,0.40594375251315395,0.3611917302309081,0.3740687939174474,0.3822346677843244,0.37534005242320556,0.40022586864891035,0.40494475180023703,0.38954018281072433,0.3852493259246019,0.4545031057196354,0.47255627232025976,0.5278319749041241,0.0,0.0,0.0,0.0,0.0,0.0,0.0,0.0,0.0,0.0,0.0,0.0,0.0,0.0,0.0,0.0,0.0,0.0,0.0,0.0,0.0,0.0,0.0,0.0,0.0,0.0,0.0,0.0,0.0,0.0,0.0,0.0,0.0,0.0,0.0,0.0,0.0,0.0,0.0,0.0,0.0,0.0,0.0,0.0,0.0,0.0,0.0,0.0,0.0,0.0,0.0,0.0,0.0,0.0,0.0,0.0,0.0,N
