3401762.0
3669071.0
3605932.0
3397060.0
3133171.0
2858546.0
2591485.0
2341690.0
2112333.0
1903672.0
1714780.0
1543968.0
1389549.0
1250411.0
1125324.0
1012813.0
911507.0
820349.0
738232.0
664349.0
597814.0
538023.0
484390.0
435980.0
392248.0
353460.0
317275.0
285780.0
257387.0
231850.0
208977.0
188317.0
169385.0
152082.0
136761.0
123029.0
110666.0
99531.0
89510.0
80543.0
72405.0
65092.0
58639.0
52912.0
47474.0
42613.0
39263.0
35040.0
31419.0
28222.0
25581.0
23288.0
21066.0
18740.0
16546.0
14775.0
13261.0
11903.0
10652.0
9582.0
8640.0
7748.0
7074.0
6317.0
5554.0
5971.0
4946.0
4296.0
3837.0
3617.0
3532.0
3306.0
2694.0
2093.0
1722.0
1536.0
1378.0
1207.0
1044.0
890.0
791.0
779.0
849.0
576.0
347.0
370.0
423.0
489.0
583.0
711.0
939.0
883.0
473.0
84.0
-37.0
-15.0
-71.0
-57.0
-117.0
-165.0
-295.0
-201.0
-230.0
-382.0
204.0
-422.0
-273.0
-129.0
76.0
325.0
566.0
329.0
-35.0
-294.0
-292.0
-360.0
-353.0
-339.0
-422.0
-368.0
-333.0
-187.0
-357.0
-323.0
727.0
223.0
112.0
-11.0
122.0
449.0
541.0
331.0
109.0
-97.0
-146.0
-197.0
-254.0
-171.0
-194.0
55.0
-279.0
-388.0
48.0
-74.0
-457.0
-227.0
-30.0
185.0
278.0
-221.0
-373.0
-536.0
-612.0
-546.0
-636.0
-685.0
-696.0
-812.0
-929.0
257.0
-49.0
-318.0
-341.0
-98.0
264.0
387.0
113.0
-318.0
-495.0
-440.0
-289.0
-269.0
-56.0
64.0
-224.0
-328.0
-314.0
-137.0
15.0
135.0
401.0
720.0
641.0
316.0
5.0
92.0
113.0
112.0
179.0
231.0
-34.0
-68.0
871.0
443.0
-2.0
-79.0
-135.0
-39.0
-39.0
-360.0
-763.0
-801.0
-852.0
-520.0
-655.0
-857.0
-760.0
-1412.0
-925.0
-546.0
-332.0
62.0
441.0
295.0
-128.0
-304.0
-263.0
-196.0
-87.0
113.0
-119.0
-214.0
890.0
628.0
278.0
269.0
394.0
657.0
721.0
366.0
112.0
-13.0
-19.0
-34.0
-58.0
-19.0
133.0
-40.0
-108.0
850.0
521.0
298.0
277.0
450.0
688.0
714.0
382.0
87.0
-28.0
48.0
24.0
-48.0
-31.0
127.0
63.0
-86.0
222.0
-557.0
-90.0
164.0
358.0
535.0
732.0
442.0
120.0
-31.0
-64.0
-23.0
-14.0
-31.0
-14.0
117.0
26.0
-143.0
776.0
214.0
111.0
112.0
268.0
494.0
618.0
400.0
11.0
-162.0
-181.0
-139.0
-153.0
-217.0
-236.0
-224.0
-49.0
-87.0
-263.0
349.0
-94.0
-71.0
-27.0
176.0
468.0
638.0
207.0
-21.0
-127.0
-115.0
-96.0
-121.0
-113.0
-143.0
-149.0
53.0
45.0
-86.0
440.0
-101.0
-34.0
93.0
339.0
592.0
742.0
508.0
166.0
-17.0
-40.0
-9.0
-27.0
-13.0
-115.0
-54.0
81.0
-76.0
-174.0
212.0
198.0
165.0
244.0
396.0
642.0
620.0
265.0
-24.0
-184.0
-197.0
-182.0
-178.0
-168.0
-218.0
-242.0
-89.0
-143.0
-262.0
543.0
110.0
26.0
66.0
185.0
416.0
550.0
317.0
-43.0
-211.0
-195.0
-172.0
-190.0
-195.0
-197.0
-191.0
-187.0
29.0
-76.0
-232.0
643.0
166.0
36.0
70.0
122.0
342.0
469.0
208.0
-182.0
-314.0
-286.0
-259.0
-307.0
-262.0
-266.0
-250.0
-207.0
-41.0
-125.0
-237.0
716.0
280.0
76.0
85.0
232.0
373.0
524.0
238.0
-93.0
-223.0
-233.0
-265.0
-231.0
-227.0
-149.0
-22.0
-147.0
-170.0
820.0
323.0
101.0
105.0
237.0
466.0
548.0
232.0
-98.0
-262.0
-282.0
-281.0
-232.0
-258.0
-274.0
-306.0
-69.0
-202.0
-331.0
583.0
68.0
-87.0
-44.0
74.0
342.0
439.0
180.0
-151.0
-331.0
-348.0
-342.0
-300.0
-345.0
-382.0
-386.0
-400.0
-268.0
-146.0
-382.0
-467.0
454.0
153.0
-51.0
-110.0
49.0
337.0
417.0
104.0
-165.0
-283.0
-346.0
-361.0
-317.0
-298.0
-313.0
-300.0
-284.0
-181.0
-53.0
-134.0
-239.0
330.0
145.0
61.0
79.0
207.0
520.0
544.0
192.0
-99.0
-221.0
-265.0
-198.0
-223.0
-272.0
-296.0
-247.0
-177.0
-20.0
-86.0
-189.0
668.0
154.0
2.0
-17.0
54.0
330.0
509.0
171.0
-150.0
-360.0
-413.0
-405.0
-362.0
-366.0
-311.0
-335.0
-339.0
-368.0
-246.0
-145.0
-305.0
-417.0
72.0
8.0
-93.0
-42.0
178.0
473.0
495.0
192.0
-92.0
-250.0
-257.0
-261.0
-300.0
-279.0
-317.0
-286.0
-262.0
-259.0
-184.0
-81.0
-225.0
-271.0
725.0
447.0
125.0
66.0
201.0
427.0
549.0
234.0
-86.0
-244.0
-262.0
-256.0
-224.0
-256.0
-220.0
-122.0
-236.0
7.0
-5.0
-233.0
-44.0
-649.0
-411.0
-70.0
27.0
536.0
862.0
735.0
344.0
138.0
52.0
36.0
72.0
77.0
32.0
-11.0
-61.0
120.0
45.0
-113.0
488.0
-56.0
-31.0
-67.0
23.0
302.0
487.0
210.0
-222.0
-454.0
-503.0
-532.0
-570.0
-589.0
-576.0
-527.0
-435.0
-312.0
-494.0
-427.0
-763.0
-509.0
-339.0
-141.0
173.0
466.0
354.0
-157.0
-377.0
-408.0
-352.0
-329.0
-367.0
-292.0
-268.0
-69.0
-66.0
-333.0
-307.0
-610.0
-383.0
-129.0
82.0
331.0
586.0
541.0
239.0
-112.0
-227.0
-156.0
-166.0
-274.0
-185.0
-254.0
-142.0
51.0
-127.0
-205.0
-395.0
-140.0
74.0
180.0
317.0
494.0
480.0
222.0
-41.0
-166.0
-165.0
-140.0
-174.0
-140.0
-129.0
-177.0
-112.0
-144.0
-273.0
252.0
-166.0
-198.0
-110.0
112.0
360.0
572.0
425.0
106.0
-61.0
-99.0
-45.0
3.0
-31.0
-124.0
-134.0
-135.0
-100.0
122.0
30.0
-87.0
883.0
443.0
143.0
94.0
222.0
468.0
598.0
290.0
-23.0
-243.0
-267.0
-233.0
-219.0
-293.0
-269.0
-284.0
-110.0
-51.0
-261.0
-150.0
-666.0
-327.0
-95.0
110.0
352.0
604.0
533.0
205.0
-131.0
-130.0
-178.0
-114.0
-192.0
-104.0
-31.0
-270.0
-423.0
458.0
-88.0
-212.0
-138.0
-15.0
300.0
518.0
118.0
-153.0
-326.0
-339.0
-286.0
-231.0
-201.0
2.0
60.0
-132.0
-108.0
-551.0
-243.0
-14.0
141.0
413.0
670.0
531.0
124.0
-52.0
-160.0
-128.0
-148.0
77.0
190.0
-140.0
-342.0
-328.0
-235.0
-98.0
22.0
285.0
527.0
540.0
104.0
-163.0
-284.0
-278.0
-207.0
-178.0
-23.0
-282.0
-436.0
620.0
238.0
-28.0
-71.0
88.0
355.0
459.0
199.0
-74.0
-248.0
-232.0
-255.0
-172.0
-254.0
-90.0
59.0
-186.0
-285.0
566.0
348.0
146.0
169.0
327.0
662.0
724.0
386.0
70.0
-113.0
-92.0
-99.0
-116.0
-110.0
-2.0
155.0
-38.0
-167.0
399.0
199.0
110.0
113.0
251.0
497.0
243.0
-64.0
-174.0
-168.0
-151.0
-224.0
-220.0
-245.0
-163.0
-61.0
-241.0
-325.0
684.0
364.0
61.0
-25.0
92.0
322.0
411.0
139.0
-66.0
-259.0
-235.0
-209.0
-244.0
-282.0
-270.0
-275.0
-213.0
-60.0
-194.0
-283.0
703.0
262.0
12.0
-18.0
93.0
317.0
511.0
222.0
-141.0
-318.0
-335.0
-251.0
-242.0
-248.0
-224.0
-251.0
-85.0
46.0
-127.0
-224.0
-397.0
-167.0
-12.0
50.0
273.0
557.0
536.0
192.0
-69.0
-141.0
-172.0
-230.0
-299.0
-309.0
-316.0
-136.0
-80.0
-246.0
103.0
-641.0
-396.0
-182.0
138.0
299.0
574.0
347.0
27.0
-178.0
-249.0
-237.0
-233.0
-261.0
-270.0
-275.0
-213.0
-117.0
-258.0
-388.0
61.0
-14.0
20.0
91.0
297.0
509.0
530.0
141.0
-120.0
-275.0
-246.0
-263.0
-219.0
-276.0
-295.0
-202.0
-65.0
-199.0
-302.0
409.0
174.0
91.0
87.0
253.0
484.0
532.0
226.0
-59.0
-188.0
-148.0
-216.0
-192.0
-245.0
-295.0
-249.0
-88.0
-182.0
-202.0
693.0
254.0
115.0
156.0
255.0
480.0
628.0
371.0
24.0
-169.0
-192.0
-152.0
-161.0
-233.0
-276.0
-286.0
-259.0
-44.0
-122.0
-238.0
295.0
-257.0
-166.0
-10.0
169.0
410.0
643.0
401.0
62.0
-99.0
-113.0
-121.0
-141.0
-168.0
-162.0
-161.0
-154.0
-21.0
188.0
-101.0
-279.0
-492.0
-287.0
-32.0
143.0
383.0
636.0
599.0
227.0
-35.0
-119.0
-126.0
-126.0
-110.0
-115.0
-114.0
-116.0
-130.0
50.0
-11.0
-97.0
477.0
-52.0
-6.0
47.0
239.0
524.0
680.0
460.0
106.0
-82.0
-85.0
-143.0
-188.0
-227.0
-248.0
-200.0
32.0
-68.0
-174.0
535.0
13.0
-15.0
-4.0
186.0
409.0
571.0
363.0
-47.0
-267.0
-297.0
-320.0
-346.0
-353.0
-332.0
-283.0
-279.0
-155.0
-58.0
-227.0
-271.0
537.0
253.0
108.0
137.0
304.0
526.0
591.0
293.0
1.0
-170.0
-129.0
-192.0
-200.0
-221.0
-283.0
-290.0
-303.0
-188.0
-131.0
-246.0
-346.0
493.0
251.0
94.0
109.0
275.0
516.0
545.0
217.0
-67.0
-204.0
-255.0
-216.0
-234.0
-262.0
-271.0
-272.0
-202.0
-42.0
-274.0
-362.0
-256.0
-98.0
11.0
163.0
375.0
637.0
656.0
316.0
32.0
-122.0
-120.0
-105.0
-167.0
-215.0
-254.0
-255.0
-172.0
3.0
-236.0
-283.0
3.0
-34.0
-52.0
25.0
283.0
547.0
585.0
242.0
-49.0
-125.0
-195.0
-238.0
-274.0
-229.0
-261.0
-249.0
-41.0
106.0
-161.0
-211.0
-614.0
-315.0
-66.0
182.0
477.0
770.0
685.0
334.0
30.0
-109.0
-108.0
-130.0
-221.0
-186.0
-118.0
-76.0
76.0
238.0
-17.0
46.0
-492.0
-178.0
-46.0
225.0
489.0
713.0
516.0
250.0
22.0
-170.0
-196.0
-309.0
-263.0
-383.0
-443.0
-230.0
-207.0
-300.0
225.0
-264.0
-212.0
-198.0
5.0
293.0
438.0
186.0
-150.0
-291.0
-361.0
-349.0
-321.0
-381.0
-494.0
-465.0
-308.0
-470.0
-519.0
449.0
35.0
-201.0
-204.0
-101.0
215.0
480.0
188.0
-167.0
-324.0
-337.0
-332.0
-343.0
-248.0
-246.0
-231.0
-55.0
-47.0
-122.0
-80.0
-625.0
-270.0
-106.0
91.0
371.0
598.0
611.0
192.0
-56.0
-113.0
-70.0
-42.0
-73.0
-232.0
-195.0
25.0
-114.0
-297.0
189.0
54.0
-17.0
138.0
243.0
366.0
480.0
208.0
-77.0
-159.0
-151.0
-85.0
-119.0
-143.0
-75.0
-52.0
-13.0
46.0
-189.0
-179.0
779.0
323.0
34.0
6.0
170.0
443.0
522.0
210.0
-91.0
-255.0
-240.0
-174.0
-187.0
-165.0
-259.0
-269.0
-185.0
51.0
185.0
-39.0
-158.0
-448.0
-240.0
-17.0
119.0
440.0
690.0
630.0
226.0
29.0
-63.0
-105.0
-110.0
-175.0
-204.0
-146.0
-149.0
-119.0
9.0
-96.0
-199.0
716.0
299.0
137.0
178.0
401.0
628.0
769.0
449.0
46.0
-92.0
-159.0
-125.0
-170.0
-269.0
-223.0
-273.0
-36.0
84.0
-122.0
-133.0
-534.0
-142.0
57.0
177.0
428.0
656.0
493.0
64.0
-133.0
-186.0
-192.0
-222.0
-248.0
-248.0
-252.0
-78.0
30.0
-83.0
-181.0
-47.0
-128.0
-28.0
190.0
387.0
598.0
542.0
304.0
-48.0
-151.0
-211.0
-193.0
-169.0
-214.0
-158.0
-259.0
-47.0
26.0
-229.0
308.0
-289.0
-154.0
9.0
120.0
444.0
589.0
315.0
-7.0
-158.0
-87.0
-116.0
-143.0
-151.0
-204.0
-250.0
-57.0
-99.0
-306.0
40.0
-806.0
-453.0
-195.0
-37.0
366.0
624.0
538.0
176.0
40.0
-88.0
-108.0
-167.0
-175.0
-237.0
-205.0
5.0
40.0
-135.0
233.0
-537.0
-258.0
-49.0
144.0
356.0
681.0
521.0
177.0
-115.0
-108.0
-197.0
-218.0
-269.0
-355.0
-343.0
-204.0
11.0
-192.0
-380.0
-436.0
-230.0
-115.0
70.0
258.0
575.0
676.0
290.0
27.0
-142.0
-146.0
-192.0
-260.0
-274.0
-302.0
-289.0
1.0
10.0
-265.0
-468.0
-322.0
-61.0
-587.0
392.0
589.0
535.0
-53.0
-680.0
-574.0
-391.0
-368.0
-299.0
-358.0
-480.0
-150.0
-31.0
-156.0
-161.0
-394.0
-192.0
-48.0
209.0
656.0
914.0
754.0
325.0
-84.0
-254.0
-211.0
-253.0
-191.0
-269.0
-207.0
-172.0
-187.0
-134.0
-11.0
-137.0
372.0
-104.0
5.0
229.0
344.0
529.0
796.0
588.0
206.0
-12.0
-78.0
-80.0
-72.0
-48.0
-88.0
-160.0
-150.0
2.0
142.0
-4.0
-162.0
800.0
390.0
238.0
210.0
310.0
556.0
654.0
378.0
36.0
-159.0
-129.0
-124.0
-58.0
-64.0
-35.0
-22.0
29.0
-99.0
-107.0
780.0
495.0
280.0
208.0
352.0
591.0
658.0
339.0
5.0
-104.0
-129.0
-161.0
-180.0
-120.0
-196.0
-178.0
-87.0
23.0
-208.0
-336.0
-131.0
-106.0
36.0
220.0
453.0
599.0
300.0
8.0
-232.0
-275.0
-197.0
-179.0
-201.0
-149.0
-159.0
-295.0
-219.0
16.0
12.0
-146.0
43.0
-670.0
-355.0
-111.0
94.0
371.0
659.0
576.0
161.0
-83.0
-161.0
-144.0
-52.0
-110.0
-168.0
-122.0
-149.0
-160.0
-42.0
214.0
49.0
-152.0
-231.0
-79.0
44.0
169.0
411.0
691.0
698.0
210.0
-53.0
-182.0
-135.0
-86.0
-148.0
-186.0
-155.0
-117.0
17.0
-83.0
-142.0
734.0
220.0
-2.0
22.0
190.0
411.0
557.0
311.0
7.0
-219.0
-291.0
-278.0
-299.0
-352.0
-354.0
-331.0
-133.0
-115.0
-300.0
303.0
-131.0
-156.0
31.0
181.0
487.0
727.0
516.0
218.0
-45.0
-111.0
-53.0
-63.0
-114.0
-161.0
-193.0
-203.0
56.0
12.0
-200.0
-704.0
-317.0
-23.0
220.0
499.0
759.0
646.0
224.0
6.0
-102.0
-47.0
-48.0
-82.0
-97.0
-133.0
54.0
126.0
-29.0
165.0
-547.0
-136.0
86.0
275.0
533.0
770.0
621.0
215.0
47.0
-109.0
-81.0
-162.0
-215.0
-224.0
-99.0
55.0
-236.0
-347.0
-121.0
-76.0
-27.0
84.0
242.0
572.0
612.0
194.0
-122.0
-286.0
-283.0
-277.0
-319.0
-358.0
-344.0
-336.0
-224.0
-97.0
-152.0
-303.0
719.0
320.0
87.0
96.0
191.0
407.0
608.0
387.0
5.0
-182.0
-207.0
-251.0
-218.0
-179.0
-263.0
-259.0
-210.0
-252.0
-181.0
-34.0
-218.0
-301.0
162.0
117.0
70.0
159.0
350.0
589.0
586.0
276.0
-22.0
-55.0
-80.0
12.0
-95.0
-183.0
-148.0
-134.0
-122.0
22.0
-48.0
-174.0
589.0
236.0
142.0
226.0
389.0
597.0
451.0
24.0
-207.0
-231.0
-228.0
-212.0
-183.0
-255.0
-335.0
-381.0
-371.0
-160.0
-152.0
-319.0
35.0
-729.0
-402.0
-121.0
88.0
383.0
573.0
420.0
21.0
-174.0
-255.0
-229.0
-203.0
-168.0
-279.0
-264.0
-293.0
-267.0
-37.0
14.0
-192.0
-72.0
-689.0
-375.0
-112.0
169.0
405.0
568.0
514.0
102.0
-199.0
-281.0
-273.0
-252.0
-283.0
-258.0
-297.0
-243.0
-147.0
-315.0
-283.0
652.0
280.0
8.0
86.0
183.0
526.0
626.0
289.0
-115.0
-223.0
-322.0
-261.0
-214.0
-248.0
-210.0
-227.0
-137.0
-333.0
-443.0
-69.0
-111.0
-131.0
1.0
216.0
471.0
556.0
241.0
-152.0
-275.0
-274.0
-270.0
-279.0
-313.0
-305.0
-210.0
-136.0
-300.0
-335.0
704.0
316.0
123.0
129.0
373.0
604.0
365.0
-12.0
-162.0
-230.0
-247.0
-296.0
-325.0
-370.0
-357.0
-141.0
-186.0
-341.0
-81.0
-817.0
-474.0
-146.0
115.0
365.0
651.0
494.0
139.0
-118.0
-159.0
-144.0
-154.0
-151.0
-191.0
-168.0
-236.0
-106.0
-47.0
-296.0
84.0
-771.0
-321.0
-30.0
199.0
508.0
812.0
645.0
302.0
-9.0
-64.0
24.0
4.0
-66.0
-81.0
-15.0
30.0
-121.0
-186.0
377.0
144.0
110.0
263.0
333.0
558.0
631.0
282.0
-104.0
-222.0
-205.0
-177.0
-175.0
-199.0
-193.0
-105.0
-1.0
-144.0
-209.0
736.0
412.0
95.0
17.0
124.0
422.0
579.0
254.0
-95.0
-251.0
-310.0
-282.0
-247.0
-287.0
-335.0
-245.0
-203.0
-117.0
37.0
-125.0
-176.0
925.0
520.0
198.0
106.0
267.0
526.0
412.0
113.0
-131.0
-141.0
-110.0
-175.0
-151.0
-207.0
-311.0
-342.0
-308.0
-71.0
-58.0
-253.0
-205.0
-622.0
-335.0
-79.0
105.0
342.0
551.0
530.0
209.0
-75.0
-172.0
-157.0
-163.0
-156.0
-170.0
-158.0
-89.0
51.0
-137.0
-246.0
650.0
49.0
28.0
8.0
183.0
360.0
501.0
251.0
-66.0
-252.0
-278.0
-199.0
-240.0
-246.0
-257.0
-197.0
-112.0
-300.0
-414.0
575.0
276.0
15.0
33.0
224.0
443.0
487.0
184.0
-153.0
-231.0
-251.0
-271.0
-216.0
-206.0
-115.0
-249.0
-380.0
607.0
171.0
-21.0
-34.0
123.0
338.0
439.0
185.0
-192.0
-323.0
-334.0
-302.0
-271.0
-158.0
-342.0
-509.0
445.0
3.0
-167.0
-144.0
47.0
341.0
515.0
184.0
-213.0
-346.0
-364.0
-330.0
-353.0
-236.0
-325.0
-410.0
510.0
-54.0
-206.0
-152.0
13.0
343.0
508.0
222.0
-181.0
-287.0
-387.0
-387.0
-445.0
-487.0
-567.0
-345.0
-181.0
-428.0
-510.0
-733.0
-448.0
-239.0
-96.0
161.0
477.0
440.0
12.0
-329.0
-424.0
-421.0
-432.0
-469.0
-517.0
-523.0
-349.0
-396.0
-498.0
152.0
-264.0
-309.0
-203.0
-26.0
236.0
428.0
189.0
-150.0
-295.0
-332.0
-283.0
-322.0
-325.0
-371.0
-357.0
-351.0
-79.0
-17.0
-209.0
-293.0
-587.0
-384.0
-183.0
13.0
275.0
587.0
471.0
86.0
-184.0
-305.0
-301.0
-293.0
-280.0
-280.0
-295.0
-275.0
-236.0
-130.0
20.0
-186.0
-266.0
335.0
183.0
-1.0
62.0
245.0
449.0
521.0
218.0
-103.0
-236.0
-221.0
-132.0
-177.0
-151.0
-152.0
-188.0
-166.0
29.0
-35.0
-111.0
-334.0
-24.0
126.0
287.0
563.0
830.0
822.0
444.0
174.0
24.0
20.0
-35.0
-78.0
-104.0
-123.0
-103.0
48.0
68.0
-159.0
197.0
-633.0
-324.0
-49.0
219.0
541.0
743.0
579.0
212.0
-25.0
-92.0
-88.0
-148.0
-189.0
-192.0
-235.0
-227.0
-22.0
3.0
-189.0
243.0
-729.0
-323.0
-60.0
217.0
476.0
750.0
650.0
241.0
44.0
-7.0
-21.0
-26.0
-90.0
-101.0
-139.0
-137.0
31.0
120.0
-92.0
-124.0
-510.0
-165.0
10.0
220.0
460.0
766.0
679.0
347.0
17.0
-25.0
-28.0
58.0
77.0
42.0
-41.0
79.0
238.0
-12.0
-181.0
-342.0
-51.0
110.0
283.0
494.0
746.0
713.0
340.0
30.0
-54.0
-76.0
-29.0
-79.0
-134.0
-147.0
-178.0
10.0
11.0
-194.0
-501.0
-243.0
-45.0
141.0
369.0
668.0
649.0
282.0
-47.0
-130.0
-202.0
-173.0
-168.0
-191.0
-175.0
-221.0
-194.0
11.0
-3.0
-179.0
244.0
-605.0
-307.0
-104.0
212.0
548.0
762.0
612.0
158.0
-65.0
-83.0
-80.0
-92.0
-154.0
-90.0
-135.0
-89.0
75.0
144.0
-77.0
74.0
-615.0
-188.0
109.0
266.0
534.0
863.0
736.0
315.0
71.0
-88.0
-87.0
-64.0
-89.0
-125.0
-101.0
-21.0
51.0
-187.0
-282.0
722.0
305.0
11.0
-19.0
115.0
330.0
461.0
177.0
-129.0
-305.0
-315.0
-330.0
-292.0
-262.0
-248.0
-264.0
-287.0
-188.0
-121.0
-283.0
-326.0
665.0
274.0
-7.0
-28.0
147.0
445.0
521.0
221.0
-107.0
-240.0
-292.0
-290.0
-290.0
-317.0
-311.0
-302.0
-271.0
-216.0
-75.0
-172.0
563.0
103.0
15.0
80.0
313.0
598.0
733.0
475.0
106.0
-111.0
-148.0
-127.0
-164.0
-180.0
-217.0
-239.0
-92.0
126.0
-92.0
-192.0
-417.0
-120.0
82.0
242.0
423.0
671.0
705.0
262.0
-86.0
-139.0
-97.0
-145.0
-146.0
-247.0
-299.0
-318.0
-161.0
-144.0
-252.0
186.0
-615.0
-343.0
-175.0
42.0
328.0
572.0
382.0
-23.0
-220.0
-240.0
-232.0
-196.0
-228.0
-262.0
-279.0
-279.0
-109.0
78.0
-216.0
-327.0
-386.0
-246.0
-124.0
22.0
271.0
535.0
578.0
225.0
-76.0
-142.0
-145.0
-114.0
-150.0
-159.0
-162.0
-161.0
-152.0
-44.0
188.0
34.0
-69.0
-125.0
67.0
145.0
270.0
419.0
712.0
732.0
342.0
62.0
-83.0
-125.0
-97.0
-128.0
-147.0
-157.0
-122.0
10.0
-87.0
359.0
-276.0
-27.0
129.0
326.0
535.0
749.0
543.0
134.0
-98.0
-144.0
-93.0
-103.0
-123.0
-166.0
-261.0
-194.0
-27.0
256.0
-141.0
307.0
-303.0
-242.0
-177.0
-20.0
229.0
434.0
264.0
-68.0
-298.0
-348.0
-355.0
-359.0
-376.0
-411.0
-409.0
-404.0
-343.0
-248.0
-77.0
-336.0
-472.0
97.0
-32.0
-54.0
6.0
211.0
458.0
530.0
203.0
-155.0
-262.0
-303.0
-268.0
-230.0
-268.0
-250.0
-237.0
-238.0
-113.0
29.0
-145.0
-201.0
277.0
221.0
184.0
230.0
347.0
591.0
678.0
362.0
53.0
-153.0
-205.0
-128.0
-152.0
-155.0
-133.0
-139.0
6.0
-108.0
-182.0
777.0
359.0
114.0
105.0
220.0
489.0
574.0
267.0
-57.0
-247.0
-318.0
-240.0
-244.0
-283.0
-320.0
-309.0
-230.0
-76.0
-239.0
256.0
-526.0
-287.0
-112.0
83.0
358.0
597.0
465.0
46.0
-189.0
-216.0
-229.0
-282.0
-300.0
-368.0
-387.0
-368.0
-344.0
-345.0
-221.0
-33.0
-263.0
-459.0
-514.0
-274.0
-145.0
2.0
245.0
556.0
618.0
255.0
-103.0
-231.0
-187.0
-141.0
-134.0
-162.0
-224.0
-224.0
-174.0
-199.0
3.0
-62.0
-203.0
602.0
54.0
-3.0
53.0
237.0
512.0
687.0
499.0
126.0
-104.0
-148.0
-146.0
-84.0
-84.0
-110.0
-171.0
-84.0
7.0
-155.0
-205.0
279.0
111.0
80.0
128.0
269.0
556.0
586.0
171.0
-165.0
-276.0
-250.0
-226.0
-242.0
-351.0
-296.0
-226.0
-107.0
80.0
-134.0
-280.0
81.0
85.0
66.0
121.0
243.0
493.0
503.0
187.0
-138.0
-315.0
-363.0
-335.0
-296.0
-435.0
-385.0
-386.0
-416.0
-196.0
-141.0
-291.0
-93.0
-807.0
-408.0
-181.0
112.0
400.0
678.0
629.0
246.0
-52.0
-192.0
-204.0
-174.0
-205.0
-198.0
-276.0
-222.0
-206.0
13.0
-61.0
-176.0
618.0
82.0
-3.0
31.0
253.0
542.0
763.0
534.0
149.0
-74.0
-131.0
-74.0
-91.0
-113.0
-96.0
-132.0
58.0
244.0
-38.0
-179.0
-337.0
-104.0
23.0
159.0
388.0
636.0
655.0
297.0
-15.0
-207.0
-212.0
-217.0
-206.0
-219.0
-223.0
-215.0
-111.0
9.0
-229.0
-326.0
705.0
318.0
31.0
12.0
99.0
304.0
434.0
144.0
-219.0
-454.0
-488.0
-461.0
-444.0
-413.0
-385.0
-412.0
-383.0
-285.0
-43.0
-54.0
-224.0
497.0
43.0
0.0
94.0
275.0
515.0
690.0
525.0
127.0
-93.0
-186.0
-177.0
-172.0
-137.0
-123.0
-60.0
-30.0
-95.0
-123.0
845.0
446.0
235.0
175.0
335.0
573.0
682.0
445.0
58.0
-124.0
-189.0
-145.0
-173.0
-194.0
-208.0
-230.0
-8.0
-11.0
-210.0
-41.0
-749.0
-402.0
-161.0
35.0
276.0
541.0
422.0
42.0
-222.0
-331.0
-319.0
-284.0
-358.0
-383.0
-411.0
-387.0
-282.0
-122.0
-357.0
-445.0
-371.0
-253.0
-170.0
21.0
267.0
520.0
551.0
331.0
-65.0
-245.0
-300.0
-260.0
-230.0
-233.0
-229.0
-225.0
-181.0
9.0
-133.0
-173.0
815.0
384.0
173.0
118.0
277.0
478.0
623.0
283.0
-66.0
-189.0
-177.0
-183.0
-199.0
-197.0
-116.0
-169.0
-17.0
39.0
-108.0
39.0
-496.0
-182.0
-7.0
175.0
398.0
698.0
662.0
307.0
-20.0
-157.0
-155.0
-199.0
-281.0
-400.0
-392.0
-322.0
-113.0
-169.0
-344.0
173.0
-246.0
-251.0
-105.0
63.0
313.0
505.0
338.0
-26.0
-277.0
-337.0
-343.0
-293.0
-298.0
-337.0
-342.0
-331.0
-359.0
-278.0
-109.0
-270.0
-345.0
128.0
62.0
30.0
113.0
237.0
497.0
595.0
251.0
-116.0
-279.0
-303.0
-288.0
-303.0
-324.0
-358.0
-331.0
-243.0
-202.0
-314.0
-301.0
542.0
204.0
28.0
23.0
167.0
440.0
560.0
183.0
-164.0
-366.0
-361.0
-384.0
-356.0
-409.0
-389.0
-347.0
-341.0
-147.0
-195.0
-333.0
429.0
-101.0
-228.0
-192.0
-51.0
125.0
268.0
39.0
-357.0
-463.0
-505.0
-500.0
-460.0
-577.0
-592.0
-517.0
-507.0
-304.0
-54.0
-323.0
-448.0
-759.0
-462.0
-227.0
-37.0
210.0
562.0
561.0
153.0
-195.0
-330.0
-336.0
-342.0
-299.0
-273.0
-221.0
-261.0
-68.0
-122.0
-218.0
577.0
63.0
-20.0
-1.0
204.0
510.0
715.0
462.0
134.0
-93.0
-120.0
-131.0
-81.0
-106.0
-149.0
-105.0
-17.0
-183.0
-207.0
848.0
427.0
165.0
110.0
245.0
454.0
558.0
263.0
-157.0
-319.0
-335.0
-310.0
-348.0
-323.0
-349.0
-370.0
-110.0
37.0
-181.0
-155.0
-630.0
-271.0
-35.0
178.0
441.0
749.0
683.0
272.0
40.0
-85.0
-176.0
-164.0
-127.0
-198.0
-157.0
-146.0
84.0
117.0
-131.0
74.0
-655.0
-247.0
36.0
275.0
529.0
786.0
664.0
254.0
-43.0
-77.0
-61.0
-98.0
-158.0
-238.0
-248.0
-212.0
-62.0
53.0
-53.0
-122.0
658.0
493.0
343.0
366.0
486.0
732.0
854.0
563.0
182.0
-44.0
-95.0
-66.0
-48.0
-22.0
61.0
213.0
-7.0
-155.0
-285.0
-48.0
96.0
261.0
454.0
752.0
795.0
342.0
5.0
-88.0
-78.0
-83.0
-83.0
-102.0
-126.0
14.0
148.0
-23.0
-75.0
955.0
557.0
268.0
182.0
300.0
480.0
600.0
285.0
-70.0
-261.0
-302.0
-248.0
-254.0
-263.0
-317.0
-355.0
-345.0
-175.0
2.0
-245.0
-310.0
-514.0
-299.0
-69.0
106.0
253.0
603.0
660.0
344.0
28.0
-79.0
-123.0
-96.0
-112.0
-204.0
-227.0
-169.0
-136.0
-142.0
125.0
271.0
55.0
-33.0
-228.0
-53.0
153.0
341.0
562.0
825.0
846.0
463.0
163.0
31.0
55.0
50.0
-10.0
-89.0
-97.0
-84.0
10.0
134.0
-8.0
-109.0
809.0
352.0
173.0
182.0
326.0
581.0
722.0
527.0
134.0
-98.0
-161.0
-171.0
-204.0
-250.0
-321.0
-310.0
-209.0
-18.0
-221.0
-288.0
44.0
34.0
29.0
91.0
256.0
533.0
642.0
241.0
-86.0
-224.0
-260.0
-245.0
-227.0
-222.0
-222.0
-273.0
-307.0
-205.0
-79.0
-244.0
-334.0
485.0
303.0
156.0
111.0
252.0
531.0
561.0
205.0
-179.0
-421.0
-401.0
-242.0
-273.0
-311.0
-339.0
-248.0
-16.0
-132.0
-170.0
-233.0
41.0
253.0
464.0
718.0
983.0
993.0
525.0
172.0
-6.0
-62.0
-83.0
-197.0
-287.0
-132.0
-188.0
-368.0
-52.0
-858.0
-520.0
-268.0
-48.0
200.0
460.0
292.0
-143.0
-392.0
-452.0
-406.0
-355.0
-322.0
-162.0
-309.0
-504.0
310.0
-173.0
-276.0
-217.0
-45.0
188.0
387.0
133.0
-233.0
-387.0
-366.0
-345.0
-165.0
-60.0
-327.0
-476.0
322.0
95.0
-87.0
-118.0
319.0
369.0
17.0
-290.0
-385.0
-348.0
-297.0
-60.0
-136.0
-339.0
148.0
-551.0
-341.0
-143.0
149.0
491.0
697.0
411.0
-97.0
-220.0
-217.0
-116.0
-87.0
-100.0
156.0
125.0
-53.0
368.0
-464.0
-129.0
94.0
388.0
703.0
983.0
771.0
399.0
228.0
247.0
207.0
212.0
115.0
292.0
182.0
19.0
414.0
-441.0
-117.0
97.0
349.0
586.0
810.0
614.0
242.0
5.0
-18.0
-50.0
-71.0
-155.0
-179.0
-133.0
-10.0
-153.0
-319.0
712.0
266.0
14.0
-6.0
150.0
387.0
533.0
324.0
-71.0
-240.0
-244.0
-208.0
-206.0
-208.0
-220.0
-239.0
-143.0
-19.0
-162.0
-297.0
636.0
194.0
-39.0
-48.0
71.0
308.0
512.0
401.0
-42.0
-205.0
-267.0
-218.0
-233.0
-211.0
-229.0
-216.0
-55.0
-153.0
-185.0
859.0
581.0
369.0
348.0
459.0
753.0
914.0
689.0
332.0
275.0
318.0
318.0
313.0
220.0
147.0
166.0
273.0
105.0
-13.0
949.0
494.0
295.0
235.0
350.0
588.0
661.0
346.0
-53.0
-264.0
-325.0
-271.0
-255.0
-277.0
-315.0
-337.0
-124.0
30.0
-261.0
-409.0
-622.0
-305.0
-148.0
67.0
298.0
577.0
604.0
221.0
-70.0
-177.0
-168.0
-176.0
-247.0
-239.0
-266.0
-163.0
97.0
141.0
-16.0
398.0
-510.0
-141.0
98.0
316.0
599.0
854.0
759.0
286.0
55.0
-7.0
-15.0
-6.0
-9.0
-32.0
58.0
181.0
21.0
17.0
474.0
312.0
289.0
306.0
465.0
696.0
762.0
352.0
-13.0
-206.0
-252.0
-222.0
-328.0
-358.0
-340.0
-167.0
-139.0
-317.0
-227.0
-741.0
-418.0
-63.0
184.0
536.0
545.0
121.0
-193.0
-297.0
-302.0
-344.0
-372.0
-344.0
-352.0
-336.0
-116.0
-103.0
-294.0
-93.0
-741.0
-331.0
-121.0
88.0
404.0
722.0
601.0
179.0
-66.0
-140.0
-80.0
-30.0
-55.0
-97.0
-80.0
-28.0
-87.0
150.0
200.0
12.0
126.0
-461.0
-110.0
102.0
334.0
585.0
904.0
813.0
347.0
80.0
-15.0
36.0
54.0
70.0
79.0
114.0
80.0
267.0
180.0
122.0
844.0
342.0
343.0
380.0
467.0
665.0
823.0
607.0
248.0
-5.0
-73.0
-51.0
-46.0
-124.0
-166.0
-197.0
-107.0
-37.0
-187.0
-296.0
716.0
358.0
85.0
29.0
142.0
376.0
485.0
167.0
-184.0
-340.0
-402.0
-361.0
-364.0
-412.0
-451.0
-494.0
-455.0
-478.0
-326.0
-60.0
-245.0
-406.0
-75.0
-119.0
-55.0
151.0
428.0
583.0
335.0
-84.0
-293.0
-297.0
-229.0
-175.0
-130.0
-77.0
-81.0
-71.0
-65.0
71.0
182.0
67.0
-20.0
978.0
613.0
414.0
382.0
535.0
783.0
910.0
624.0
292.0
115.0
113.0
109.0
117.0
109.0
71.0
67.0
173.0
383.0
115.0
-18.0
-201.0
53.0
224.0
305.0
505.0
762.0
869.0
447.0
142.0
-53.0
-87.0
-135.0
-147.0
-200.0
-217.0
-237.0
-25.0
63.0
-184.0
-58.0
-577.0
-252.0
14.0
170.0
375.0
709.0
687.0
274.0
-66.0
-173.0
-195.0
-166.0
-201.0
-278.0
-260.0
-162.0
-181.0
46.0
-68.0
-175.0
711.0
252.0
121.0
88.0
229.0
474.0
708.0
489.0
98.0
-109.0
-141.0
-166.0
-163.0
-167.0
-91.0
-119.0
-162.0
-3.0
-25.0
-118.0
-641.0
-156.0
168.0
402.0
700.0
948.0
876.0
478.0
192.0
64.0
29.0
43.0
-24.0
-20.0
37.0
94.0
7.0
-52.0
917.0
520.0
277.0
187.0
310.0
577.0
675.0
343.0
-45.0
-266.0
-329.0
-263.0
-247.0
-285.0
-348.0
-374.0
-283.0
-92.0
-274.0
-412.0
-8.0
-104.0
-132.0
-31.0
118.0
465.0
504.0
166.0
-169.0
-308.0
-323.0
-357.0
-372.0
-442.0
-428.0
-500.0
-459.0
-267.0
-351.0
-497.0
152.0
-325.0
-249.0
-113.0
82.0
354.0
618.0
411.0
17.0
-155.0
-216.0
-196.0
-174.0
-218.0
-210.0
-252.0
-186.0
30.0
-153.0
-199.0
744.0
327.0
188.0
213.0
334.0
579.0
661.0
432.0
12.0
-165.0
-258.0
-288.0
-321.0
-339.0
-346.0
-362.0
-250.0
-87.0
-347.0
-436.0
-167.0
-127.0
-47.0
139.0
370.0
472.0
158.0
-170.0
-331.0
-341.0
-299.0
-299.0
-317.0
-366.0
-380.0
-332.0
-263.0
-139.0
-323.0
-391.0
720.0
373.0
75.0
6.0
110.0
383.0
488.0
202.0
-148.0
-311.0
-275.0
-273.0
-280.0
-332.0
-359.0
-322.0
-294.0
-248.0
-234.0
-17.0
-4.0
-54.0
588.0
-14.0
61.0
169.0
281.0
549.0
750.0
617.0
260.0
38.0
-33.0
-15.0
39.0
44.0
-2.0
5.0
42.0
215.0
335.0
97.0
1.0
-76.0
201.0
328.0
460.0
635.0
910.0
964.0
550.0
111.0
-36.0
-121.0
-105.0
-108.0
-138.0
-177.0
-193.0
-145.0
-140.0
-238.0
474.0
-36.0
-21.0
85.0
218.0
423.0
635.0
452.0
46.0
-211.0
-266.0
-293.0
-265.0
-305.0
-382.0
-427.0
-273.0
-84.0
-328.0
-443.0
-112.0
-73.0
44.0
218.0
429.0
618.0
311.0
-32.0
-220.0
-306.0
-249.0
-262.0
-279.0
-212.0
-222.0
-187.0
-5.0
-27.0
-182.0
511.0
-8.0
-31.0
99.0
292.0
492.0
665.0
436.0
34.0
-174.0
-268.0
-190.0
-172.0
-218.0
-207.0
-162.0
-134.0
-50.0
101.0
57.0
-11.0
983.0
586.0
367.0
325.0
462.0
705.0
871.0
597.0
205.0
51.0
3.0
-11.0
-9.0
-30.0
-19.0
-48.0
191.0
124.0
-39.0
378.0
-530.0
-133.0
129.0
351.0
610.0
893.0
666.0
217.0
-51.0
-115.0
-124.0
-156.0
-197.0
-199.0
-214.0
-199.0
-109.0
-26.0
-243.0
-398.0
628.0
274.0
4.0
-22.0
32.0
317.0
501.0
245.0
-133.0
-313.0
-334.0
-335.0
-363.0
-354.0
-423.0
-452.0
-489.0
-533.0
-469.0
-333.0
-432.0
-420.0
-862.0
-519.0
-291.0
-98.0
194.0
556.0
608.0
245.0
-79.0
-176.0
-194.0
-181.0
-164.0
-190.0
-179.0
-189.0
-201.0
-137.0
148.0
150.0
50.0
359.0
-501.0
-103.0
198.0
415.0
700.0
996.0
874.0
436.0
132.0
16.0
-31.0
-55.0
-71.0
-187.0
-198.0
-208.0
-188.0
-67.0
96.0
-124.0
-261.0
-259.0
-85.0
0.0
94.0
288.0
575.0
647.0
351.0
-35.0
-251.0
-269.0
-259.0
-283.0
-298.0
-325.0
-339.0
-380.0
-370.0
-289.0
-127.0
-277.0
-391.0
660.0
264.0
-25.0
-18.0
107.0
404.0
601.0
337.0
-40.0
-222.0
-345.0
-269.0
-244.0
-228.0
-236.0
-244.0
-209.0
-194.0
-110.0
53.0
-31.0
-72.0
930.0
449.0
284.0
246.0
411.0
682.0
858.0
574.0
172.0
6.0
-55.0
-82.0
-53.0
-93.0
-117.0
-45.0
60.0
-46.0
-90.0
848.0
524.0
286.0
239.0
363.0
594.0
702.0
421.0
10.0
-203.0
-247.0
-196.0
-228.0
-279.0
-344.0
-370.0
-355.0
-138.0
-104.0
-300.0
-54.0
-814.0
-435.0
-228.0
48.0
380.0
610.0
509.0
110.0
-141.0
-272.0
-296.0
-296.0
-312.0
-364.0
-394.0
-427.0
-394.0
-184.0
-292.0
-402.0
567.0
67.0
7.0
67.0
246.0
529.0
687.0
483.0
91.0
-131.0
-119.0
-84.0
-54.0
-43.0
-43.0
-100.0
42.0
101.0
-52.0
168.0
-633.0
-216.0
48.0
220.0
489.0
814.0
634.0
254.0
-1.0
-92.0
-88.0
-83.0
-96.0
-170.0
-209.0
-165.0
-30.0
-206.0
-323.0
700.0
282.0
17.0
-40.0
62.0
246.0
397.0
174.0
-165.0
-363.0
-420.0
-422.0
-488.0
-480.0
-466.0
-385.0
-181.0
-299.0
-376.0
582.0
177.0
-40.0
-52.0
-5.0
290.0
481.0
249.0
-146.0
-361.0
-372.0
-345.0
-301.0
-334.0
-303.0
-273.0
-248.0
-215.0
-44.0
-98.0
-217.0
677.0
198.0
81.0
117.0
280.0
531.0
729.0
484.0
146.0
-99.0
-118.0
-95.0
-136.0
-139.0
-158.0
-107.0
35.0
188.0
22.0
-117.0
285.0
232.0
151.0
219.0
338.0
595.0
645.0
238.0
-115.0
-237.0
-278.0
-255.0
-276.0
-322.0
-321.0
-319.0
-236.0
-87.0
140.0
-111.0
-284.0
-437.0
-267.0
-132.0
15.0
227.0
466.0
477.0
70.0
-263.0
-352.0
-311.0
-341.0
-263.0
-254.0
-287.0
-317.0
-373.0
-341.0
-255.0
-79.0
-177.0
-268.0
798.0
419.0
100.0
44.0
112.0
382.0
559.0
367.0
-16.0
-181.0
-227.0
-180.0
-233.0
-226.0
-247.0
-228.0
-250.0
4.0
27.0
-82.0
185.0
-576.0
-110.0
197.0
422.0
655.0
959.0
865.0
452.0
161.0
-23.0
-44.0
-52.0
-78.0
-134.0
-148.0
-155.0
-27.0
112.0
-151.0
-275.0
-126.0
-87.0
-90.0
-19.0
196.0
421.0
503.0
171.0
-103.0
-229.0
-307.0
-298.0
-348.0
-368.0
-376.0
-416.0
-465.0
-482.0
-226.0
-61.0
-283.0
-436.0
-682.0
-435.0
-238.0
-30.0
189.0
496.0
499.0
146.0
-146.0
-276.0
-292.0
-248.0
-276.0
-262.0
-251.0
-255.0
-230.0
-204.0
22.0
203.0
27.0
-80.0
-291.0
26.0
205.0
380.0
584.0
903.0
923.0
524.0
234.0
130.0
137.0
123.0
77.0
119.0
56.0
44.0
226.0
250.0
126.0
500.0
-386.0
6.0
229.0
314.0
772.0
832.0
443.0
81.0
-71.0
-97.0
-86.0
-123.0
-164.0
-174.0
-131.0
-163.0
-9.0
-14.0
-157.0
27.0
-722.0
-347.0
-179.0
54.0
322.0
604.0
462.0
37.0
-205.0
-330.0
-299.0
-310.0
-331.0
-349.0
-369.0
-350.0
-310.0
-342.0
-90.0
-41.0
-225.0
6.0
-768.0
-392.0
-124.0
86.0
391.0
655.0
672.0
283.0
1.0
-116.0
-106.0
-140.0
-50.0
-133.0
-183.0
-99.0
-58.0
199.0
312.0
188.0
276.0
-319.0
14.0
232.0
453.0
712.0
942.0
822.0
399.0
58.0
10.0
-51.0
-18.0
-38.0
-114.0
-97.0
65.0
174.0
-18.0
-74.0
564.0
379.0
262.0
290.0
377.0
661.0
779.0
376.0
15.0
-190.0
-271.0
-307.0
-309.0
-353.0
-335.0
-403.0
-278.0
-96.0
-280.0
-350.0
-155.0
-137.0
-60.0
158.0
459.0
620.0
329.0
-94.0
-348.0
-319.0
-289.0
-249.0
-256.0
-280.0
-262.0
-191.0
-266.0
-59.0
-209.0
-293.0
500.0
-14.0
-70.0
-37.0
122.0
409.0
590.0
443.0
46.0
-53.0
-144.0
-92.0
-135.0
-95.0
-81.0
-38.0
-131.0
10.0
94.0
-85.0
159.0
-640.0
-183.0
48.0
268.0
523.0
753.0
716.0
271.0
-6.0
-78.0
-56.0
-120.0
-211.0
-261.0
-226.0
-39.0
-17.0
-202.0
-298.0
714.0
349.0
98.0
4.0
128.0
371.0
527.0
206.0
-164.0
-381.0
-453.0
-432.0
-396.0
-390.0
-387.0
-409.0
-441.0
-369.0
-208.0
-324.0
-361.0
635.0
238.0
-24.0
-64.0
58.0
258.0
382.0
108.0
-266.0
-396.0
-402.0
-330.0
-321.0
-355.0
-373.0
-315.0
-352.0
-366.0
-119.0
-35.0
-226.0
-447.0
-162.0
-61.0
182.0
407.0
694.0
754.0
345.0
69.0
-9.0
-46.0
-16.0
-59.0
-110.0
-137.0
-73.0
130.0
110.0
-38.0
439.0
-520.0
-196.0
51.0
270.0
550.0
751.0
592.0
168.0
-63.0
-168.0
-109.0
-142.0
-176.0
-240.0
-222.0
-260.0
-140.0
-38.0
-247.0
-327.0
528.0
192.0
15.0
11.0
166.0
425.0
608.0
304.0
-29.0
-215.0
-258.0
-284.0
-313.0
-343.0
-349.0
-352.0
-313.0
-223.0
-92.0
-207.0
-335.0
610.0
304.0
24.0
-38.0
204.0
470.0
629.0
375.0
43.0
-108.0
-63.0
9.0
-18.0
-53.0
-88.0
-150.0
-61.0
-19.0
-327.0
-383.0
88.0
-140.0
-229.0
-102.0
-5.0
301.0
369.0
105.0
-253.0
-413.0
-497.0
-389.0
-439.0
-411.0
-372.0
-338.0
-211.0
-337.0
-445.0
-1008.0
-544.0
-330.0
-41.0
247.0
522.0
372.0
10.0
-240.0
-334.0
-260.0
-218.0
-302.0
-277.0
-303.0
-40.0
21.0
-102.0
33.0
-382.0
-89.0
143.0
330.0
642.0
915.0
939.0
480.0
273.0
205.0
205.0
206.0
166.0
212.0
264.0
368.0
121.0
60.0
505.0
368.0
322.0
353.0
475.0
673.0
773.0
481.0
82.0
-76.0
-63.0
-41.0
22.0
-1.0
45.0
80.0
211.0
82.0
-24.0
949.0
510.0
319.0
258.0
265.0
528.0
676.0
394.0
90.0
-176.0
-234.0
-273.0
-317.0
-361.0
-413.0
-356.0
-327.0
-164.0
32.0
-230.0
-387.0
-549.0
-311.0
-163.0
43.0
237.0
497.0
522.0
176.0
-188.0
-398.0
-382.0
-354.0
-345.0
-416.0
-444.0
-455.0
-430.0
-412.0
-149.0
-115.0
-287.0
-151.0
-687.0
-346.0
-224.0
96.0
400.0
541.0
233.0
-64.0
-189.0
-161.0
-138.0
-145.0
-109.0
-118.0
-124.0
-131.0
-6.0
166.0
44.0
-112.0
236.0
225.0
215.0
259.0
370.0
699.0
769.0
378.0
25.0
-135.0
-147.0
-160.0
-136.0
-124.0
-109.0
-171.0
-165.0
-91.0
66.0
-174.0
-269.0
226.0
102.0
43.0
140.0
256.0
492.0
538.0
233.0
-116.0
-305.0
-317.0
-297.0
-337.0
-397.0
-375.0
-363.0
-342.0
-202.0
43.0
-202.0
-357.0
-534.0
-248.0
-61.0
144.0
389.0
621.0
633.0
221.0
-61.0
-157.0
-268.0
-229.0
-258.0
-271.0
-189.0
-99.0
-329.0
-390.0
465.0
233.0
85.0
97.0
232.0
542.0
619.0
279.0
-56.0
-273.0
-333.0
-331.0
-322.0
-200.0
-20.0
-282.0
-368.0
256.0
122.0
-18.0
-15.0
365.0
621.0
435.0
25.0
-195.0
-195.0
-194.0
-253.0
-277.0
-161.0
-76.0
-215.0
-353.0
722.0
408.0
161.0
102.0
196.0
446.0
658.0
390.0
-3.0
-209.0
-236.0
-181.0
-190.0
-236.0
-178.0
-137.0
-248.0
-295.0
631.0
170.0
92.0
142.0
285.0
533.0
714.0
433.0
84.0
-70.0
-83.0
-63.0
-77.0
-126.0
-39.0
15.0
-92.0
-166.0
856.0
448.0
143.0
71.0
131.0
335.0
514.0
215.0
-192.0
-323.0
-393.0
-369.0
-361.0
-429.0
-393.0
-346.0
-282.0
-295.0
-380.0
-471.0
555.0
219.0
-71.0
-45.0
65.0
285.0
389.0
122.0
-178.0
-386.0
-492.0
-476.0
-481.0
-441.0
-437.0
-445.0
-422.0
-459.0
-268.0
-125.0
-250.0
-368.0
640.0
263.0
-32.0
-131.0
-12.0
240.0
418.0
229.0
-142.0
-279.0
-248.0
-275.0
-475.0
-370.0
-332.0
-310.0
-239.0
-221.0
14.0
229.0
17.0
-118.0
-281.0
-53.0
115.0
244.0
543.0
795.0
814.0
501.0
287.0
141.0
117.0
119.0
67.0
-28.0
-5.0
-36.0
54.0
263.0
22.0
-124.0
-1.0
7.0
58.0
158.0
370.0
645.0
678.0
346.0
21.0
-134.0
-159.0
-152.0
-220.0
-237.0
-251.0
-214.0
-220.0
-152.0
-16.0
-197.0
-272.0
730.0
395.0
127.0
45.0
186.0
395.0
502.0
205.0
-133.0
-318.0
-359.0
-308.0
-315.0
-331.0
-339.0
-326.0
-334.0
-357.0
-111.0
-71.0
-246.0
-41.0
-761.0
-320.0
-72.0
177.0
406.0
653.0
639.0
329.0
44.0
-145.0
-110.0
-123.0
-105.0
-165.0
-191.0
-168.0
50.0
37.0
-46.0
392.0
-448.0
-122.0
114.0
301.0
736.0
804.0
423.0
116.0
-6.0
-20.0
-34.0
-54.0
-142.0
-151.0
40.0
124.0
-111.0
-162.0
-484.0
-204.0
9.0
181.0
351.0
641.0
629.0
217.0
-109.0
-262.0
-245.0
-275.0
-280.0
-299.0
-350.0
-419.0
-404.0
-218.0
29.0
-192.0
-380.0
-520.0
-287.0
-145.0
54.0
263.0
568.0
648.0
282.0
-66.0
-199.0
-198.0
-183.0
-237.0
-286.0
-310.0
-282.0
-284.0
-286.0
-232.0
-111.0
-275.0
-316.0
511.0
256.0
88.0
96.0
284.0
503.0
659.0
410.0
49.0
-116.0
-150.0
-150.0
-205.0
-232.0
-244.0
-237.0
-283.0
-22.0
19.0
-95.0
23.0
-570.0
-268.0
0.0
216.0
444.0
679.0
635.0
218.0
-41.0
-122.0
-189.0
-181.0
-193.0
-172.0
-165.0
-130.0
-145.0
57.0
111.0
-123.0
-107.0
-569.0
-244.0
-4.0
258.0
545.0
607.0
298.0
-20.0
-143.0
-150.0
-155.0
-221.0
-282.0
-276.0
-276.0
-312.0
-189.0
-38.0
-161.0
-261.0
73.0
26.0
36.0
125.0
300.0
554.0
683.0
373.0
11.0
-128.0
-161.0
-88.0
-113.0
-182.0
-171.0
-46.0
17.0
-148.0
-153.0
-480.0
-243.0
-89.0
32.0
250.0
461.0
433.0
33.0
-264.0
-317.0
-338.0
-316.0
-298.0
-373.0
-324.0
-164.0
-148.0
-230.0
277.0
-403.0
-219.0
-62.0
121.0
338.0
597.0
499.0
107.0
-152.0
-222.0
-272.0
-250.0
-301.0
-341.0
-170.0
-258.0
-361.0
231.0
-272.0
-251.0
-170.0
-73.0
217.0
425.0
178.0
-172.0
-490.0
-529.0
-581.0
-488.0
-496.0
-309.0
-261.0
-486.0
-431.0
-891.0
-478.0
-235.0
-78.0
174.0
482.0
397.0
-101.0
-396.0
-353.0
-496.0
-552.0
-556.0
-331.0
-387.0
-493.0
128.0
-303.0
-268.0
-238.0
-20.0
282.0
516.0
302.0
-173.0
-338.0
-278.0
-279.0
-227.0
-272.0
-322.0
-65.0
31.0
-125.0
-111.0
-497.0
-213.0
-49.0
106.0
427.0
743.0
706.0
329.0
59.0
-40.0
-92.0
-143.0
-229.0
-262.0
-322.0
-333.0
-147.0
-221.0
-312.0
129.0
-577.0
-316.0
-169.0
7.0
333.0
613.0
520.0
59.0
-140.0
-230.0
-182.0
-166.0
-258.0
-273.0
-353.0
-313.0
-348.0
-205.0
-61.0
-168.0
-200.0
849.0
428.0
259.0
220.0
324.0
484.0
648.0
468.0
164.0
-14.0
-52.0
-80.0
-139.0
-175.0
-132.0
-152.0
-118.0
29.0
38.0
-103.0
238.0
-571.0
-254.0
10.0
236.0
494.0
691.0
551.0
162.0
-147.0
-182.0
-193.0
-247.0
-207.0
-187.0
-205.0
-164.0
-86.0
-258.0
-299.0
749.0
324.0
66.0
-15.0
67.0
322.0
521.0
296.0
-8.0
-200.0
-252.0
-226.0
-249.0
-279.0
-363.0
-309.0
-364.0
-236.0
-107.0
-260.0
-311.0
-233.0
-96.0
-12.0
106.0
281.0
556.0
634.0
389.0
72.0
-55.0
-170.0
-152.0
-211.0
-205.0
-181.0
-188.0
41.0
19.0
-233.0
45.0
-731.0
-364.0
-126.0
115.0
397.0
677.0
592.0
186.0
-98.0
-183.0
-213.0
-232.0
-226.0
-262.0
-232.0
-32.0
-189.0
-320.0
387.0
-79.0
-88.0
56.0
191.0
400.0
583.0
391.0
20.0
-190.0
-278.0
-239.0
-234.0
-277.0
-177.0
-125.0
-246.0
-355.0
157.0
12.0
-15.0
-8.0
200.0
461.0
559.0
195.0
-59.0
-194.0
-194.0
-211.0
-256.0
-287.0
-101.0
-266.0
-273.0
152.0
72.0
44.0
42.0
221.0
485.0
479.0
128.0
-164.0
-310.0
-295.0
-265.0
-269.0
-258.0
-277.0
-122.0
29.0
-164.0
-297.0
-332.0
-97.0
93.0
299.0
542.0
756.0
853.0
532.0
258.0
12.0
48.0
50.0
49.0
-6.0
33.0
162.0
64.0
-97.0
570.0
125.0
103.0
151.0
278.0
471.0
610.0
263.0
-150.0
-383.0
-365.0
-322.0
-262.0
-355.0
-368.0
-352.0
-233.0
-31.0
-204.0
-287.0
-36.0
2.0
-57.0
103.0
259.0
509.0
617.0
261.0
-74.0
-199.0
-177.0
-102.0
-133.0
-183.0
-236.0
-202.0
-109.0
-74.0
-181.0
326.0
-143.0
-101.0
-30.0
139.0
362.0
573.0
348.0
28.0
-218.0
-265.0
-301.0
-267.0
-282.0
-305.0
-282.0
-332.0
-326.0
-130.0
-57.0
-291.0
-120.0
-185.0
-217.0
-74.0
72.0
354.0
396.0
65.0
-242.0
-325.0
-290.0
-307.0
-268.0
-262.0
-279.0
-285.0
-226.0
-209.0
-7.0
-134.0
-231.0
651.0
255.0
137.0
135.0
217.0
532.0
682.0
462.0
98.0
-159.0
-222.0
-166.0
-156.0
-168.0
-248.0
-223.0
-124.0
59.0
-140.0
-290.0
-85.0
-91.0
-134.0
53.0
219.0
481.0
457.0
148.0
-219.0
-357.0
-337.0
-362.0
-369.0
-424.0
-433.0
-434.0
-401.0
-193.0
-310.0
-370.0
538.0
70.0
-138.0
-94.0
18.0
378.0
561.0
308.0
-157.0
-290.0
-342.0
-286.0
-313.0
-298.0
-308.0
-296.0
-232.0
-17.0
-142.0
-248.0
788.0
430.0
78.0
77.0
127.0
367.0
516.0
286.0
-93.0
-352.0
-386.0
-409.0
-389.0
-369.0
-335.0
-87.0
98.0
-137.0
-243.0
-494.0
-280.0
-22.0
168.0
510.0
660.0
323.0
-35.0
-172.0
-251.0
-206.0
-291.0
-356.0
-232.0
3.0
-241.0
-449.0
-125.0
-146.0
-137.0
-76.0
150.0
357.0
410.0
49.0
-335.0
-529.0
-505.0
-439.0
-500.0
-361.0
-228.0
-586.0
-757.0
-763.0
-562.0
-458.0
-281.0
-65.0
275.0
285.0
-43.0
-439.0
-464.0
-480.0
-510.0
-523.0
-326.0
-329.0
-577.0
-708.0
-902.0
-572.0
-329.0
-60.0
206.0
552.0
618.0
152.0
-46.0
-113.0
-151.0
-173.0
-195.0
-39.0
-141.0
-258.0
583.0
109.0
-26.0
-61.0
74.0
357.0
433.0
213.0
-136.0
-354.0
-368.0
-468.0
-347.0
-258.0
-84.0
-230.0
-378.0
505.0
32.0
-46.0
-38.0
116.0
398.0
568.0
410.0
77.0
-120.0
-164.0
-150.0
-187.0
-69.0
118.0
-94.0
-233.0
-85.0
-66.0
90.0
309.0
634.0
813.0
508.0
193.0
19.0
4.0
51.0
217.0
374.0
87.0
-125.0
396.0
384.0
207.0
281.0
433.0
656.0
710.0
333.0
36.0
-147.0
-134.0
-92.0
-99.0
-36.0
128.0
-89.0
-184.0
884.0
478.0
167.0
148.0
299.0
506.0
730.0
454.0
145.0
-55.0
-64.0
-28.0
4.0
17.0
160.0
271.0
9.0
-76.0
-218.0
124.0
233.0
396.0
651.0
890.0
891.0
500.0
235.0
145.0
244.0
234.0
192.0
124.0
326.0
283.0
115.0
405.0
-385.0
-50.0
197.0
354.0
530.0
833.0
644.0
210.0
-11.0
-71.0
-73.0
-112.0
-165.0
-139.0
-112.0
36.0
270.0
31.0
-133.0
244.0
201.0
117.0
164.0
334.0
565.0
582.0
182.0
-165.0
-267.0
-343.0
-323.0
-353.0
-384.0
-460.0
-468.0
-317.0
-273.0
-485.0
-579.0
463.0
207.0
-83.0
-121.0
-24.0
187.0
359.0
80.0
-160.0
-334.0
-366.0
-300.0
-310.0
-385.0
-365.0
-290.0
-301.0
-282.0
-72.0
-92.0
-202.0
367.0
-95.0
-44.0
86.0
289.0
612.0
804.0
618.0
289.0
116.0
53.0
47.0
-6.0
-73.0
-119.0
-180.0
11.0
19.0
-140.0
57.0
-619.0
-165.0
20.0
211.0
503.0
767.0
613.0
181.0
-81.0
-153.0
-94.0
-111.0
-127.0
-192.0
-171.0
-87.0
53.0
-98.0
-209.0
305.0
123.0
37.0
59.0
205.0
456.0
490.0
178.0
-134.0
-247.0
-307.0
-272.0
-326.0
-323.0
-342.0
-390.0
-174.0
-2.0
-234.0
-298.0
-575.0
-285.0
-78.0
81.0
320.0
592.0
588.0
210.0
-84.0
-220.0
-183.0
-143.0
-208.0
-226.0
-156.0
66.0
-100.0
-205.0
-34.0
30.0
104.0
289.0
495.0
764.0
806.0
416.0
155.0
-2.0
9.0
-45.0
-97.0
-99.0
-133.0
41.0
184.0
-129.0
-316.0
-550.0
-243.0
-89.0
93.0
341.0
582.0
580.0
162.0
-105.0
-220.0
-222.0
-227.0
-247.0
-332.0
-338.0
-294.0
-255.0
-87.0
-190.0
-265.0
671.0
220.0
74.0
26.0
133.0
425.0
552.0
265.0
-68.0
-274.0
-299.0
-213.0
-190.0
-130.0
-175.0
-184.0
-222.0
-67.0
155.0
-57.0
-149.0
-198.0
-54.0
41.0
175.0
410.0
621.0
738.0
396.0
33.0
-124.0
-127.0
-162.0
-145.0
-108.0
-118.0
-39.0
113.0
33.0
-94.0
668.0
134.0
82.0
99.0
283.0
459.0
591.0
268.0
-150.0
-378.0
-404.0
-394.0
-407.0
-448.0
-455.0
-455.0
-203.0
-399.0
-552.0
-649.0
-369.0
-205.0
-28.0
286.0
595.0
633.0
274.0
-95.0
-256.0
-268.0
-224.0
-290.0
-341.0
-302.0
-312.0
-152.0
-56.0
-190.0
165.0
-693.0
-243.0
18.0
259.0
567.0
808.0
727.0
337.0
45.0
-54.0
-47.0
-100.0
-81.0
-71.0
83.0
208.0
-44.0
-186.0
-388.0
-122.0
53.0
215.0
396.0
692.0
705.0
298.0
93.0
-65.0
-137.0
-138.0
-159.0
-216.0
-152.0
51.0
42.0
-75.0
144.0
-556.0
-222.0
-11.0
235.0
492.0
695.0
540.0
126.0
-121.0
-294.0
-311.0
-299.0
-325.0
-341.0
-359.0
-268.0
-83.0
-221.0
-372.0
257.0
-216.0
-178.0
-81.0
131.0
385.0
557.0
307.0
-94.0
-289.0
-253.0
-310.0
-231.0
-274.0
-265.0
-283.0
-281.0
-127.0
29.0
-198.0
-267.0
-51.0
70.0
232.0
391.0
622.0
763.0
518.0
101.0
-115.0
-90.0
-93.0
-146.0
-155.0
-171.0
-163.0
-94.0
115.0
97.0
-52.0
522.0
30.0
55.0
157.0
296.0
481.0
653.0
422.0
19.0
-232.0
-251.0
-256.0
-268.0
-323.0
-337.0
-368.0
-395.0
-314.0
-96.0
-203.0
-302.0
413.0
42.0
-3.0
75.0
183.0
386.0
631.0
499.0
119.0
-62.0
-70.0
5.0
7.0
-13.0
23.0
58.0
63.0
52.0
166.0
263.0
70.0
-12.0
967.0
647.0
382.0
415.0
411.0
635.0
785.0
479.0
125.0
-102.0
-193.0
-332.0
-326.0
-333.0
-414.0
-383.0
-628.0
-576.0
-310.0
-288.0
-443.0
-152.0
-1041.0
-527.0
-121.0
55.0
365.0
591.0
598.0
187.0
-133.0
-322.0
-273.0
-257.0
-260.0
-330.0
-278.0
-55.0
-129.0
-186.0
674.0
415.0
193.0
252.0
361.0
600.0
735.0
420.0
151.0
62.0
83.0
85.0
101.0
53.0
20.0
153.0
151.0
-110.0
-165.0
-506.0
-273.0
-49.0
113.0
360.0
628.0
484.0
50.0
-267.0
-374.0
-355.0
-379.0
-389.0
-424.0
-390.0
-187.0
-103.0
-257.0
7.0
-720.0
-309.0
-24.0
143.0
420.0
647.0
588.0
106.0
-200.0
-323.0
-311.0
-312.0
-333.0
-355.0
-357.0
-348.0
-194.0
-320.0
-362.0
623.0
356.0
62.0
7.0
110.0
390.0
538.0
262.0
-90.0
-249.0
-280.0
-304.0
-260.0
-238.0
-253.0
-234.0
-185.0
-92.0
-265.0
-253.0
632.0
169.0
-38.0
-43.0
162.0
412.0
622.0
342.0
-53.0
-179.0
-213.0
-151.0
-170.0
-253.0
-285.0
-202.0
-109.0
-166.0
-256.0
270.0
-236.0
-22.0
146.0
399.0
640.0
580.0
144.0
-204.0
-315.0
-286.0
-301.0
-285.0
-291.0
-298.0
-306.0
-127.0
-198.0
-281.0
323.0
-208.0
-114.0
7.0
196.0
409.0
560.0
432.0
57.0
-176.0
-252.0
-221.0
-224.0
-232.0
-212.0
-257.0
-249.0
-33.0
19.0
-178.0
-244.0
-403.0
-161.0
-22.0
123.0
321.0
584.0
568.0
242.0
-75.0
-123.0
-156.0
-85.0
-169.0
-205.0
-217.0
-126.0
-39.0
-142.0
-243.0
706.0
369.0
168.0
204.0
323.0
549.0
683.0
377.0
-33.0
-198.0
-189.0
-186.0
-213.0
-276.0
-360.0
-359.0
-235.0
-324.0
-454.0
161.0
-368.0
-328.0
-244.0
-78.0
172.0
376.0
149.0
-194.0
-329.0
-373.0
-323.0
-318.0
-314.0
-325.0
-327.0
-128.0
-138.0
-331.0
166.0
-764.0
-406.0
-100.0
147.0
529.0
624.0
240.0
5.0
-114.0
-109.0
-89.0
-128.0
56.0
165.0
-87.0
-237.0
-545.0
-264.0
6.0
222.0
426.0
677.0
625.0
218.0
-88.0
-193.0
-182.0
-177.0
-168.0
-4.0
-226.0
-389.0
203.0
-238.0
-191.0
-29.0
164.0
405.0
611.0
405.0
13.0
-134.0
-185.0
-245.0
-220.0
-120.0
0.0
-215.0
-370.0
408.0
141.0
5.0
-25.0
148.0
482.0
561.0
285.0
-40.0
-148.0
-174.0
-131.0
-113.0
-9.0
92.0
-190.0
-262.0
-595.0
-337.0
-121.0
77.0
332.0
624.0
577.0
189.0
-115.0
-258.0
-226.0
-233.0
-308.0
-389.0
-212.0
-131.0
-369.0
-261.0
-782.0
-491.0
-275.0
-69.0
222.0
523.0
462.0
126.0
-135.0
-239.0
-220.0
-226.0
-205.0
-279.0
-111.0
53.0
-163.0
-303.0
379.0
113.0
156.0
286.0
589.0
685.0
355.0
1.0
-131.0
-145.0
-198.0
-176.0
-232.0
-161.0
70.0
58.0
-99.0
330.0
-509.0
-154.0
67.0
238.0
500.0
680.0
525.0
157.0
-105.0
-159.0
-157.0
-122.0
-135.0
-166.0
-199.0
-135.0
98.0
-61.0
-191.0
696.0
258.0
146.0
97.0
202.0
456.0
608.0
384.0
-33.0
-152.0
-207.0
-193.0
-205.0
-286.0
-287.0
-285.0
-302.0
-119.0
-35.0
-139.0
78.0
-581.0
-251.0
31.0
243.0
467.0
776.0
643.0
313.0
52.0
-2.0
31.0
67.0
-21.0
-38.0
-107.0
13.0
16.0
-73.0
-215.0
634.0
361.0
188.0
218.0
414.0
635.0
712.0
400.0
-36.0
-177.0
-221.0
-178.0
-158.0
-229.0
-245.0
-303.0
-209.0
-149.0
-316.0
-350.0
597.0
271.0
64.0
28.0
140.0
634.0
546.0
138.0
-46.0
-112.0
-78.0
-122.0
-108.0
-163.0
-144.0
12.0
-71.0
-227.0
587.0
154.0
91.0
137.0
281.0
547.0
693.0
480.0
65.0
-157.0
-215.0
-202.0
-118.0
-187.0
-209.0
-204.0
-11.0
-131.0
-174.0
515.0
129.0
125.0
262.0
343.0
574.0
731.0
561.0
167.0
-13.0
-139.0
-84.0
-102.0
-175.0
-173.0
2.0
118.0
-137.0
-209.0
-370.0
-179.0
-48.0
135.0
381.0
575.0
548.0
197.0
-109.0
-183.0
-220.0
-165.0
-269.0
-274.0
-205.0
-259.0
-66.0
-64.0
-154.0
199.0
-521.0
-244.0
-63.0
165.0
419.0
589.0
405.0
-27.0
-184.0
-299.0
-357.0
-405.0
-483.0
-516.0
-539.0
-593.0
-544.0
-385.0
-611.0
-664.0
280.0
-10.0
-262.0
-330.0
-166.0
28.0
118.0
-168.0
-432.0
-527.0
-531.0
-569.0
-586.0
-629.0
-627.0
-575.0
-493.0
-285.0
-367.0
-412.0
318.0
-136.0
-205.0
-206.0
-115.0
202.0
398.0
233.0
-116.0
-338.0
-415.0
-340.0
-347.0
-311.0
-324.0
-283.0
-304.0
-162.0
42.0
-215.0
-331.0
-115.0
-109.0
-61.0
135.0
316.0
495.0
675.0
314.0
56.0
-64.0
-76.0
-140.0
-198.0
-123.0
-196.0
-227.0
-156.0
-24.0
-124.0
-154.0
719.0
312.0
198.0
178.0
251.0
457.0
622.0
371.0
13.0
-150.0
-151.0
-160.0
-164.0
-185.0
-161.0
-133.0
24.0
-80.0
-202.0
711.0
150.0
3.0
33.0
153.0
461.0
598.0
338.0
-31.0
-258.0
-320.0
-295.0
-208.0
-190.0
-264.0
-281.0
-74.0
-168.0
-275.0
503.0
166.0
164.0
239.0
433.0
632.0
801.0
560.0
166.0
37.0
11.0
56.0
113.0
110.0
166.0
-43.0
-167.0
651.0
320.0
148.0
178.0
272.0
517.0
646.0
364.0
84.0
-68.0
-101.0
-93.0
-113.0
-157.0
-135.0
3.0
-67.0
-219.0
550.0
104.0
45.0
17.0
130.0
292.0
443.0
259.0
-114.0
-303.0
-331.0
-278.0
-294.0
-387.0
-325.0
-291.0
-200.0
-68.0
-180.0
-294.0
685.0
274.0
-10.0
-73.0
-36.0
94.0
266.0
-95.0
-491.0
-688.0
-684.0
-664.0
-656.0
-633.0
-569.0
-585.0
-557.0
-464.0
-248.0
-336.0
-428.0
466.0
45.0
-116.0
-150.0
-35.0
167.0
364.0
215.0
-89.0
-276.0
-335.0
-321.0
-333.0
-382.0
-362.0
-368.0
-395.0
-310.0
-319.0
-56.0
-143.0
-256.0
311.0
-175.0
-74.0
43.0
222.0
468.0
675.0
530.0
95.0
-197.0
-271.0
-268.0
-142.0
-154.0
-234.0
-211.0
-226.0
-125.0
-151.0
-299.0
-47.0
-708.0
-355.0
-37.0
233.0
466.0
631.0
644.0
263.0
5.0
-25.0
-96.0
-69.0
-74.0
-30.0
-62.0
-24.0
96.0
112.0
20.0
429.0
-364.0
-74.0
77.0
315.0
552.0
716.0
633.0
252.0
45.0
-62.0
-57.0
-69.0
-77.0
-70.0
-95.0
-124.0
-119.0
70.0
-128.0
-174.0
761.0
476.0
242.0
165.0
226.0
477.0
554.0
265.0
-56.0
-191.0
-286.0
-293.0
-310.0
-279.0
-296.0
-325.0
-313.0
-327.0
-132.0
38.0
-143.0
-238.0
281.0
227.0
176.0
188.0
393.0
608.0
732.0
365.0
23.0
-181.0
-201.0
-196.0
-206.0
-213.0
-143.0
-141.0
-127.0
-119.0
-7.0
-47.0
-100.0
154.0
189.0
163.0
214.0
343.0
629.0
788.0
412.0
82.0
-124.0
-167.0
-139.0
-92.0
-43.0
-73.0
-85.0
59.0
63.0
-33.0
-115.0
411.0
235.0
264.0
174.0
289.0
459.0
553.0
262.0
-44.0
-241.0
-259.0
-242.0
-239.0
-185.0
-212.0
-238.0
-235.0
-112.0
161.0
-59.0
-150.0
-379.0
-174.0
-11.0
154.0
405.0
586.0
603.0
229.0
715.0
113.0
-172.0
-302.0
-405.0
-472.0
-495.0
-482.0
-458.0
-300.0
-482.0
-521.0
487.0
-19.0
-219.0
-210.0
-147.0
89.0
242.0
-9.0
-396.0
-645.0
-696.0
-638.0
-583.0
-521.0
-486.0
-511.0
-558.0
-413.0
-206.0
-302.0
-385.0
180.0
-244.0
-102.0
-66.0
138.0
396.0
660.0
578.0
237.0
-2.0
-53.0
-31.0
94.0
129.0
152.0
216.0
198.0
427.0
414.0
207.0
707.0
89.0
279.0
394.0
509.0
720.0
857.0
502.0
155.0
93.0
86.0
91.0
-18.0
10.0
-35.0
-55.0
81.0
-29.0
-209.0
473.0
1.0
-35.0
-84.0
96.0
298.0
521.0
328.0
-72.0
-186.0
-241.0
-214.0
-151.0
-189.0
-218.0
-253.0
-271.0
-55.0
-52.0
-222.0
104.0
-720.0
-389.0
-163.0
86.0
345.0
693.0
577.0
214.0
-45.0
-129.0
-97.0
-56.0
-80.0
-96.0
-80.0
155.0
132.0
55.0
559.0
39.0
158.0
290.0
458.0
680.0
968.0
733.0
298.0
37.0
-9.0
1.0
-19.0
-21.0
-36.0
-26.0
48.0
81.0
-121.0
-183.0
793.0
461.0
248.0
200.0
295.0
495.0
650.0
337.0
49.0
-174.0
-211.0
-205.0
-258.0
-310.0
-255.0
-196.0
-62.0
103.0
-66.0
-102.0
-323.0
38.0
203.0
376.0
617.0
886.0
899.0
459.0
88.0
9.0
-7.0
-67.0
-97.0
-90.0
-105.0
-84.0
38.0
-21.0
-164.0
627.0
137.0
118.0
82.0
233.0
404.0
601.0
373.0
-9.0
-200.0
-256.0
-227.0
-214.0
-220.0
-219.0
-207.0
-198.0
-203.0
-139.0
73.0
-99.0
-242.0
783.0
394.0
70.0
-5.0
107.0
310.0
442.0
265.0
-48.0
-180.0
-171.0
-134.0
-129.0
-148.0
-146.0
-179.0
-148.0
-119.0
-139.0
40.0
12.0
-202.0
319.0
-384.0
-287.0
-104.0
104.0
351.0
622.0
539.0
249.0
-52.0
-81.0
-97.0
-154.0
-174.0
-248.0
-239.0
-250.0
-252.0
-62.0
-18.0
-188.0
31.0
-739.0
-294.0
-22.0
247.0
465.0
756.0
646.0
208.0
-26.0
-92.0
-77.0
-70.0
-85.0
-62.0
-107.0
-97.0
75.0
-40.0
-117.0
761.0
333.0
178.0
167.0
456.0
721.0
615.0
196.0
-49.0
-173.0
-131.0
-99.0
-168.0
-195.0
-222.0
-200.0
-2.0
139.0
-67.0
-173.0
-361.0
-82.0
117.0
246.0
423.0
726.0
802.0
399.0
113.0
48.0
79.0
59.0
88.0
25.0
-53.0
94.0
157.0
-21.0
404.0
-524.0
-122.0
32.0
219.0
473.0
768.0
595.0
184.0
-84.0
-192.0
-188.0
-104.0
-58.0
-39.0
-85.0
-19.0
147.0
-83.0
-172.0
257.0
133.0
95.0
145.0
304.0
506.0
577.0
173.0
-179.0
-320.0
-259.0
-215.0
-249.0
-197.0
-143.0
-112.0
24.0
-71.0
-239.0
663.0
313.0
67.0
45.0
222.0
385.0
510.0
225.0
-133.0
-295.0
-326.0
-292.0
-235.0
-314.0
-300.0
-330.0
-91.0
-45.0
-167.0
-139.0
-491.0
-252.0
-9.0
224.0
530.0
685.0
640.0
172.0
-51.0
-94.0
-134.0
-199.0
-265.0
-361.0
-306.0
-238.0
-458.0
-593.0
85.0
-29.0
-230.0
-262.0
-137.0
107.0
125.0
-210.0
-540.0
-670.0
-732.0
-700.0
-662.0
-720.0
-776.0
-781.0
-606.0
-441.0
-656.0
-748.0
234.0
-12.0
-283.0
-280.0
-258.0
51.0
225.0
-64.0
-360.0
-548.0
-608.0
-536.0
-508.0
-460.0
-557.0
-435.0
-268.0
-408.0
-493.0
456.0
135.0
-29.0
-6.0
25.0
283.0
394.0
6.0
-386.0
-481.0
-524.0
-376.0
-475.0
-504.0
-478.0
-291.0
-194.0
-406.0
-379.0
-747.0
-333.0
-85.0
46.0
413.0
737.0
729.0
429.0
78.0
-53.0
-20.0
31.0
-32.0
16.0
104.0
-48.0
-142.0
225.0
145.0
130.0
123.0
331.0
560.0
691.0
266.0
-116.0
-265.0
-249.0
-263.0
-284.0
-191.0
-359.0
-466.0
377.0
57.0
-79.0
-36.0
134.0
410.0
509.0
161.0
-192.0
-349.0
-242.0
-303.0
-285.0
-308.0
-194.0
-215.0
-390.0
127.0
-458.0
-322.0
-145.0
101.0
441.0
678.0
528.0
120.0
-104.0
-128.0
-165.0
-86.0
-163.0
-149.0
-38.0
68.0
-49.0
-228.0
628.0
279.0
-12.0
-74.0
-1.0
198.0
416.0
181.0
-142.0
-247.0
-271.0
-248.0
-204.0
-175.0
-249.0
-299.0
-89.0
-157.0
-294.0
195.0
-423.0
-246.0
-83.0
35.0
318.0
553.0
396.0
-42.0
-295.0
-367.0
-375.0
-411.0
-424.0
-431.0
-433.0
-228.0
-114.0
-270.0
-46.0
-634.0
-253.0
-52.0
226.0
561.0
797.0
818.0
439.0
129.0
40.0
26.0
-19.0
-89.0
-130.0
-157.0
41.0
-19.0
-103.0
257.0
-420.0
-150.0
78.0
291.0
669.0
528.0
212.0
6.0
-57.0
-73.0
-28.0
-28.0
56.0
72.0
692.0
180.0
33.0
627.0
229.0
-12.0
-214.0
41.0
282.0
201.0
-272.0
-633.0
-849.0
-1081.0
-953.0
-677.0
-444.0
-930.0
-658.0
-761.0
-1047.0
-1004.0
14.0
123.0
-123.0
-216.0
0.0
521.0
653.0
181.0
73.0
-201.0
143.0
-71.0
-21.0
310.0
120.0
403.0
-10.0
323.0
1190.0
819.0
723.0
703.0
979.0
1066.0
1441.0
990.0
657.0
303.0
317.0
99.0
326.0
243.0
345.0
542.0
410.0
235.0
311.0
-349.0
-164.0
58.0
201.0
431.0
412.0
326.0
-194.0
-411.0
-421.0
-465.0
-389.0
-490.0
-459.0
-294.0
-272.0
-342.0
155.0
-422.0
-259.0
-125.0
44.0
354.0
712.0
468.0
145.0
-136.0
-275.0
-214.0
-175.0
-159.0
-50.0
-241.0
-481.0
165.0
-279.0
-342.0
-247.0
-174.0
125.0
312.0
84.0
-273.0
-451.0
-527.0
-411.0
-385.0
-323.0
-259.0
-206.0
-342.0
-385.0
661.0
254.0
1.0
-146.0
-102.0
121.0
104.0
-275.0
-735.0
-929.0
-973.0
-855.0
-848.0
-764.0
-564.0
-519.0
-568.0
216.0
-136.0
-9.0
141.0
255.0
559.0
786.0
475.0
56.0
-200.0
-286.0
-295.0
-449.0
-518.0
-483.0
-749.0
-962.0
-431.0
-656.0
-812.0
-826.0
-681.0
-427.0
-406.0
-815.0
-1155.0
-1277.0
-1343.0
-1404.0
-1559.0
-1563.0
-1422.0
-1682.0
-1723.0
-1650.0
-1367.0
-1138.0
-855.0
-603.0
-306.0
-317.0
-710.0
-937.0
-991.0
-1134.0
-1080.0
-1286.0
-1266.0
-1233.0
-1088.0
-1446.0
-1583.0
-1153.0
-1069.0
-1218.0
-1042.0
-1012.0
-814.0
-839.0
-1016.0
-1817.0
-1600.0
-1712.0
-1899.0
-1980.0
-1754.0
-2216.0
-2128.0
-1107.0
-1437.0
-638.0
-263.0
-200.0
244.0
583.0
454.0
44.0
-26.0
-89.0
-174.0
-173.0
-215.0
-304.0
-262.0
-236.0
-528.0
-622.0
318.0
-167.0
-612.0
-742.0
-636.0
-464.0
-302.0
-521.0
-655.0
-916.0
-919.0
-765.0
-696.0
-529.0
-390.0
-494.0
-349.0
388.0
386.0
521.0
551.0
703.0
1112.0
1175.0
675.0
452.0
363.0
280.0
129.0
353.0
502.0
246.0
19.0
87.0
311.0
453.0
570.0
837.0
1114.0
1124.0
629.0
385.0
373.0
295.0
317.0
301.0
358.0
347.0
167.0
509.0
-295.0
-28.0
175.0
381.0
706.0
884.0
745.0
347.0
162.0
131.0
146.0
89.0
141.0
162.0
351.0
165.0
35.0
762.0
617.0
461.0
470.0
719.0
1012.0
1020.0
704.0
428.0
272.0
212.0
114.0
109.0
106.0
120.0
-77.0
-190.0
629.0
447.0
283.0
309.0
492.0
769.0
945.0
505.0
171.0
-38.0
24.0
46.0
25.0
-17.0
-72.0
184.0
162.0
60.0
290.0
-445.0
-106.0
181.0
408.0
689.0
816.0
729.0
358.0
70.0
-38.0
95.0
57.0
58.0
-15.0
92.0
45.0
163.0
129.0
-18.0
514.0
-164.0
40.0
224.0
466.0
685.0
809.0
728.0
297.0
74.0
-146.0
-72.0
-125.0
-139.0
-209.0
-155.0
-215.0
-135.0
12.0
-114.0
-153.0
908.0
502.0
226.0
256.0
125.0
458.0
527.0
338.0
77.0
-85.0
-55.0
16.0
31.0
-44.0
-90.0
-136.0
-127.0
106.0
119.0
-88.0
73.0
-543.0
-164.0
113.0
320.0
590.0
779.0
810.0
475.0
191.0
181.0
459.0
88.0
9.0
-7.0
-67.0
-97.0
-90.0
-105.0
-84.0
38.0
-21.0
-164.0
627.0
137.0
118.0
82.0
233.0
404.0
601.0
373.0
-9.0
-200.0
-256.0
-227.0
-214.0
-220.0
-219.0
-207.0
-198.0
-203.0
-139.0
73.0
-99.0
-242.0
783.0
394.0
70.0
-5.0
107.0
310.0
442.0
265.0
-48.0
-180.0
-171.0
-134.0
-129.0
-148.0
-146.0
-179.0
-148.0
-119.0
-139.0
40.0
12.0
-202.0
319.0
-384.0
-287.0
-104.0
104.0
351.0
622.0
539.0
249.0
-52.0
-81.0
-97.0
-154.0
-174.0
-248.0
-239.0
-250.0
-252.0
-62.0
-18.0
-188.0
31.0
-739.0
-294.0
-22.0
247.0
465.0
756.0
646.0
208.0
-26.0
-92.0
-77.0
-70.0
-85.0
-62.0
-107.0
-97.0
75.0
-40.0
-117.0
761.0
333.0
178.0
265.0
374.0
537.0
187.0
-45.0
-253.0
-20.0
-12.0
108.0
205.0
536.0
680.0
289.0
-107.0
-292.0
-172.0
-202.0
-256.0
-194.0
-150.0
-78.0
-2.0
119.0
-179.0
-259.0
194.0
253.0
136.0
104.0
364.0
599.0
573.0
209.0
-161.0
-214.0
-181.0
-131.0
-131.0
-143.0
-172.0
-277.0
-318.0
-55.0
-28.0
-207.0
5.0
-577.0
-294.0
55.0
260.0
430.0
688.0
572.0
221.0
61.0
-68.0
-144.0
-91.0
-114.0
-133.0
-211.0
-138.0
-79.0
171.0
69.0
-63.0
841.0
394.0
281.0
203.0
398.0
714.0
786.0
545.0
171.0
-88.0
-156.0
-171.0
-162.0
-123.0
-203.0
-275.0
-74.0
15.0
-247.0
-317.0
-450.0
-189.0
1.0
198.0
403.0
708.0
614.0
219.0
-146.0
-305.0
-306.0
-473.0
-399.0
-402.0
167.0
456.0
721.0
615.0
196.0
-49.0
-173.0
-131.0
-99.0
-168.0
-195.0
-222.0
-200.0
-2.0
139.0
-67.0
-173.0
-361.0
-82.0
117.0
246.0
423.0
726.0
802.0
399.0
113.0
48.0
79.0
59.0
88.0
25.0
-53.0
94.0
157.0
-21.0
404.0
-524.0
-122.0
32.0
219.0
473.0
768.0
595.0
184.0
-84.0
-192.0
-188.0
-104.0
-58.0
-39.0
-85.0
-19.0
147.0
-83.0
-172.0
257.0
133.0
95.0
145.0
304.0
506.0
577.0
173.0
-179.0
-320.0
-259.0
-215.0
-249.0
-197.0
-143.0
-112.0
24.0
-71.0
-239.0
663.0
313.0
67.0
45.0
222.0
385.0
510.0
225.0
-133.0
-295.0
-326.0
-292.0
-235.0
-314.0
-300.0
-330.0
-91.0
-45.0
-167.0
-139.0
-491.0
-252.0
-9.0
224.0
530.0
685.0
-348.0
-218.0
53.0
-266.0
-432.0
-463.0
-345.0
-247.0
-24.0
299.0
601.0
732.0
335.0
-61.0
-183.0
-167.0
-205.0
-192.0
-307.0
-345.0
-397.0
-382.0
-391.0
-368.0
-408.0
-630.0
-203.0
-675.0
-630.0
-549.0
-321.0
-36.0
267.0
263.0
-126.0
-307.0
-370.0
-306.0
-204.0
-211.0
-205.0
-93.0
-54.0
102.0
293.0
57.0
-87.0
-230.0
-83.0
139.0
442.0
622.0
847.0
757.0
393.0
125.0
-3.0
-66.0
-85.0
-83.0
-112.0
-52.0
-10.0
163.0
203.0
-110.0
9.0
-516.0
-247.0
-15.0
133.0
440.0
675.0
658.0
262.0
-47.0
-164.0
-114.0
-66.0
-156.0
-241.0
-257.0
-275.0
-338.0
-73.0
-167.0
-243.0
669.0
290.0
46.0
61.0
126.0
323.0
535.0
324.0
-70.0
-319.0
-394.0
-285.0
-283.0
640.0
172.0
-51.0
-94.0
-134.0
-199.0
-265.0
-361.0
-306.0
-238.0
-458.0
-593.0
85.0
-29.0
-230.0
-262.0
-137.0
107.0
125.0
-210.0
-540.0
-670.0
-732.0
-700.0
-662.0
-720.0
-776.0
-781.0
-606.0
-441.0
-656.0
-748.0
234.0
-12.0
-283.0
-280.0
-258.0
51.0
225.0
-64.0
-360.0
-548.0
-608.0
-536.0
-508.0
-460.0
-557.0
-435.0
-268.0
-408.0
-493.0
456.0
135.0
-29.0
-6.0
25.0
283.0
394.0
6.0
-386.0
-481.0
-524.0
-376.0
-475.0
-504.0
-478.0
-291.0
-194.0
-406.0
-379.0
-747.0
-333.0
-85.0
46.0
413.0
737.0
729.0
429.0
78.0
-53.0
-20.0
31.0
-32.0
16.0
104.0
-48.0
-142.0
225.0
145.0
130.0
123.0
331.0
560.0
691.0
266.0
-116.0
-265.0
-249.0
-263.0
-284.0
-218.0
-197.0
-93.0
-90.0
243.0
300.0
151.0
561.0
-151.0
289.0
508.0
730.0
971.0
1306.0
1308.0
846.0
598.0
479.0
359.0
404.0
358.0
264.0
330.0
334.0
368.0
186.0
-43.0
930.0
469.0
187.0
169.0
160.0
448.0
582.0
221.0
-168.0
-405.0
-471.0
-442.0
-289.0
-386.0
-431.0
-447.0
-499.0
-308.0
-155.0
-332.0
105.0
-792.0
-492.0
-218.0
-15.0
299.0
495.0
459.0
145.0
-128.0
-204.0
-148.0
-107.0
-63.0
-156.0
-253.0
-247.0
-224.0
-18.0
-89.0
-186.0
-141.0
-664.0
-356.0
-35.0
136.0
470.0
743.0
681.0
181.0
-109.0
-162.0
-161.0
-145.0
-181.0
-156.0
-154.0
-181.0
-134.0
46.0
55.0
-46.0
323.0
-379.0
-42.0
225.0
452.0
832.0
1086.0
987.0
661.0
310.0
112.0
-191.0
-359.0
-466.0
377.0
57.0
-79.0
-36.0
134.0
410.0
509.0
161.0
-192.0
-349.0
-242.0
-303.0
-285.0
-308.0
-194.0
-215.0
-390.0
127.0
-458.0
-322.0
-145.0
101.0
441.0
678.0
528.0
120.0
-104.0
-128.0
-165.0
-86.0
-163.0
-149.0
-38.0
68.0
-49.0
-228.0
628.0
279.0
-12.0
-74.0
-1.0
198.0
416.0
181.0
-142.0
-247.0
-271.0
-248.0
-204.0
-175.0
-249.0
-299.0
-89.0
-157.0
-294.0
195.0
-423.0
-246.0
-83.0
35.0
318.0
553.0
396.0
-42.0
-295.0
-367.0
-375.0
-411.0
-424.0
-431.0
-433.0
-228.0
-114.0
-270.0
-46.0
-634.0
-253.0
-52.0
226.0
561.0
797.0
818.0
439.0
129.0
40.0
26.0
-19.0
-89.0
-130.0
-157.0
41.0
-19.0
-103.0
257.0
-420.0
-150.0
78.0
103.0
1.0
-100.0
-190.0
-27.0
90.0
-125.0
-202.0
41.0
109.0
238.0
233.0
322.0
541.0
522.0
20.0
-346.0
-564.0
-594.0
-529.0
-344.0
-318.0
-484.0
-430.0
-175.0
-171.0
-403.0
-297.0
-764.0
-517.0
-303.0
-181.0
18.0
257.0
303.0
-172.0
-386.0
-399.0
-422.0
-431.0
-388.0
-403.0
-385.0
-444.0
-165.0
-94.0
-382.0
-256.0
-583.0
-383.0
-207.0
-14.0
314.0
605.0
634.0
205.0
-167.0
-280.0
-232.0
-123.0
-90.0
-128.0
-110.0
-11.0
102.0
248.0
76.0
306.0
-439.0
-66.0
219.0
445.0
734.0
941.0
766.0
210.0
52.0
-1.0
-44.0
-37.0
-139.0
-158.0
-130.0
-84.0
118.0
-121.0
-225.0
779.0
456.0
316.0
297.0
316.0
534.0
728.0
444.0
74.0
-59.0
-243.0
-183.0
-150.0
291.0
669.0
528.0
212.0
6.0
-57.0
-73.0
-28.0
-28.0
56.0
72.0
692.0
180.0
33.0
627.0
229.0
-12.0
-214.0
41.0
282.0
201.0
-272.0
-633.0
-849.0
-1081.0
-953.0
-677.0
-444.0
-930.0
-658.0
-761.0
-1047.0
-1004.0
14.0
123.0
-123.0
-216.0
0.0
521.0
653.0
181.0
73.0
-201.0
143.0
-71.0
-21.0
310.0
120.0
403.0
-10.0
323.0
1190.0
819.0
723.0
703.0
979.0
1066.0
1441.0
990.0
657.0
303.0
317.0
99.0
326.0
243.0
345.0
542.0
410.0
235.0
311.0
-349.0
-164.0
58.0
201.0
431.0
412.0
326.0
-194.0
-411.0
-421.0
-465.0
-389.0
-490.0
-459.0
-294.0
-272.0
-342.0
155.0
-422.0
-259.0
-125.0
44.0
354.0
712.0
468.0
145.0
-136.0
-275.0
-214.0
-175.0
-162.0
-93.0
-127.0
-29.0
150.0
-60.0
-240.0
538.0
268.0
83.0
70.0
287.0
527.0
591.0
272.0
-100.0
-196.0
-182.0
-111.0
-63.0
-56.0
-40.0
-3.0
43.0
137.0
302.0
321.0
146.0
556.0
-270.0
190.0
473.0
656.0
967.0
1276.0
1203.0
760.0
511.0
432.0
462.0
422.0
468.0
482.0
487.0
595.0
710.0
471.0
220.0
177.0
251.0
172.0
303.0
468.0
798.0
811.0
364.0
58.0
-81.0
-175.0
-294.0
-336.0
-347.0
-292.0
-302.0
-146.0
-118.0
-282.0
-237.0
-688.0
-372.0
-179.0
-21.0
252.0
580.0
520.0
147.0
-99.0
-152.0
-182.0
-263.0
-245.0
-316.0
-373.0
-262.0
-151.0
-79.0
-235.0
-425.0
549.0
343.0
97.0
45.0
149.0
411.0
566.0
299.0
-77.0
-252.0
-286.0
-255.0
-159.0
-50.0
-241.0
-481.0
165.0
-279.0
-342.0
-247.0
-174.0
125.0
312.0
84.0
-273.0
-451.0
-527.0
-411.0
-385.0
-323.0
-259.0
-206.0
-342.0
-385.0
661.0
254.0
1.0
-146.0
-102.0
121.0
104.0
-275.0
-735.0
-929.0
-973.0
-855.0
-848.0
-764.0
-564.0
-519.0
-568.0
216.0
-136.0
-9.0
141.0
255.0
559.0
786.0
475.0
56.0
-200.0
-286.0
-295.0
-449.0
-518.0
-483.0
-749.0
-962.0
-431.0
-656.0
-812.0
-826.0
-681.0
-427.0
-406.0
-815.0
-1155.0
-1277.0
-1343.0
-1404.0
-1559.0
-1563.0
-1422.0
-1682.0
-1723.0
-1650.0
-1367.0
-1138.0
-855.0
-603.0
-306.0
-317.0
-710.0
-937.0
-991.0
-1134.0
-1080.0
-1286.0
-1266.0
-1233.0
-1088.0
-1446.0
-1583.0
-1153.0
-1069.0
-1218.0
-1042.0
-1012.0
-814.0
-839.0
-1016.0
-1817.0
-94.0
-91.0
-127.0
3.0
221.0
242.0
77.0
609.0
-133.0
265.0
449.0
680.0
975.0
1183.0
974.0
578.0
376.0
287.0
362.0
363.0
253.0
210.0
237.0
362.0
243.0
116.0
819.0
548.0
326.0
440.0
516.0
694.0
798.0
409.0
78.0
-45.0
-128.0
-203.0
-284.0
-225.0
-181.0
-82.0
-114.0
-162.0
406.0
-120.0
0.0
94.0
212.0
474.0
722.0
445.0
51.0
-179.0
-224.0
-298.0
-289.0
-238.0
-299.0
-316.0
-268.0
-258.0
-46.0
-100.0
-319.0
-373.0
-716.0
-574.0
-349.0
-174.0
62.0
429.0
398.0
55.0
-199.0
-330.0
-256.0
-287.0
-255.0
-249.0
-321.0
-273.0
-165.0
-164.0
-111.0
2.0
9.0
-233.0
94.0
-625.0
-379.0
-138.0
107.0
378.0
721.0
581.0
218.0
-54.0
-136.0
-91.0
-153.0
-127.0
-176.0
-113.0
-201.0
-244.0
-183.0
81.0
102.0
-77.0
429.0
-231.0
7.0
207.0
339.0
634.0
789.0
768.0
264.0
109.0
45.0
70.0
67.0
135.0
88.0
30.0
273.0
372.0
174.0
102.0
-275.0
-107.0
229.0
438.0
643.0
925.0
779.0
431.0
161.0
83.0
85.0
42.0
-23.0
-88.0
0.0
95.0
-36.0
-170.0
-259.0
-93.0
12.0
204.0
365.0
582.0
656.0
207.0
-23.0
-261.0
-318.0
-329.0
-278.0
-303.0
-321.0
-335.0
-157.0
-191.0
-297.0
292.0
-169.0
-210.0
-121.0
-45.0
204.0
442.0
157.0
-170.0
-371.0
-437.0
-355.0
-353.0
-485.0
-542.0
-547.0
-609.0
-634.0
-409.0
-416.0
-520.0
-194.0
-917.0
-615.0
-271.0
-16.0
244.0
425.0
233.0
-106.0
-336.0
-396.0
-378.0
-340.0
-273.0
-283.0
-296.0
-311.0
-230.0
-23.0
0.0
-100.0
875.0
477.0
323.0
169.0
360.0
572.0
682.0
549.0
175.0
-24.0
-54.0
-14.0
91.0
41.0
12.0
-3.0
210.0
156.0
59.0
451.0
-247.0
-2.0
216.0
351.0
611.0
929.0
800.0
313.0
45.0
-109.0
-133.0
-114.0
-151.0
-195.0
-224.0
-223.0
-89.0
-232.0
-290.0
646.0
237.0
-24.0
15.0
143.0
322.0
602.0
384.0
-16.0
-191.0
-342.0
-339.0
-254.0
-307.0
-346.0
-391.0
-393.0
-429.0
-459.0
-427.0
-228.0
-243.0
-349.0
254.0
-253.0
-284.0
-223.0
-52.0
146.0
371.0
173.0
-172.0
-378.0
-465.0
-476.0
-461.0
-492.0
-389.0
-390.0
-359.0
-400.0
-326.0
-90.0
60.0
-246.0
-363.0
-509.0
-350.0
-188.0
27.0
362.0
609.0
646.0
113.0
-149.0
-200.0
-255.0
-218.0
-193.0
-281.0
-141.0
-173.0
-307.0
334.0
-231.0
-177.0
61.0
228.0
456.0
720.0
495.0
52.0
-250.0
-342.0
-296.0
-226.0
-203.0
-184.0
-92.0
-258.0
-417.0
595.0
318.0
88.0
65.0
112.0
490.0
681.0
351.0
49.0
-178.0
-215.0
-111.0
-115.0
-218.0
-179.0
-21.0
-129.0
-185.0
498.0
37.0
-8.0
47.0
192.0
440.0
750.0
454.0
12.0
-258.0
-191.0
-216.0
-236.0
-325.0
-272.0
-30.0
197.0
-107.0
-293.0
-512.0
-288.0
-204.0
-11.0
193.0
450.0
529.0
122.0
-179.0
-272.0
-280.0
-274.0
-254.0
-282.0
-279.0
-235.0
-213.0
-47.0
-52.0
-105.0
326.0
-395.0
-79.0
61.0
226.0
417.0
701.0
581.0
165.0
-78.0
-154.0
-149.0
-153.0
-106.0
-212.0
-219.0
-250.0
-164.0
-61.0
-239.0
-315.0
679.0
397.0
52.0
-58.0
79.0
298.0
506.0
208.0
-200.0
-315.0
-367.0
-315.0
-241.0
-268.0
-313.0
-310.0
-319.0
-306.0
-287.0
-136.0
-24.0
-235.0
-326.0
317.0
154.0
-37.0
2.0
193.0
551.0
673.0
285.0
-19.0
-93.0
-100.0
-122.0
-137.0
-160.0
-182.0
-239.0
-224.0
-214.0
-192.0
-33.0
210.0
6.0
-144.0
-255.0
-12.0
86.0
400.0
576.0
767.0
869.0
601.0
312.0
38.0
-33.0
-7.0
-63.0
-110.0
-22.0
-43.0
-30.0
149.0
74.0
-89.0
779.0
231.0
88.0
196.0
311.0
547.0
689.0
429.0
38.0
-238.0
-212.0
-214.0
-181.0
-133.0
-165.0
-184.0
-196.0
-116.0
-42.0
-201.0
-290.0
644.0
338.0
142.0
87.0
185.0
379.0
473.0
-6.0
-278.0
-343.0
-219.0
-301.0
-362.0
-403.0
-401.0
-421.0
-434.0
-472.0
-408.0
-278.0
-259.0
-436.0
77.0
-662.0
-426.0
-200.0
-13.0
241.0
520.0
444.0
115.0
-134.0
-255.0
-340.0
-330.0
-353.0
-381.0
-393.0
-369.0
-280.0
-326.0
-274.0
-146.0
-59.0
-290.0
-434.0
311.0
146.0
-37.0
-10.0
213.0
474.0
578.0
321.0
-2.0
-155.0
-304.0
-219.0
-268.0
-210.0
-261.0
-240.0
-247.0
-215.0
-147.0
-229.0
-66.0
193.0
-1.0
-116.0
-317.0
-38.0
115.0
361.0
551.0
900.0
914.0
499.0
149.0
-17.0
-49.0
-25.0
-62.0
-57.0
-74.0
-68.0
-90.0
-2.0
505.0
45.0
-199.0
190.0
41.0
-30.0
56.0
132.0
388.0
482.0
191.0
-40.0
-197.0
-230.0
-160.0
-138.0
-169.0
-239.0
-258.0
-309.0
-211.0
-110.0
-283.0
-386.0
695.0
369.0
71.0
35.0
148.0
426.0
667.0
338.0
-95.0
-305.0
-336.0
-336.0
-310.0
-388.0
-377.0
-420.0
-390.0
-336.0
-376.0
-148.0
102.0
-143.0
-298.0
-537.0
-275.0
-79.0
172.0
382.0
586.0
629.0
323.0
-41.0
-272.0
-303.0
-219.0
-183.0
-297.0
-193.0
-286.0
-287.0
-235.0
-157.0
-10.0
-85.0
-211.0
773.0
395.0
165.0
43.0
220.0
506.0
715.0
457.0
18.0
-264.0
-328.0
-213.0
-187.0
-173.0
-214.0
-198.0
-269.0
-116.0
-121.0
-180.0
80.0
50.0
-16.0
410.0
-341.0
-43.0
261.0
431.0
683.0
983.0
880.0
424.0
160.0
88.0
55.0
78.0
1.0
-13.0
-66.0
-73.0
-99.0
-72.0
141.0
52.0
-11.0
488.0
-136.0
-39.0
116.0
275.0
462.0
261.0
-9.0
-164.0
-142.0
-103.0
-127.0
-249.0
-191.0
-196.0
-94.0
-181.0
-10.0
145.0
-55.0
-166.0
766.0
411.0
166.0
109.0
177.0
483.0
633.0
457.0
4.0
-219.0
-202.0
-170.0
-138.0
-102.0
-95.0
-204.0
-222.0
-150.0
-87.0
99.0
18.0
-88.0
592.0
104.0
168.0
236.0
419.0
700.0
933.0
756.0
346.0
61.0
-1.0
24.0
18.0
-29.0
-149.0
-190.0
-227.0
-145.0
119.0
-129.0
-316.0
639.0
142.0
7.0
-60.0
78.0
349.0
528.0
296.0
-84.0
-301.0
-398.0
-353.0
-402.0
-407.0
-382.0
-326.0
-410.0
-378.0
-150.0
-28.0
-250.0
-306.0
-568.0
-328.0
-104.0
-100.0
209.0
563.0
561.0
277.0
-100.0
-264.0
-301.0
-278.0
-282.0
-351.0
-321.0
-341.0
-357.0
-259.0
-133.0
-267.0
638.0
427.0
118.0
139.0
178.0
451.0
610.0
274.0
-53.0
-330.0
-349.0
-316.0
-294.0
-255.0
-278.0
-365.0
-294.0
-223.0
5.0
43.0
-45.0
397.0
-478.0
-84.0
210.0
414.0
584.0
935.0
911.0
564.0
230.0
99.0
121.0
48.0
-68.0
-92.0
-58.0
-59.0
14.0
51.0
-190.0
-236.0
792.0
460.0
275.0
230.0
269.0
450.0
639.0
309.0
-75.0
-229.0
-286.0
-256.0
-272.0
-273.0
-344.0
-288.0
-288.0
-153.0
-30.0
-279.0
-284.0
666.0
319.0
56.0
-22.0
138.0
347.0
524.0
269.0
-69.0
-291.0
-355.0
-245.0
-130.0
-209.0
-336.0
-321.0
-278.0
-218.0
-35.0
-165.0
-394.0
404.0
-96.0
-65.0
-42.0
112.0
460.0
630.0
385.0
64.0
-192.0
-269.0
-276.0
-211.0
-190.0
-261.0
-266.0
-264.0
-73.0
34.0
-229.0
57.0
-752.0
-340.0
-112.0
172.0
434.0
743.0
674.0
282.0
113.0
54.0
-2.0
41.0
77.0
70.0
52.0
130.0
254.0
379.0
112.0
-32.0
-268.0
-6.0
29.0
163.0
381.0
524.0
640.0
228.0
-121.0
-400.0
-458.0
-524.0
-496.0
-572.0
-603.0
-638.0
-351.0
-200.0
-445.0
-569.0
-497.0
-409.0
-398.0
-318.0
-59.0
279.0
283.0
41.0
-276.0
-416.0
-410.0
-386.0
-281.0
-327.0
-422.0
-396.0
-182.0
-202.0
-289.0
315.0
-83.0
-6.0
122.0
360.0
663.0
820.0
642.0
249.0
-9.0
-158.0
-143.0
-136.0
-96.0
-171.0
-155.0
-58.0
63.0
-59.0
-185.0
835.0
496.0
256.0
223.0
395.0
777.0
989.0
753.0
271.0
145.0
95.0
18.0
25.0
-76.0
-114.0
21.0
-54.0
-136.0
-427.0
-141.0
81.0
280.0
477.0
727.0
634.0
221.0
-133.0
-172.0
-49.0
-44.0
-17.0
-61.0
-150.0
2.0
-119.0
-300.0
297.0
-364.0
-251.0
-148.0
53.0
270.0
563.0
344.0
-47.0
-301.0
-301.0
-223.0
-212.0
-238.0
-243.0
-266.0
-214.0
-33.0
-250.0
-282.0
-2.0
27.0
-56.0
8.0
249.0
491.0
505.0
305.0
25.0
-84.0
-180.0
-208.0
-202.0
-250.0
-175.0
-157.0
-90.0
13.0
-42.0
-81.0
861.0
414.0
218.0
255.0
313.0
508.0
776.0
594.0
214.0
83.0
-122.0
-50.0
-29.0
-14.0
-83.0
-91.0
109.0
-41.0
-112.0
670.0
181.0
169.0
197.0
236.0
486.0
681.0
473.0
37.0
-263.0
-282.0
-287.0
-281.0
-250.0
-365.0
-291.0
-222.0
-115.0
-311.0
-445.0
-155.0
-193.0
-113.0
2.0
220.0
437.0
155.0
-238.0
-383.0
-442.0
-425.0
-359.0
-421.0
-407.0
-378.0
-217.0
-32.0
-370.0
-465.0
-100.0
-63.0
-109.0
-99.0
48.0
338.0
446.0
206.0
-205.0
-382.0
-455.0
-427.0
-450.0
-487.0
-471.0
-411.0
-297.0
-177.0
-363.0
-406.0
731.0
389.0
167.0
44.0
288.0
518.0
759.0
443.0
83.0
-153.0
-204.0
-130.0
-118.0
-206.0
-185.0
-28.0
-13.0
-70.0
-115.0
732.0
350.0
167.0
212.0
336.0
617.0
730.0
329.0
-4.0
-167.0
-326.0
-343.0
-455.0
-398.0
-375.0
-400.0
-260.0
-54.0
-267.0
-417.0
-399.0
-171.0
-91.0
2.0
214.0
485.0
610.0
152.0
-123.0
-249.0
-290.0
-381.0
-381.0
-291.0
-233.0
-296.0
-106.0
-48.0
-311.0
-185.0
-865.0
-449.0
-6.0
357.0
624.0
522.0
114.0
-144.0
-167.0
-186.0
-235.0
-207.0
-254.0
-269.0
44.0
-5.0
-134.0
-206.0
-526.0
-127.0
83.0
302.0
455.0
781.0
901.0
531.0
179.0
-3.0
19.0
110.0
41.0
4.0
26.0
124.0
30.0
-77.0
647.0
491.0
330.0
308.0
408.0
636.0
830.0
327.0
-38.0
-278.0
-241.0
-168.0
-202.0
-167.0
-193.0
-228.0
-90.0
-152.0
-211.0
277.0
-164.0
-215.0
-41.0
94.0
349.0
465.0
159.0
-187.0
-435.0
-409.0
-462.0
-432.0
-459.0
-433.0
-453.0
-390.0
-196.0
-269.0
-472.0
187.0
-206.0
-244.0
-134.0
-33.0
298.0
544.0
345.0
21.0
-194.0
-227.0
-258.0
-239.0
-340.0
-260.0
-252.0
-278.0
-190.0
-12.0
-197.0
-389.0
329.0
227.0
40.0
80.0
350.0
523.0
339.0
130.0
3.0
-28.0
56.0
1.0
-116.0
-194.0
-34.0
62.0
27.0
13.0
-466.0
-103.0
99.0
319.0
651.0
888.0
891.0
447.0
179.0
-47.0
-4.0
-8.0
-64.0
-120.0
-30.0
42.0
-86.0
-201.0
605.0
78.0
-114.0
-35.0
154.0
436.0
636.0
347.0
-70.0
-222.0
-268.0
-311.0
-273.0
-337.0
-356.0
-328.0
-188.0
-206.0
-354.0
177.0
-275.0
-237.0
-168.0
74.0
344.0
592.0
448.0
60.0
-219.0
-266.0
-262.0
-230.0
-238.0
-277.0
-247.0
-204.0
-73.0
-251.0
-445.0
573.0
298.0
144.0
26.0
205.0
416.0
534.0
182.0
-101.0
-303.0
-294.0
-271.0
-256.0
-260.0
-185.0
-32.0
187.0
-83.0
-207.0
-402.0
-69.0
93.0
273.0
515.0
769.0
844.0
322.0
-67.0
-171.0
-146.0
-176.0
-437.0
-730.0
-713.0
-1084.0
-694.0
-415.0
-183.0
105.0
402.0
366.0
-9.0
-261.0
-293.0
-294.0
-301.0
-329.0
-353.0
-408.0
-222.0
-457.0
-496.0
364.0
-360.0
-348.0
-433.0
-281.0
48.0
193.0
-137.0
-404.0
-708.0
-796.0
-726.0
-651.0
-577.0
-670.0
-643.0
-519.0
-683.0
-699.0
290.0
-52.0
-309.0
-307.0
-19.0
153.0
345.0
92.0
-262.0
-478.0
-479.0
-437.0
-377.0
-405.0
-517.0
-317.0
-132.0
-134.0
-287.0
217.0
-282.0
-118.0
232.0
354.0
546.0
749.0
668.0
166.0
143.0
184.0
144.0
210.0
218.0
173.0
303.0
485.0
221.0
246.0
-426.0
16.0
314.0
446.0
665.0
853.0
707.0
309.0
5.0
-1.0
-4.0
-72.0
-94.0
-144.0
-56.0
73.0
-190.0
-273.0
577.0
301.0
38.0
131.0
389.0
443.0
282.0
-35.0
-324.0
-341.0
-308.0
-350.0
-451.0
-421.0
-319.0
-175.0
-379.0
-537.0
468.0
259.0
41.0
-58.0
-34.0
334.0
544.0
272.0
-80.0
-212.0
-216.0
-280.0
-113.0
-182.0
-88.0
43.0
86.0
42.0
-22.0
289.0
-413.0
-112.0
199.0
463.0
655.0
855.0
727.0
319.0
41.0
-93.0
-87.0
41.0
24.0
-78.0
132.0
166.0
144.0
120.0
1108.0
498.0
365.0
304.0
395.0
682.0
859.0
493.0
237.0
-33.0
-18.0
-29.0
-115.0
-130.0
-212.0
-170.0
-28.0
-30.0
-83.0
149.0
-564.0
-247.0
98.0
202.0
461.0
831.0
536.0
163.0
70.0
-80.0
-91.0
-238.0
-227.0
-227.0
-152.0
-217.0
-203.0
-33.0
-155.0
-226.0
452.0
-48.0
-188.0
-122.0
23.0
380.0
518.0
414.0
4.0
-226.0
-277.0
-272.0
-375.0
-326.0
-482.0
-540.0
-540.0
-222.0
-154.0
-283.0
-188.0
-555.0
-402.0
-252.0
-18.0
279.0
516.0
607.0
452.0
62.0
8.0
-92.0
-146.0
-13.0
-20.0
-46.0
-39.0
28.0
99.0
10.0
-35.0
915.0
454.0
403.0
170.0
228.0
512.0
576.0
362.0
20.0
-185.0
-196.0
-158.0
-272.0
-214.0
-255.0
-252.0
-214.0
86.0
95.0
16.0
264.0
-422.0
-86.0
188.0
363.0
583.0
879.0
743.0
423.0
92.0
-66.0
-84.0
-174.0
-166.0
-229.0
-322.0
-217.0
-238.0
9.0
-300.0
-443.0
262.0
95.0
68.0
190.0
311.0
611.0
628.0
362.0
37.0
-238.0
-203.0
-147.0
-235.0
-265.0
-240.0
-252.0
-180.0
-141.0
-248.0
-219.0
821.0
427.0
198.0
279.0
375.0
557.0
587.0
271.0
81.0
32.0
-87.0
35.0
254.0
-23.0
152.0
204.0
-2.0
-78.0
838.0
381.0
208.0
149.0
216.0
362.0
432.0
159.0
-193.0
-318.0
-342.0
-246.0
-239.0
-316.0
-442.0
-361.0
-282.0
-203.0
-298.0
-249.0
201.0
-29.0
-64.0
27.0
199.0
608.0
640.0
335.0
-64.0
-301.0
-288.0
-220.0
-310.0
-236.0
-359.0
-232.0
-299.0
-177.0
-41.0
-66.0
-23.0
240.0
-438.0
-191.0
-15.0
232.0
416.0
649.0
453.0
182.0
-69.0
-20.0
290.0
57.0
-26.0
-133.0
-162.0
-240.0
105.0
151.0
-102.0
302.0
-535.0
-235.0
-17.0
176.0
258.0
581.0
708.0
212.0
-78.0
-76.0
24.0
-12.0
-38.0
-225.0
-252.0
-348.0
-275.0
-17.0
-134.0
-218.0
320.0
-119.0
-186.0
-5.0
278.0
446.0
480.0
207.0
7.0
-126.0
-55.0
-110.0
-128.0
-208.0
-257.0
-272.0
-306.0
-185.0
-37.0
-332.0
-454.0
603.0
466.0
220.0
288.0
410.0
539.0
702.0
263.0
-109.0
-404.0
-402.0
-387.0
-358.0
-294.0
-254.0
-163.0
-144.0
71.0
114.0
25.0
480.0
-299.0
42.0
247.0
416.0
669.0
982.0
726.0
325.0
-50.0
-117.0
25.0
-4.0
-79.0
-191.0
-348.0
-235.0
-43.0
-210.0
-281.0
367.0
-214.0
-219.0
-69.0
51.0
319.0
490.0
326.0
-57.0
-311.0
-341.0
-214.0
-331.0
-346.0
-449.0
-488.0
-327.0
-306.0
-348.0
-415.0
261.0
-144.0
-291.0
-254.0
-285.0
3.0
207.0
161.0
-197.0
-573.0
-592.0
-401.0
-528.0
-511.0
-732.0
-849.0
-856.0
-661.0
-558.0
-944.0
-46.0
-369.0
-504.0
-644.0
-465.0
125.0
-154.0
-452.0
-542.0
-539.0
-342.0
-276.0
-175.0
-157.0
-79.0
126.0
-71.0
-167.0
801.0
616.0
556.0
568.0
705.0
913.0
1038.0
535.0
240.0
138.0
273.0
235.0
396.0
365.0
325.0
353.0
273.0
169.0
1153.0
954.0
629.0
438.0
463.0
673.0
823.0
511.0
108.0
-58.0
-161.0
-213.0
-194.0
-253.0
-162.0
-339.0
-425.0
-86.0
-990.0
-500.0
-221.0
-59.0
247.0
516.0
303.0
-170.0
-338.0
-438.0
-387.0
-460.0
-330.0
-52.0
-380.0
-660.0
-50.0
-443.0
-473.0
-344.0
-236.0
2.0
174.0
-73.0
-397.0
-556.0
-576.0
-538.0
-664.0
-502.0
28.0
-639.0
-807.0
-1102.0
-1003.0
-837.0
-645.0
-339.0
-196.0
-122.0
-496.0
1318.0
89.0
-597.0
-461.0
-505.0
-480.0
-1188.0
-992.0
-756.0
-842.0
-226.0
67.0
381.0
827.0
885.0
492.0
38.0
135.0
237.0
235.0
149.0
142.0
318.0
309.0
270.0
317.0
-55.0
107.0
271.0
490.0
547.0
814.0
894.0
485.0
44.0
3.0
86.0
-29.0
24.0
4.0
119.0
224.0
72.0
17.0
846.0
325.0
310.0
433.0
434.0
741.0
946.0
521.0
137.0
25.0
-15.0
-59.0
-28.0
-109.0
-113.0
-37.0
-82.0
-73.0
180.0
129.0
-165.0
728.0
252.0
172.0
256.0
390.0
675.0
858.0
725.0
243.0
5.0
-128.0
-99.0
90.0
22.0
-110.0
-83.0
-54.0
57.0
277.0
99.0
-28.0
850.0
573.0
346.0
459.0
567.0
700.0
808.0
590.0
134.0
40.0
-31.0
-58.0
20.0
65.0
26.0
-92.0
78.0
56.0
-24.0
-88.0
327.0
201.0
204.0
283.0
629.0
702.0
395.0
34.0
-153.0
-84.0
-27.0
-165.0
-62.0
-151.0
-220.0
-277.0
-38.0
-106.0
-258.0
804.0
384.0
104.0
83.0
233.0
453.0
630.0
323.0
-6.0
-215.0
-220.0
-172.0
-216.0
-199.0
-167.0
-187.0
-160.0
163.0
-69.0
-207.0
481.0
138.0
36.0
65.0
215.0
486.0
642.0
373.0
-5.0
-114.0
-170.0
-123.0
-222.0
-124.0
-169.0
-93.0
230.0
103.0
-102.0
658.0
283.0
318.0
230.0
369.0
650.0
787.0
512.0
268.0
2.0
-111.0
-196.0
-248.0
-265.0
-242.0
-48.0
19.0
13.0
-124.0
-523.0
-441.0
-162.0
5.0
227.0
591.0
467.0
-24.0
-221.0
-402.0
-458.0
-429.0
-493.0
-315.0
-280.0
-498.0
-612.0
310.0
-140.0
-294.0
-296.0
-163.0
106.0
293.0
-60.0
-338.0
-630.0
-771.0
-874.0
-681.0
-605.0
-827.0
-762.0
-1267.0
-866.0
-644.0
-418.0
-149.0
-21.0
-35.0
-381.0
-655.0
-641.0
-579.0
-660.0
-498.0
-285.0
-556.0
-661.0
103.0
-70.0
-248.0
-338.0
-181.0
76.0
138.0
-375.0
-763.0
-832.0
-1027.0
-998.0
-995.0
-1521.0
-1613.0
-1813.0
1143.0
-877.0
-3272.0
-3509.0
-2070.0
-1726.0
1125.0
3441.0
931.0
942.0
1159.0
1423.0
-164.0
866.0
1161.0
1072.0
2921.0
1409.0
923.0
1195.0
800.0
722.0
819.0
700.0
274.0
141.0
69.0
104.0
-148.0
-229.0
-284.0
-586.0
-646.0
181.0
-87.0
-259.0
-342.0
-267.0
-26.0
12.0
-420.0
-748.0
-937.0
-909.0
-837.0
-727.0
-720.0
-680.0
-633.0
-800.0
-603.0
-964.0
-701.0
-495.0
-211.0
38.0
382.0
423.0
15.0
-271.0
-370.0
-275.0
-205.0
-213.0
-170.0
-28.0
-10.0
-168.0
40.0
-648.0
-213.0
110.0
353.0
538.0
865.0
863.0
435.0
204.0
207.0
207.0
135.0
41.0
-68.0
48.0
-50.0
68.0
75.0
-202.0
-381.0
201.0
-94.0
-257.0
-394.0
-398.0
-136.0
94.0
-205.0
-543.0
-564.0
-710.0
-659.0
-532.0
-508.0
-410.0
-300.0
-143.0
-79.0
-38.0
469.0
-86.0
159.0
396.0
556.0
746.0
1017.0
870.0
562.0
278.0
178.0
273.0
264.0
306.0
335.0
573.0
810.0
473.0
359.0
168.0
394.0
573.0
715.0
981.0
1283.0
1248.0
1104.0
763.0
491.0
477.0
447.0
388.0
258.0
177.0
203.0
211.0
-22.0
393.0
-376.0
-81.0
-7.0
275.0
509.0
821.0
586.0
173.0
-70.0
-179.0
-41.0
-65.0
-204.0
-61.0
-71.0
-247.0
-607.0
-247.0
-36.0
180.0
387.0
657.0
460.0
70.0
-173.0
-290.0
-233.0
-200.0
36.0
130.0
-169.0
-273.0
341.0
152.0
8.0
56.0
235.0
605.0
626.0
243.0
-43.0
-213.0
-290.0
-184.0
-128.0
100.0
27.0
-199.0
-120.0
-723.0
-390.0
-80.0
272.0
563.0
788.0
635.0
187.0
-62.0
-67.0
-74.0
-55.0
-72.0
120.0
-32.0
-137.0
625.0
76.0
76.0
99.0
295.0
566.0
619.0
433.0
-59.0
-168.0
-234.0
-223.0
-292.0
-447.0
-383.0
-218.0
-551.0
-430.0
-755.0
-725.0
-774.0
-575.0
-321.0
-165.0
-44.0
-394.0
-519.0
-581.0
-542.0
-543.0
-510.0
-383.0
-271.0
-251.0
-385.0
222.0
-651.0
-376.0
11.0
450.0
432.0
556.0
469.0
199.0
3.0
-63.0
12.0
-90.0
-78.0
-59.0
37.0
38.0
-191.0
220.0
-490.0
-177.0
30.0
338.0
541.0
810.0
661.0
157.0
79.0
-72.0
-44.0
42.0
-33.0
-197.0
-192.0
-217.0
-75.0
-245.0
-342.0
709.0
235.0
136.0
156.0
254.0
542.0
691.0
474.0
117.0
-89.0
-117.0
80.0
76.0
118.0
136.0
260.0
132.0
201.0
933.0
460.0
250.0
408.0
625.0
754.0
885.0
590.0
403.0
239.0
186.0
252.0
208.0
184.0
225.0
316.0
208.0
75.0
921.0
500.0
399.0
320.0
451.0
674.0
748.0
378.0
-70.0
-215.0
-117.0
-63.0
-135.0
-66.0
-145.0
56.0
-89.0
-290.0
-137.0
-555.0
-309.0
-38.0
209.0
414.0
676.0
539.0
194.0
-59.0
-232.0
-235.0
-186.0
-194.0
-181.0
-219.0
-28.0
14.0
-180.0
-258.0
-698.0
-317.0
-106.0
35.0
501.0
482.0
173.0
-66.0
-229.0
-144.0
-116.0
-245.0
-426.0
-341.0
-301.0
-282.0
-66.0
41.0
-267.0
-216.0
-450.0
-69.0
43.0
271.0
539.0
780.0
619.0
332.0
-19.0
-80.0
-140.0
-174.0
-255.0
-331.0
-273.0
-429.0
-331.0
-154.0
-217.0
-281.0
499.0
65.0
-58.0
-51.0
143.0
334.0
486.0
160.0
-64.0
-172.0
-182.0
-139.0
-209.0
-277.0
-270.0
-190.0
-79.0
-138.0
-362.0
-637.0
-282.0
-106.0
143.0
324.0
518.0
591.0
169.0
-35.0
-77.0
-76.0
-191.0
-293.0
-308.0
-321.0
-98.0
58.0
-211.0
-330.0
-29.0
22.0
-55.0
34.0
216.0
553.0
615.0
227.0
-121.0
-308.0
-357.0
-302.0
-264.0
-389.0
-340.0
-278.0
-190.0
13.0
-197.0
-223.0
676.0
214.0
61.0
11.0
122.0
435.0
182.0
-145.0
-288.0
-344.0
-308.0
-320.0
-329.0
-261.0
-218.0
-202.0
-93.0
-216.0
-388.0
541.0
181.0
-54.0
21.0
184.0
508.0
645.0
417.0
77.0
-110.0
13.0
-39.0
44.0
205.0
23.0
-9.0
-32.0
216.0
225.0
-79.0
5.0
-433.0
-93.0
154.0
334.0
619.0
933.0
729.0
271.0
-12.0
-59.0
21.0
-91.0
-98.0
-227.0
-153.0
-201.0
-75.0
-52.0
42.0
-51.0
-53.0
846.0
534.0
154.0
141.0
260.0
472.0
635.0
350.0
-34.0
-171.0
-312.0
-296.0
-304.0
-280.0
-190.0
-192.0
-203.0
-310.0
-273.0
-123.0
-141.0
-359.0
626.0
277.0
58.0
58.0
269.0
550.0
685.0
486.0
89.0
-62.0
-174.0
-120.0
-22.0
-224.0
-217.0
-226.0
-37.0
46.0
124.0
-91.0
-118.0
647.0
