0.47862721636998906,0.5116384678755399,0.50300788879313,0.45899720236651853,0.3922331748816312,0.3181130171950525,0.25048408467534927,0.19946641584206495,0.16899258380636592,0.1571110563273835,0.15759881802011594,0.16189986246648597,0.16320750386064145,0.15712482122627922,0.14271617982356719,0.12218609503536754,0.09945197319008546,0.08000221381520048,0.06890556158409084,0.0702551771916933,0.08677337205061911,0.11944326933246546,0.16820718603824344,0.2313961615175229,0.3058146584077855,0.3867824146928704,0.4680551804129734,0.5435977753761937,0.6076713098877123,0.6560452185434547,0.6867914573351217,0.700125129806328,0.6997096722984592,0.6906851839531606,0.6786875332288788,0.668441402628105,0.6623459059785418,0.66064103583299,0.6609250114054886,0.6590176552135386,0.6500913479210882,0.6299228985388889,0.5959679916497191,0.5480335751645056,0.48844242896126683,0.4217090512848682,0.3538433725200663,0.2914500501026565,0.24079513555583243,0.20698135406140736,0.19332675464864818,0.2007498863525355,0.22861455391085905,0.27365120015539757,0.3308308016398015,0.3940003082414369,0.4564460239382409,0.5122521745613204,0.5561339488758856,0.5842725769953254,0.5946738618342257,0.5871996320449393,0.5637393994548172,0.5274544748603389,0.4824617704768148,0.4333484206958738,0.38466970106335713,0.3408455974059632,0.3056046732264915,0.28194571455298884,0.2720229795575219,0.27696788735245503,0.29688931126431706,0.33046737580084284,0.37491500371234476,0.4260032102306917,0.4780956266383706,0.5253851564661274,0.5615806878268944,0.5811117646644057,0.5799834409038616,0.5560940960184309,0.5109393134392188,0.4477866228219144,0.3719258780557286,0.2899917204519308,0.2087092216000393,0.13522071134256167,0.07446449710337039,0.029228618602469933,2.1075633768779437e-20,-0.015142441372986103,-0.01870604617688311,-0.01473116395902005,-0.007347249521811344,-4.965108447337108e-19,0.004844304304843311,0.006699658030825218,0.005804925522075555,0.003145110370631322,2.7132074179302215e-19,-0.0025870970951183056,-0.0037363522100761493,-0.0033545575537420203,-0.0018709571384981638,-5.3087194896741765e-19,0.001341164858816104,0.0020488395680745824,0.0019390136481510153,0.0011357935283213766,4.987347437041657e-19,-0.001327153653053202,-0.0019172278480146087,-0.0017107122649226139,-0.0009428080658999069,-7.776291398874433e-19,0.0005257362734687097,0.000822693181811599,0.0007938549974032976,0.0004722222939697843,3.887493525110309e-19,-0.0005734316272706576,-0.0008295184591778902,-0.0007399843188090386,-0.0004070145508585396,-4.853177743650282e-19,0.0001010459005271069,0.0002060118649775068,0.00023956813566934718,0.00016375399207261502,2.449195328416118e-19,-0.00047987814226909997,-0.0006414832081179379,-0.0005214920468391167,-0.0002567495885067679,-4.149937134983066e-19,0.0,0.0,0.0,0.0,0.0,0.0,0.0,0.0,0.0,0.0,0.0,0.0,0.0,0.0,0.0,0.0,0.0,0.0,0.0,0.0,0.0,0.0,0.0,0.0,0.0,0.0,0.0,0.0,0.0,0.0,0.0,0.0,0.0,0.0,0.0,0.0,0.0,0.0,0.0,0.0,0.0,0.0,0.0,0.0,0.0,0.0,0.0,0.0,0.0,0.0,0.0,0.0,0.0,0.0,0.0,0.0,0.0,0.0,0.0,0.0,0.0,0.0,0.0,0.0,0.0,0.0,0.0,0.0,0.0,0.0,0.0,0.0,0.0,0.0,0.0,0.0,0.0,0.0,0.0,0.0,0.0,0.0,0.0,0.0,0.0,0.0,0.0,0.0,0.0,0.0,0.0,0.0,0.0,0.0,0.0,0.0,0.0,0.0,0.0,0.0,0.0,0.0,0.0,0.0,0.0,0.0,0.0,0.0,0.0,0.0,0.0,0.0,0.0,0.0,0.0,0.0,0.0,0.0,0.0,0.0,0.0,0.0,0.0,0.0,0.0,0.0,0.0,0.0,0.0,0.0,0.0,0.0,0.0,0.0,0.0,0.0,0.0,0.0,0.0,0.0,0.0,0.0,0.0,0.0,0.0,0.0,0.0,0.0,0.0,0.0,0.0,0.0,0.0,0.0,0.0,0.0,0.0,0.0,0.0,0.0,0.0,0.0,0.0,0.0
0.6867914573351217,0.7532961878645811,0.7722554769951134,0.7531075063448062,0.7123871389719453,0.668441402628105,0.6357146618195115,0.6219019282228048,0.6258903076474911,0.6393403282693895,0.6500913479210882,0.6461985589550491,0.620056259900859,0.5700990729943911,0.5009462050144843,0.4217090512848682,0.3430667403627483,0.27532063853848865,0.2258532645389237,0.19841348648874899,0.19332675464864818,0.20806148044169767,0.23938375324956507,0.2834377158421651,0.3363160523479682,0.3940003082414369,0.45193916884265883,0.505534657544727,0.5499417654568449,0.5807412259399257,0.5946738618342257,0.5902640711567387,0.5682956229646882,0.5316531807023515,0.4848626732438668,0.4333484206958738,0.3826204595676843,0.3376765595775954,0.30254027120747023,0.28008849837817384,0.2720229795575219,0.2788933287019564,0.3000981838090063,0.33385393324472606,0.37718270817764427,0.4260032102306917,0.4753956046377067,0.5200611943667804,0.5549304634811681,0.5758162529405955,0.5799834409038616,0.5661674900323748,0.5360386291835779,0.49226464566959094,0.4388217858001593,0.3805569027660607,0.32231353459337186,0.2696999321759423,0.22686320322841538,0.19678405136643332,0.18113036462825985,0.17988822914031094,0.19269190293474414,0.21725738888156798,0.2502253125558586,0.2875079755620376,0.32446010379769374,0.35711463565686574,0.38149412938803845,0.39441816903090526,0.39388558649581534,0.379235043728701,0.3516091712555106,0.31333297829663526,0.26779257701633497,0.21899143222540718,0.170811399037581,0.12724552902717207,0.09091754554530598,0.06318287063439387,0.04409727795499905,0.03228235145302153,0.02643461612310502,0.02422480101047026,0.023358735006548753,0.022048638977499525,0.019085130703426063,0.014754661105990614,0.009559475321461529,0.0043455566848269,2.958584085729452e-19,-0.0029616620708226415,-0.004033332877218929,-0.0034592328486061103,-0.0018594756965639014,-5.265871036866666e-19,0.0012308750747250668,0.0018436519682508393,0.0017185271155947665,0.0009948709449369346,4.0019801517493716e-19,-0.0011782962949753002,-0.0016840981644556702,-0.0014866423776995097,-0.0008104375907195792,-6.518135756966095e-19,0.0004334519053607244,0.0006712607511580627,0.0006420903515213374,0.0003791723666369301,2.7154797365419224e-19,-0.0004375229340598539,-0.0006362710133128051,-0.0005710505679094735,-0.0003162668821265495,-3.434195130870061e-19,0.00010499297439558265,0.00019511385683670658,0.00021451375615607092,0.0001412751071928051,1.8715625446871525e-19,-0.0003523873129601296,-0.00047584644327283796,-0.0003918280259653762,-0.00019615730372836665,-3.0393652620929173e-19,7.682717897622912e-06,1.5663485939845507e-05,1.8214834980992617e-05,1.2450537024666175e-05,1.862171219835798e-20,-3.6486075863115536e-05,-4.877322581444216e-05,-3.965006260342148e-05,-1.9521174521069317e-05,-3.1552785550554197e-20,0.0,0.0,0.0,0.0,0.0,0.0,0.0,0.0,0.0,0.0,0.0,0.0,0.0,0.0,0.0,0.0,0.0,0.0,0.0,0.0,0.0,0.0,0.0,0.0,0.0,0.0,0.0,0.0,0.0,0.0,0.0,0.0,0.0,0.0,0.0,0.0,0.0,0.0,0.0,0.0,0.0,0.0,0.0,0.0,0.0,0.0,0.0,0.0,0.0,0.0,0.0,0.0,0.0,0.0,0.0,0.0,0.0,0.0,0.0,0.0,0.0,0.0,0.0,0.0,0.0,0.0,0.0,0.0,0.0,0.0,0.0,0.0,0.0,0.0,0.0,0.0,0.0,0.0,0.0,0.0,0.0,0.0,0.0,0.0,0.0,0.0,0.0,0.0,0.0,0.0,0.0,0.0,0.0,0.0,0.0,0.0,0.0,0.0,0.0,0.0,0.0,0.0,0.0,0.0,0.0,0.0,0.0,0.0,0.0,0.0,0.0,0.0,0.0,0.0,0.0,0.0,0.0,0.0,0.0,0.0,0.0,0.0,0.0,0.0,0.0,0.0,0.0,0.0,0.0,0.0,0.0,0.0,0.0,0.0,0.0,0.0,0.0,0.0,0.0,0.0,0.0,0.0,0.0,0.0,0.0,0.0,0.0,0.0,0.0,0.0,0.0,0.0,0.0,0.0,0.0,0.0,0.0,0.0,0.0,0.0,0.0,0.0,0.0,0.0
0.5946738618342257,0.6398829023892186,0.6356386406260172,0.5893677146823455,0.5159297176759603,0.4333484206958738,0.35812513513256944,0.3020510036017702,0.270305543611314,0.26196374112358906,0.2720229795575219,0.29389505765935237,0.3223359121319503,0.35426083698696603,0.38876933140006686,0.4260032102306917,0.4654337990161657,0.5051553851999878,0.5411349706932025,0.5679197329515331,0.5799834409038616,0.5731630214078794,0.5463415088444314,0.5016323318378338,0.4440792427208276,0.3805569027660607,0.3181410140884391,0.2633756643579383,0.22092423137784706,0.19332648372847233,0.18113036462825985,0.18307390824263295,0.1973598850412131,0.2214884309006426,0.25259962842851247,0.2875079755620376,0.322571343178692,0.35415645145477714,0.378595419312467,0.3926371933049737,0.39388558649581534,0.3811887362825381,0.35487915447543533,0.31680340856276895,0.27013273505504876,0.21899143222540718,0.1679672926137889,0.12157636600485763,0.08374923819005058,0.057396000160651016,0.04409727795499905,0.04365338499407189,0.05530381256769335,0.07642879062017616,0.10355498906011353,0.13293749613406888,0.1608971535745113,0.1851120537485759,0.20374789117191008,0.21594916632018943,0.22177771431313872,0.2218714646007699,0.217700881798029,0.2105806940350869,0.20172410900911228,0.19216287685284808,0.18254403472908573,0.17404944722360918,0.1673885488919579,0.16329048016329833,0.16254803939255746,0.16564878804426336,0.1737402017885511,0.18689060478762337,0.20445356488417252,0.22501481958171615,0.2462598657069906,0.2659151744221151,0.2810733070554918,0.28897455530134686,0.28748159977087484,0.27538975780161523,0.25302946538955584,0.22183029366100204,0.18431416655231972,0.14374079988543742,0.10347737778106122,0.06704516116401413,0.03691530240267644,0.014485079802977134,-5.74265617077487e-21,-0.007533225337671059,-0.009296619846154815,-0.007309885064890366,-0.003638437478880185,-2.439747963962209e-19,0.002380393829715416,0.0032826256266028486,0.0028358554046564784,0.001531965911613654,8.387034629155555e-20,-0.0012278110758320235,-0.0017766007725762319,-0.0015989990133805148,-0.0008944649670578212,-1.998568166502885e-19,0.0006749194048690814,0.0010243223109158393,0.0009635318779379707,0.0005612688531027705,2.294749700091359e-19,-0.0006140907947193956,-0.0008948526077641136,-0.0008059992665857994,-0.00044870866797070514,-3.4711567529447966e-19,0.0002654211556612229,0.00041763008280849877,0.00040493924775898346,0.00024189220416422162,2.0439539962943634e-19,-0.0003071644746425518,-0.0004418216803257534,-0.00039170846669067433,-0.0002140142341507346,-2.603884697846544e-19,5.008563190795739e-05,0.00010211433006297201,0.00011874723662630578,8.116828221257086e-05,1.2139977480514487e-19,-0.00023786219796137945,-0.0003179653174382034,-0.0002584890486863883,-0.00012726360312875618,-2.0570079805282758e-19,0.0,0.0,0.0,0.0,0.0,0.0,0.0,0.0,0.0,0.0,0.0,0.0,0.0,0.0,0.0,0.0,0.0,0.0,0.0,0.0,0.0,0.0,0.0,0.0,0.0,0.0,0.0,0.0,0.0,0.0,0.0,0.0,0.0,0.0,0.0,0.0,0.0,0.0,0.0,0.0,0.0,0.0,0.0,0.0,0.0,0.0,0.0,0.0,0.0,0.0,0.0,0.0,0.0,0.0,0.0,0.0,0.0,0.0,0.0,0.0,0.0,0.0,0.0,0.0,0.0,0.0,0.0,0.0,0.0,0.0,0.0,0.0,0.0,0.0,0.0,0.0,0.0,0.0,0.0,0.0,0.0,0.0,0.0,0.0,0.0,0.0,0.0,0.0,0.0,0.0,0.0,0.0,0.0,0.0,0.0,0.0,0.0,0.0,0.0,0.0,0.0,0.0,0.0,0.0,0.0,0.0,0.0,0.0,0.0,0.0,0.0,0.0,0.0,0.0,0.0,0.0,0.0,0.0,0.0,0.0,0.0,0.0,0.0,0.0,0.0,0.0,0.0,0.0,0.0,0.0,0.0,0.0,0.0,0.0,0.0,0.0,0.0,0.0,0.0,0.0,0.0,0.0,0.0,0.0,0.0,0.0,0.0,0.0,0.0,0.0,0.0,0.0,0.0,0.0,0.0,0.0,0.0,0.0,0.0,0.0,0.0,0.0,0.0,0.0
0.5799834409038616,0.6192113929247526,0.6079507001271452,0.5537897459505726,0.471863323354413,0.3805569027660607,0.29667303521292,0.23239218469867023,0.19308378917050406,0.17777226934720908,0.18113036462825985,0.19596235550173027,0.21644356804190895,0.238998142617083,0.26254932718690827,0.2875079755620376,0.3140836545310937,0.34146325733828103,0.36685342360888695,0.3859197399675887,0.39388558649581534,0.38687155678657265,0.3633563686079789,0.32460994097147505,0.2745692955958019,0.21899143222540718,0.164087700778468,0.11575814742966875,0.0783516737909658,0.054297298685981064,0.04409727795499905,0.04643022349852903,0.05928281600298195,0.0799357261838944,0.10545459986469727,0.13293749613406888,0.15958201951086526,0.1831685329394072,0.2019703227243054,0.21494215037121867,0.22177771431313872,0.22286665761378688,0.21914739544102485,0.21188913560936115,0.20246279093075747,0.19216287685284808,0.18211938595649171,0.1733001831955223,0.1665673816272878,0.1627310232882715,0.16254803939255746,0.1663431776251602,0.17500802671857307,0.18833603218659278,0.20548425530930747,0.22501481958171615,0.24482559712680638,0.26309989411736073,0.27757448367861043,0.2862041518171446,0.28748159977087484,0.28059058288655664,0.2658897092880798,0.24443267575847263,0.21801475922064684,0.18896853677759173,0.15975521128989423,0.13325576024000607,0.11177214919555248,0.09710870614776985,0.09045547378430863,0.09210677355453804,0.10218901270793906,0.11962695502361162,0.14257842325336104,0.16859173679702072,0.1947091811099622,0.21816370105084915,0.23611219501018652,0.24616968033050612,0.2467279998097328,0.2371713570813721,0.2180708853070874,0.19101860851843883,0.15846085628798312,0.1233639999048664,0.08873547639276051,0.057467905383943946,0.03164016674129528,0.012418862493999774,3.7250048156565097e-20,-0.0064081060714903364,-0.007921279117668014,-0.006245048693907237,-0.003119590097636571,-2.254036013342895e-19,0.0020591049227281274,0.002856576199779982,0.002483318753088994,0.0013500609510453659,1.604362165406973e-19,-0.0011584730014563976,-0.0016656715421827072,-0.00148761861255903,-0.000824768501480686,-2.9118961495910405e-19,0.0005557129344996125,0.000852214942913032,0.0008094325362922195,0.000475689793152617,2.1480474500992495e-19,-0.0005779520826313469,-0.0008307332882179583,-0.0007371906535319109,-0.00040386570886628663,-3.428340500550427e-19,0.00021924933210858296,0.00034100396051064334,0.00032727430827537356,0.0001937525911581096,1.5470712971713594e-19,-0.00022303695907591517,-0.00032493799917975583,-0.00029207661418551197,-0.00016196191454044388,-1.883792797272434e-19,4.298545642470998e-05,8.763852861688596e-05,0.00010191354228963672,6.966180769225159e-05,1.0419005473358285e-19,-0.0002041426803667855,-0.0002728903235647802,-0.00022184545378188932,-0.00010922262250371265,-1.7654050382107862e-19,0.0,0.0,0.0,0.0,0.0,0.0,0.0,0.0,0.0,0.0,0.0,0.0,0.0,0.0,0.0,0.0,0.0,0.0,0.0,0.0,0.0,0.0,0.0,0.0,0.0,0.0,0.0,0.0,0.0,0.0,0.0,0.0,0.0,0.0,0.0,0.0,0.0,0.0,0.0,0.0,0.0,0.0,0.0,0.0,0.0,0.0,0.0,0.0,0.0,0.0,0.0,0.0,0.0,0.0,0.0,0.0,0.0,0.0,0.0,0.0,0.0,0.0,0.0,0.0,0.0,0.0,0.0,0.0,0.0,0.0,0.0,0.0,0.0,0.0,0.0,0.0,0.0,0.0,0.0,0.0,0.0,0.0,0.0,0.0,0.0,0.0,0.0,0.0,0.0,0.0,0.0,0.0,0.0,0.0,0.0,0.0,0.0,0.0,0.0,0.0,0.0,0.0,0.0,0.0,0.0,0.0,0.0,0.0,0.0,0.0,0.0,0.0,0.0,0.0,0.0,0.0,0.0,0.0,0.0,0.0,0.0,0.0,0.0,0.0,0.0,0.0,0.0,0.0,0.0,0.0,0.0,0.0,0.0,0.0,0.0,0.0,0.0,0.0,0.0,0.0,0.0,0.0,0.0,0.0,0.0,0.0,0.0,0.0,0.0,0.0,0.0,0.0,0.0,0.0,0.0,0.0,0.0,0.0,0.0,0.0,0.0,0.0,0.0,0.0
0.5125028368376757,0.547946342006224,0.5400242751796476,0.4960610449198257,0.4298822534878235,0.3577510213052193,0.29380146049154177,0.2471885413912655,0.22006221790363456,0.20815984355059444,0.20299920577276287,0.1947726481281436,0.17589723941146718,0.14265496974897504,0.0959808920694341,0.040794311972840135,-0.015703357218466756,-0.06563684300021821,-0.10237144613747672,-0.1215363505835068,-0.12141058182708264,-0.1027532718391699,-0.06820812082291076,-0.021708716283098266,0.032143220051130905,0.0886209969290973,0.14314608512489657,0.1924997005536555,0.2347448817863986,0.26964448487716075,0.29865257568527726,0.32409081094441267,0.34978216893561803,0.37907477288873365,0.4140790340419124,0.45486047946904157,0.4988778744227115,0.5419307408790656,0.5784857025251231,0.6029843025120407,0.611068383252806,0.6005494562894839,0.5718929388066976,0.5281226897112383,0.47420178296753224,0.4160683555101355,0.3595698846794867,0.3095350742492833,0.2691599629308979,0.2397886072698582,0.22106832776746502,0.21111710226387329,0.20810259885072188,0.2094766402218164,0.21292953646185428,0.21669954411795758,0.21946313680149027,0.22091099016132543,0.22057556935446368,0.2179407085825769,0.21233076046845012,0.20283100876946267,0.188852394992097,0.1698780449082647,0.14598713374553574,0.11816777649622867,0.08848225581021363,0.06013285088969089,0.03710368826288429,0.023720779592770736,0.02400479252400722,0.04101141664028473,0.07591969122079409,0.12785739675585847,0.19358900149518263,0.2676823576619778,0.3430164587165113,0.4118336876228362,0.46657766464121087,0.5010587630220735,0.5113599227999485,0.49624272978574435,0.45785438330866424,0.40061915754991484,0.3308218352347664,0.25567996139997423,0.18208727718288684,0.11656366587406485,0.06335934514334982,0.024531967368489713,4.910130418474684e-20,-0.012398151971055489,-0.015104083891571113,-0.01172794102523339,-0.005766574035683165,-3.766668126686227e-19,0.0036455870722660426,0.004977258652426448,0.004261191215898286,0.0022834000282625326,6.892699815431083e-20,-0.0018855082391138235,-0.0026894484555472394,-0.0023855081192287707,-0.0013149646451779537,-2.676130956503653e-19,0.0009501156919425073,0.001425408144533796,0.0013271149805925125,0.0007661717040640861,2.060592351712988e-19,-0.0007823546586767857,-0.0011485889932315429,-0.0010434290226089722,-0.0005864940085916434,-3.5421750626882872e-19,0.0004259284919551124,0.000648687949557073,0.0006107744101127252,0.00035541036194200394,2.516093340780579e-19,-0.0003270035781075063,-0.0004926512721104763,-0.00045836377506309144,-0.00026331101315922893,-2.734611434608116e-19,8.909017094051413e-05,0.00018163658466972257,0.00021122248450798707,0.00014437865435250612,2.159407054982562e-19,-0.00042309906193474533,-0.0005655830505599318,-0.0004597892181143172,-0.0002263710314782975,-3.658917450578287e-19,0.0,0.0,0.0,0.0,0.0,0.0,0.0,0.0,0.0,0.0,0.0,0.0,0.0,0.0,0.0,0.0,0.0,0.0,0.0,0.0,0.0,0.0,0.0,0.0,0.0,0.0,0.0,0.0,0.0,0.0,0.0,0.0,0.0,0.0,0.0,0.0,0.0,0.0,0.0,0.0,0.0,0.0,0.0,0.0,0.0,0.0,0.0,0.0,0.0,0.0,0.0,0.0,0.0,0.0,0.0,0.0,0.0,0.0,0.0,0.0,0.0,0.0,0.0,0.0,0.0,0.0,0.0,0.0,0.0,0.0,0.0,0.0,0.0,0.0,0.0,0.0,0.0,0.0,0.0,0.0,0.0,0.0,0.0,0.0,0.0,0.0,0.0,0.0,0.0,0.0,0.0,0.0,0.0,0.0,0.0,0.0,0.0,0.0,0.0,0.0,0.0,0.0,0.0,0.0,0.0,0.0,0.0,0.0,0.0,0.0,0.0,0.0,0.0,0.0,0.0,0.0,0.0,0.0,0.0,0.0,0.0,0.0,0.0,0.0,0.0,0.0,0.0,0.0,0.0,0.0,0.0,0.0,0.0,0.0,0.0,0.0,0.0,0.0,0.0,0.0,0.0,0.0,0.0,0.0,0.0,0.0,0.0,0.0,0.0,0.0,0.0,0.0,0.0,0.0,0.0,0.0,0.0,0.0,0.0,0.0,0.0,0.0,0.0,0.0
0.611068383252806,0.6532349336488086,0.643066319429397,0.5888643630930143,0.5067642099254657,0.4160683555101355,0.3339033102234992,0.2722729203564548,0.23549825352149517,0.22088759757645235,0.22106832776746502,0.22694882307032588,0.2314489463879998,0.23079467180059116,0.22497798228636834,0.21669954411795758,0.20942963260005162,0.20590472695704357,0.2066856509062993,0.2099839196462867,0.21233076046845012,0.20983266802942616,0.1993851197858114,0.17969883181605104,0.1516669653472324,0.11816777649622869,0.08343506319256445,0.0523372973083184,0.029593518756328,0.0191983550969941,0.024004792524007217,0.04536523799504846,0.08313668248164265,0.1354138568875407,0.1986024808141828,0.2676823576619778,0.3367206252340822,0.39978054593684026,0.4517753845702035,0.48933688421462157,0.5113599227999485,0.5190832599497383,0.5156656456475384,0.5053567915908915,0.4924770842477867,0.48047079967729794,0.47126940349855423,0.46510526642193933,0.4607841468318176,0.45629868971659415,0.4495816765546474,0.438863586214829,0.42429373376483054,0.4064286983875644,0.38658513570928543,0.36641940458495886,0.3471784734446742,0.33002787140403134,0.3146734099473964,0.2997683227511282,0.28325713261527025,0.2628140860359034,0.23689650017310632,0.20470249094536563,0.1667115867077386,0.12474654940016432,0.0816219562617148,0.041085081231517995,0.006632484064745584,-0.01889273893308178,-0.03376403381494163,-0.037731516287895964,-0.031604732662578,-0.01756761572543499,0.0014477726274815784,0.02228620372297741,0.04200435071057387,0.058476608759033474,0.07028552563572904,0.07685546655399854,0.07833644126089644,0.0753852660488069,0.06898161048293343,0.060166621557033284,0.04993364441371967,0.03916822063044822,0.028499827056020784,0.018837985009620816,0.010678191100389502,0.0043480849822811665,4.41243228401895e-19,-0.002671746597313663,-0.003430315663554304,-0.0027913126654175975,-0.001429633270647897,-6.586832705416471e-19,0.0007722848052989493,0.0011273803223571608,0.0010304270633998774,0.0005876043882797923,2.968167196385321e-19,-0.000740041830346063,-0.0010350368361781099,-0.0008924750108534915,-0.000474177621402141,-4.501829836167797e-19,0.00015835317124171652,0.0002605494672547079,0.00026287593523516436,0.0001626366874030614,1.1976618893406879e-19,-0.00030481573198319785,-0.00041914383855716974,-0.0003533082436710576,-0.00018233914888213953,-2.1490223576219731e-19,5.872588281225573e-05,8.607475517226598e-05,7.81004328987365e-05,4.387486222059896e-05,2.2733617182409264e-20,-1.91154630632228e-05,-3.40588574038942e-05,-3.655241831125209e-05,-2.3762524654061577e-05,-1.5101846588818943e-20,1.3647934911659279e-05,2.7825339866096758e-05,3.235767414082964e-05,2.211770901810984e-05,3.3080469622017064e-20,-6.481555032962178e-05,-8.664301100436413e-05,-7.043620250876913e-05,-3.467831603515328e-05,-5.605182556667185e-20,0.0,0.0,0.0,0.0,0.0,0.0,0.0,0.0,0.0,0.0,0.0,0.0,0.0,0.0,0.0,0.0,0.0,0.0,0.0,0.0,0.0,0.0,0.0,0.0,0.0,0.0,0.0,0.0,0.0,0.0,0.0,0.0,0.0,0.0,0.0,0.0,0.0,0.0,0.0,0.0,0.0,0.0,0.0,0.0,0.0,0.0,0.0,0.0,0.0,0.0,0.0,0.0,0.0,0.0,0.0,0.0,0.0,0.0,0.0,0.0,0.0,0.0,0.0,0.0,0.0,0.0,0.0,0.0,0.0,0.0,0.0,0.0,0.0,0.0,0.0,0.0,0.0,0.0,0.0,0.0,0.0,0.0,0.0,0.0,0.0,0.0,0.0,0.0,0.0,0.0,0.0,0.0,0.0,0.0,0.0,0.0,0.0,0.0,0.0,0.0,0.0,0.0,0.0,0.0,0.0,0.0,0.0,0.0,0.0,0.0,0.0,0.0,0.0,0.0,0.0,0.0,0.0,0.0,0.0,0.0,0.0,0.0,0.0,0.0,0.0,0.0,0.0,0.0,0.0,0.0,0.0,0.0,0.0,0.0,0.0,0.0,0.0,0.0,0.0,0.0,0.0,0.0,0.0,0.0,0.0,0.0,0.0,0.0,0.0,0.0,0.0,0.0,0.0,0.0,0.0,0.0,0.0,0.0,0.0,0.0,0.0,0.0,0.0,0.0
0.5113599227999485,0.5589866059579155,0.5704158213268882,0.5526836370646484,0.5181227592027503,0.48047079967729794,0.45086474001489935,0.43535462287850385,0.4338262514056642,0.4411332518658281,0.4495816765546474,0.4517188847269631,0.4432155983640131,0.42365985200064027,0.3962890282904037,0.36641940458495886,0.3392629181616365,0.3182537731633225,0.3038493260824064,0.2936196839241056,0.28325713261527025,0.2681335018816892,0.24476627810985935,0.21189515084022936,0.170772890721834,0.12474654940016433,0.07823010290943491,0.03597092945661439,0.0018495478588798546,-0.021670111602944082,-0.033764033814941634,-0.03537302275684307,-0.028103643818012135,-0.01434191439392992,0.0032967017121197603,0.022286203722977408,0.04029403910278986,0.05570548531006314,0.06742727367602591,0.07496235340584935,0.07833644126089644,0.07796436445711069,0.07448909425262332,0.06863765176669848,0.06113423594618492,0.05268979127883137,0.044055588962710675,0.03609917474359793,0.02984730963107294,0.026449317901969176,0.02704314129676629,0.03228170929726128,0.04311019902371156,0.05925801799481763,0.07967428435933983,0.10264344851119,0.12574760286373354,0.14707410754771832,0.164243657121909,0.1751505728165465,0.1782437557256137,0.17249953406535884,0.1584183877722676,0.13687928701730429,0.10953291933037974,0.07873382892489202,0.04720261276044775,0.018515775215155607,-0.004144324057032018,-0.01796045969926506,-0.020776097875829715,-0.011518648446105633,0.010133899981521664,0.04289099518300906,0.08414729996578064,0.13020090787098942,0.17656387934131634,0.2187037513724859,0.2522797986122634,0.2738173287672482,0.28117791361780853,0.27386768131202244,0.25302392563925513,0.22130217717938838,0.1824207215963639,0.14058895680890426,0.09988240346816264,0.06373922647646824,0.03451042181305362,0.01329919353020484,-1.0519595228986622e-19,-0.006515738937899621,-0.007894480379121327,-0.006105754040115336,-0.0029954578926610076,1.3502171225630387e-21,0.001979468270478721,0.002692519682248545,0.0022958106112655093,0.0012249599425184863,2.0045025504226932e-20,-0.000956153874207429,-0.0013710840595563389,-0.001223963257618619,-0.0006796615969747247,-9.770033292307941e-20,0.0005051251646831065,0.0007630878050921318,0.0007152090309748725,0.00041548735814569927,1.2322742346889685e-19,-0.0004606585389303145,-0.000668609471652194,-0.0006000123474401548,-0.0003329237393379014,-2.2174158642338444e-19,0.0002282830570978819,0.00034462133708675676,0.0003218083563821545,0.0001858343031637651,1.2400327648663104e-19,-0.00015169590180879797,-0.00023331261465119914,-0.00022148827331179457,-0.00012974459215317816,-1.260558283657677e-19,4.898739082199782e-05,9.987524175623984e-05,0.00011614343411570083,7.938848351568258e-05,1.1873780937836812e-19,-0.00023264652974184087,-0.0003109932066308056,-0.0002528210899779967,-0.0001244730599653974,-2.0119034147615012e-19,0.0,0.0,0.0,0.0,0.0,0.0,0.0,0.0,0.0,0.0,0.0,0.0,0.0,0.0,0.0,0.0,0.0,0.0,0.0,0.0,0.0,0.0,0.0,0.0,0.0,0.0,0.0,0.0,0.0,0.0,0.0,0.0,0.0,0.0,0.0,0.0,0.0,0.0,0.0,0.0,0.0,0.0,0.0,0.0,0.0,0.0,0.0,0.0,0.0,0.0,0.0,0.0,0.0,0.0,0.0,0.0,0.0,0.0,0.0,0.0,0.0,0.0,0.0,0.0,0.0,0.0,0.0,0.0,0.0,0.0,0.0,0.0,0.0,0.0,0.0,0.0,0.0,0.0,0.0,0.0,0.0,0.0,0.0,0.0,0.0,0.0,0.0,0.0,0.0,0.0,0.0,0.0,0.0,0.0,0.0,0.0,0.0,0.0,0.0,0.0,0.0,0.0,0.0,0.0,0.0,0.0,0.0,0.0,0.0,0.0,0.0,0.0,0.0,0.0,0.0,0.0,0.0,0.0,0.0,0.0,0.0,0.0,0.0,0.0,0.0,0.0,0.0,0.0,0.0,0.0,0.0,0.0,0.0,0.0,0.0,0.0,0.0,0.0,0.0,0.0,0.0,0.0,0.0,0.0,0.0,0.0,0.0,0.0,0.0,0.0,0.0,0.0,0.0,0.0,0.0,0.0,0.0,0.0,0.0,0.0,0.0,0.0,0.0,0.0
0.6172775105078513,0.645178501240545,0.6112421138693521,0.5236532437201448,0.3999274466457609,0.2622615836654003,0.13194233118645196,0.025819316125463735,-0.04692492668389612,-0.0848806813269069,-0.09275434317705064,-0.07894406428517584,-0.051668052576812354,-0.017650709089156013,0.018904368462077797,0.05596601646158655,0.09240653870010992,0.12745688364119062,0.15950866324798998,0.18615080223406855,0.20468637610022364,0.21288809940950387,0.20997050889452354,0.1968295773852204,0.17599370291052882,0.15112996255903174,0.1262738627570585,0.10546410947581016,0.09211697986117191,0.08887852866102025,0.09757354901783978,0.1190708088380879,0.15350508974171592,0.19984855194396117,0.25577000487668067,0.3175617788346465,0.38028055255681875,0.43842981124168257,0.4866280591431981,0.520523389893407,0.5375500086514532,0.5373560089422894,0.5217884046335345,0.49444608687837516,0.4599296240970441,0.422989952427526,0.3877853139664148,0.357400405886267,0.33368730592353957,0.3173884736479193,0.30842989620359884,0.30592936182123126,0.3096604756622871,0.31856320677581584,0.33134261716944363,0.34644864432232475,0.3618954800255741,0.3757774997512546,0.3856955382316442,0.38925959202603927,0.38446739244105066,0.3701483237923264,0.3460882778863348,0.31340102729632374,0.27434502485251216,0.23201211368821795,0.1898439249859549,0.15123825432154286,0.11894746514432723,0.09480260980390025,0.07955683493538522,0.07279678545253421,0.07351217149456597,0.07983552312448237,0.08956599422494647,0.10050373544019855,0.11063859155786765,0.11861365876753253,0.12339485910359425,0.12440071270514635,0.1214506359450119,0.11464289335255419,0.10447964315361663,0.09156511521098218,0.07667206941432253,0.06072531797250595,0.04459928601180139,0.029666661249789367,0.016860190460975734,0.006857577543507831,3.481334067082377e-19,-0.004033381197968443,-0.005156318950361206,-0.004184379100954433,-0.0021411133231603644,-6.219402676014271e-19,0.0013149553854113292,0.0018818434000296095,0.0016852028456894857,0.0009419523839400974,2.973560517013792e-19,-0.0009457450152115577,-0.00135510519339663,-0.001202171710109526,-0.0006600852663798278,-4.415738241603287e-19,0.0003447668508374032,0.0005496513726929385,0.00053995632090513,0.0003266357528506497,2.248757632643808e-19,-0.0005065564605971004,-0.0007095728281899356,-0.0006112537967030921,-0.0003236637941266507,-3.6015663986413357e-19,0.00011402749640615289,0.00018030047676751923,0.00017556889767891555,0.00010526437485045936,9.094677917942671e-20,-0.00013877312756089205,-0.00019869423774150944,-0.00017527100528155455,-9.523243779458097e-05,-1.177940844711994e-19,2.1159378032463113e-05,4.313963166731777e-05,5.016643644835717e-05,3.4290679824857594e-05,5.128703842408432e-20,-0.00010048822336007671,-0.0001343289102401876,-0.00010920232589774094,-5.376429498430438e-05,-8.690118865980856e-20,0.0,0.0,0.0,0.0,0.0,0.0,0.0,0.0,0.0,0.0,0.0,0.0,0.0,0.0,0.0,0.0,0.0,0.0,0.0,0.0,0.0,0.0,0.0,0.0,0.0,0.0,0.0,0.0,0.0,0.0,0.0,0.0,0.0,0.0,0.0,0.0,0.0,0.0,0.0,0.0,0.0,0.0,0.0,0.0,0.0,0.0,0.0,0.0,0.0,0.0,0.0,0.0,0.0,0.0,0.0,0.0,0.0,0.0,0.0,0.0,0.0,0.0,0.0,0.0,0.0,0.0,0.0,0.0,0.0,0.0,0.0,0.0,0.0,0.0,0.0,0.0,0.0,0.0,0.0,0.0,0.0,0.0,0.0,0.0,0.0,0.0,0.0,0.0,0.0,0.0,0.0,0.0,0.0,0.0,0.0,0.0,0.0,0.0,0.0,0.0,0.0,0.0,0.0,0.0,0.0,0.0,0.0,0.0,0.0,0.0,0.0,0.0,0.0,0.0,0.0,0.0,0.0,0.0,0.0,0.0,0.0,0.0,0.0,0.0,0.0,0.0,0.0,0.0,0.0,0.0,0.0,0.0,0.0,0.0,0.0,0.0,0.0,0.0,0.0,0.0,0.0,0.0,0.0,0.0,0.0,0.0,0.0,0.0,0.0,0.0,0.0,0.0,0.0,0.0,0.0,0.0,0.0,0.0,0.0,0.0,0.0,0.0,0.0,0.0
0.5375500086514532,0.5805529113645199,0.5807311968640029,0.5451637349950849,0.4873049367720541,0.422989952427526,0.3661070372259967,0.32586457535752716,0.30517049070940444,0.3013768464588493,0.30842989620359884,0.3195344386624382,0.3297051628383421,0.33684432199801767,0.3416596975523371,0.34644864432232475,0.35327235603009144,0.3628911484799693,0.373772486916905,0.38242831777493835,0.38446739244105066,0.37581663638233176,0.35457210583070825,0.3212543970048326,0.27884237579115584,0.23201211368821795,0.18584393507898594,0.14511571328353814,0.11311755678168742,0.09134322816351262,0.07955683493538522,0.07609705380395786,0.0787505502138277,0.08507544771164072,0.09288402002875475,0.10050373544019857,0.10684799303392532,0.11159397459461731,0.1150216664290183,0.11792982436619645,0.12145063594501189,0.12679705294210555,0.13497060044709003,0.1464834919838005,0.16116170935603535,0.17808559604228716,0.1956923487090942,0.21202155126282557,0.2250464761783931,0.2330140030543319,0.23472055613956241,0.22940042464576316,0.2178301929918892,0.2008793789450808,0.1799263823587431,0.15676423897821531,0.13324373816939158,0.11192557344825822,0.09477556927818284,0.08337914136642013,0.07880792181686821,0.08135288770059566,0.09106112426072331,0.10692288539060239,0.127246871200813,0.14985388647495895,0.17215879116155006,0.19214963695299006,0.20778513002996785,0.21759624897981025,0.22089985113304964,0.2176798230919991,0.20926957922336664,0.1971421887444129,0.18299196747725627,0.16845033160075704,0.1547008940113187,0.1427396322501189,0.13268691688953907,0.124066006448546,0.11600081206846447,0.10744497176370414,0.09761698797997648,0.08601954817220117,0.0726466240428739,0.05800040603423223,0.04293717667612513,0.028672162978999084,0.016283124032513346,0.0065884882101648595,4.272559921353117e-20,-0.0035965523966131636,-0.004559970697723733,-0.003681005562761558,-0.0018796334971553875,-1.7457370805960863e-19,0.00126081096575832,0.0017891360536935854,0.001589208425537291,0.0008816480498359692,1.5231270453575152e-19,-0.0008483800517095684,-0.0012179416977452463,-0.001083831967770304,-0.0005976544134038073,-2.882929957701234e-19,0.0003985668824471552,0.0006039574976264297,0.0005668732188945421,0.0003293471778216628,1.6142449434073916e-19,-0.0003322378794033739,-0.000490830265502337,-0.0004482816147222805,-0.0002530742762850898,-2.102601710106881e-19,0.0001341577995595479,0.0002236834150735025,0.0002275484256604013,0.0001414559619555614,1.4806061852274955e-19,-0.00025244693159293916,-0.0003500573814420015,-0.00029770457654072096,-0.00015510979063416782,-2.1619744404081189e-19,2.020989857756409e-05,4.1203837812829765e-05,4.79153305481679e-05,3.2751962763407516e-05,4.898564803295016e-20,-9.597904055738203e-05,-0.00012830120279640753,-0.00010430211736098633,-5.135174328186732e-05,-8.300169345195306e-20,0.0,0.0,0.0,0.0,0.0,0.0,0.0,0.0,0.0,0.0,0.0,0.0,0.0,0.0,0.0,0.0,0.0,0.0,0.0,0.0,0.0,0.0,0.0,0.0,0.0,0.0,0.0,0.0,0.0,0.0,0.0,0.0,0.0,0.0,0.0,0.0,0.0,0.0,0.0,0.0,0.0,0.0,0.0,0.0,0.0,0.0,0.0,0.0,0.0,0.0,0.0,0.0,0.0,0.0,0.0,0.0,0.0,0.0,0.0,0.0,0.0,0.0,0.0,0.0,0.0,0.0,0.0,0.0,0.0,0.0,0.0,0.0,0.0,0.0,0.0,0.0,0.0,0.0,0.0,0.0,0.0,0.0,0.0,0.0,0.0,0.0,0.0,0.0,0.0,0.0,0.0,0.0,0.0,0.0,0.0,0.0,0.0,0.0,0.0,0.0,0.0,0.0,0.0,0.0,0.0,0.0,0.0,0.0,0.0,0.0,0.0,0.0,0.0,0.0,0.0,0.0,0.0,0.0,0.0,0.0,0.0,0.0,0.0,0.0,0.0,0.0,0.0,0.0,0.0,0.0,0.0,0.0,0.0,0.0,0.0,0.0,0.0,0.0,0.0,0.0,0.0,0.0,0.0,0.0,0.0,0.0,0.0,0.0,0.0,0.0,0.0,0.0,0.0,0.0,0.0,0.0,0.0,0.0,0.0,0.0,0.0,0.0,0.0,0.0
0.6555146487894913,0.7187848988300513,0.7358929030642799,0.7152624147614399,0.6721679229711717,0.6239626320772979,0.585071378733649,0.5640664591742819,0.5621189183376334,0.574291376138271,0.5924106153651043,0.6080849606678225,0.6166169858342204,0.6173483596612918,0.6133122063437999,0.6092815545239554,0.60916166506199,0.6143854727597906,0.6227277230078565,0.628894713817397,0.6261524936828065,0.6085635881955807,0.5725525825803798,0.518247043947566,0.44946194482297797,0.37280742236067593,0.29621905592906306,0.22742914734876188,0.1727025102437188,0.13613002782833664,0.11946235103854533,0.12221468129291908,0.1424707613069868,0.17701727018572894,0.22173825989569407,0.2718474724520362,0.32204803824488526,0.3670232720476792,0.4017029575253869,0.4217873330668669,0.4242325938655271,0.4076400901116621,0.3724735402847308,0.3210701455933698,0.2574546031705267,0.18699292635878023,0.11593008310803952,0.05084800456084673,-0.0019286576478196732,-0.03695103645936237,-0.0502467411479667,-0.04017592617998669,-0.006491387752569295,0.04785686552940743,0.11757171563157437,0.19557999915763888,0.2734928263698282,0.3437233589309635,0.3987598840854332,0.43259081763017754,0.44140673946324444,0.42372644805132026,0.38167475348937185,0.31923548524142537,0.24235324819482423,0.1582990988034535,0.07456177785016599,-0.0008183492501953873,-0.06165366863067689,-0.10366324099608053,-0.12480854185633743,-0.1256755099796109,-0.1080293207995126,-0.07599025263797489,-0.034787011766634755,0.010017552893912905,0.05305085831083265,0.090419722969954,0.11908299194396964,0.13734634736841644,0.14484364764416324,0.14230368713826508,0.13150957046422468,0.11466355306899571,0.09418191071986809,0.07242182382208162,0.05132079758256515,0.032772496778300526,0.01782648064789579,0.0069310148147476835,1.7835963774823222e-19,-0.0036951684038162335,-0.0045494592024485705,-0.003565642967903359,-0.0017667238302107409,-3.7320424256653703e-19,0.0010974909323337619,0.0015073141918805853,0.0012966378023055733,0.0006972999215610807,1.2486228830676387e-19,-0.0005172631978913713,-0.0007549404049470706,-0.0006857422795408623,-0.0003872003819180513,-1.3716062733489278e-19,0.00022700234151949088,0.0003744181206617684,0.00037875048000006115,0.00023493940051886263,1.5722199210034542e-19,-0.00045801217142776634,-0.0006270719753160322,-0.0005259529973849928,-0.00026987194250835855,-3.0717743490844452e-19,9.771603123790568e-05,0.00013699452817020818,0.00011864096861997388,6.35121251041916e-05,1.569247239357019e-20,1.6268006536118598e-05,6.018882179173023e-06,-1.149712215830264e-05,-1.632255721396793e-05,1.671063838309795e-20,2.523495634466135e-05,5.144889987689343e-05,5.982916094222061e-05,4.089552193270739e-05,6.116560579867289e-20,-0.00011984359491822583,-0.000160202449265588,-0.00013023614978366113,-6.412001499991547e-05,-1.0363951618828251e-19,0.0,0.0,0.0,0.0,0.0,0.0,0.0,0.0,0.0,0.0,0.0,0.0,0.0,0.0,0.0,0.0,0.0,0.0,0.0,0.0,0.0,0.0,0.0,0.0,0.0,0.0,0.0,0.0,0.0,0.0,0.0,0.0,0.0,0.0,0.0,0.0,0.0,0.0,0.0,0.0,0.0,0.0,0.0,0.0,0.0,0.0,0.0,0.0,0.0,0.0,0.0,0.0,0.0,0.0,0.0,0.0,0.0,0.0,0.0,0.0,0.0,0.0,0.0,0.0,0.0,0.0,0.0,0.0,0.0,0.0,0.0,0.0,0.0,0.0,0.0,0.0,0.0,0.0,0.0,0.0,0.0,0.0,0.0,0.0,0.0,0.0,0.0,0.0,0.0,0.0,0.0,0.0,0.0,0.0,0.0,0.0,0.0,0.0,0.0,0.0,0.0,0.0,0.0,0.0,0.0,0.0,0.0,0.0,0.0,0.0,0.0,0.0,0.0,0.0,0.0,0.0,0.0,0.0,0.0,0.0,0.0,0.0,0.0,0.0,0.0,0.0,0.0,0.0,0.0,0.0,0.0,0.0,0.0,0.0,0.0,0.0,0.0,0.0,0.0,0.0,0.0,0.0,0.0,0.0,0.0,0.0,0.0,0.0,0.0,0.0,0.0,0.0,0.0,0.0,0.0,0.0,0.0,0.0,0.0,0.0,0.0,0.0,0.0,0.0
0.6261524936828065,0.664874837686381,0.6469705563460053,0.580601365999342,0.48239074936036486,0.37280742236067593,0.27111722309863223,0.19138971750079664,0.14046105005259996,0.11818331673815109,0.11946235103854531,0.137002310180224,0.16432122814145508,0.19703239556345775,0.23309700595499627,0.2718474724520362,0.31238426494591987,0.35258232567677733,0.3883523673423624,0.4141534326296573,0.4242325938655271,0.41411318666864005,0.38213661207234256,0.3299772295213564,0.26252270869810235,0.18699292635878023,0.11142904801764601,0.04405545011393647,-0.008277838375057654,-0.040629031910373675,-0.050246741147966706,-0.03695322693498499,-0.0018615259432230458,0.05194629016390489,0.1197900499423859,0.19557999915763888,0.2719565707020365,0.34140776239670406,0.3965988374673208,0.4313413119997522,0.44140673946324444,0.4251359378048841,0.38371754950497045,0.3210762449599819,0.24338726670960603,0.1582990988034535,0.07398696543384183,-0.0018258917655447557,-0.06274958323938908,-0.10440348769551978,-0.12480854185633744,-0.12477555058460925,-0.10640627874633846,-0.07416520252889847,-0.03350554642853015,0.010017552893912903,0.051331488703357346,0.08711658376457275,0.11507530286285052,0.1342571792918751,0.14484364764416324,0.1477447611066409,0.14446861358395255,0.13651616150629156,0.12533935405202073,0.11234356867913227,0.0988592551550505,0.08682504397760367,0.07817915110851323,0.07510103085805815,0.07984348971410132,0.09416894821939396,0.11972158431226267,0.15645608793609528,0.20271814009229963,0.2551957705582585,0.30906607908920536,0.3588922367641216,0.39888863939274966,0.42396321021206834,0.4305480514024157,0.41724198969050225,0.3849836433268789,0.33704760040149434,0.27847627688139376,0.21527402570120785,0.15337829798385755,0.09817296444603016,0.05332108268518736,0.020615037892611363,-1.5844314571636e-19,-0.010332726469036064,-0.012551357415642443,-0.009717317238250117,-0.004764430371626181,-9.568838626872501e-20,0.0030914800846638547,0.004191685095412352,0.0035607179749477316,0.0018920687900998538,-7.704367394750659e-20,-0.0013789479841867305,-0.001993590235975746,-0.0017969778835287848,-0.001008790255750268,-8.015832013672765e-21,0.000843236114006155,0.001262746023392219,0.0011734399966113161,0.0006761665331636441,1.8732537896729348e-19,-0.0006664588278976662,-0.0009838983096874619,-0.0008989578712847168,-0.0005082541867929779,-3.0384694521967223e-19,0.0003690068803072909,0.0005673552392639648,0.0005388834603318568,0.00031608042782294704,2.370286246470634e-19,-0.0003246658490303016,-0.0004807514738828485,-0.00043954539056923966,-0.0002480973821069425,-2.7291366647621176e-19,7.501096153081312e-05,0.00015293196456370184,0.0001778423084455689,0.00012156202612673871,1.8181489363042922e-19,-0.00035623534137903105,-0.0004762021219642541,-0.00038712723287156195,-0.00019059688127938236,-3.080686828101451e-19,0.0,0.0,0.0,0.0,0.0,0.0,0.0,0.0,0.0,0.0,0.0,0.0,0.0,0.0,0.0,0.0,0.0,0.0,0.0,0.0,0.0,0.0,0.0,0.0,0.0,0.0,0.0,0.0,0.0,0.0,0.0,0.0,0.0,0.0,0.0,0.0,0.0,0.0,0.0,0.0,0.0,0.0,0.0,0.0,0.0,0.0,0.0,0.0,0.0,0.0,0.0,0.0,0.0,0.0,0.0,0.0,0.0,0.0,0.0,0.0,0.0,0.0,0.0,0.0,0.0,0.0,0.0,0.0,0.0,0.0,0.0,0.0,0.0,0.0,0.0,0.0,0.0,0.0,0.0,0.0,0.0,0.0,0.0,0.0,0.0,0.0,0.0,0.0,0.0,0.0,0.0,0.0,0.0,0.0,0.0,0.0,0.0,0.0,0.0,0.0,0.0,0.0,0.0,0.0,0.0,0.0,0.0,0.0,0.0,0.0,0.0,0.0,0.0,0.0,0.0,0.0,0.0,0.0,0.0,0.0,0.0,0.0,0.0,0.0,0.0,0.0,0.0,0.0,0.0,0.0,0.0,0.0,0.0,0.0,0.0,0.0,0.0,0.0,0.0,0.0,0.0,0.0,0.0,0.0,0.0,0.0,0.0,0.0,0.0,0.0,0.0,0.0,0.0,0.0,0.0,0.0,0.0,0.0,0.0,0.0,0.0,0.0,0.0,0.0
0.5766094497875709,0.6208169627752336,0.6181325131514498,0.5763800740660859,0.5104278881472084,0.43778248461897273,0.3735706938954293,0.32789956960540156,0.3035118914498828,0.29656146530936633,0.29895551945037463,0.30119774524020976,0.29633861515134075,0.2810946111676465,0.2564034113264907,0.226425470713482,0.19659016843408472,0.17216125406850807,0.15653052317522984,0.15076831894342532,0.15389542197658931,0.16370800982165726,0.17760774937193358,0.1933819788315075,0.2095248953632136,0.22522949498577075,0.24019568028345029,0.2544239186973758,0.2681508107589725,0.2819000186128504,0.29656356799495215,0.3133531114685839,0.333641896903151,0.35849328186880014,0.38817344444214774,0.42175496563630066,0.45699002421072266,0.4906041583457488,0.5188724001351488,0.5384144032222409,0.5469463632776492,0.543780389889021,0.5299355384716964,0.5078469190901975,0.48077954818935853,0.4521314725602736,0.4248235492502455,0.4009227391822869,0.3815548414369262,0.36706541164275464,0.35731658184289794,0.35168631535633416,0.35039048755691343,0.35300948093343143,0.35893684180214247,0.36723685429103015,0.3762616776643642,0.3844320784759206,0.3891761729789771,0.3876359763898954,0.3771571267391624,0.3556847174980837,0.3228325940780127,0.2794014634136564,0.22770741079999807,0.17136077069640346,0.11466497032443107,0.0624019944763028,0.01853984176811214,-0.014146871152833229,-0.03443558534635547,-0.04281432949939642,-0.04097460991097612,-0.03177516611204416,-0.018517302171855512,-0.0043414788003183,0.008148276374716736,0.017618379266085307,0.02347581018072632,0.025936158846577604,0.025752627745718876,0.023736073632081398,0.0210475716611718,0.01824469797236541,0.015532609729407875,0.012876313872859438,0.009949448594078827,0.007114302620695564,0.004409522615070813,0.00196912867043293,4.682448969456643e-19,-0.001575979794003866,-0.00213224087129145,-0.0018096340707869497,-0.0009584701519815568,-6.985659604089537e-19,0.0004838816460594987,0.0007403877718316326,0.0007037684650688526,0.0004144963396411776,3.153870052980356e-19,-0.0005602169874583896,-0.0007901968937292135,-0.0006864285154185075,-0.0003670552920282388,-4.3158434959732786e-19,8.229697687513627e-05,0.00015733151995211058,0.00017632356658177877,0.00011775202088099593,1.4829844899244278e-19,-0.00032120293827287794,-0.0004306771473972602,-0.0003516083211405976,-0.00017415085735552764,-2.6218911433910175e-19,1.524015405602092e-05,2.0007581777222263e-05,1.6035921990064256e-05,7.83488646412451e-06,-2.3808969147728582e-21,1.3023996354024039e-05,1.4613690767199832e-05,8.966055603041643e-06,2.5186368586407935e-06,1.173279745590625e-20,4.486675442750902e-06,9.147410935903692e-06,1.0637388212349386e-05,7.27106207230576e-06,1.087500282265973e-20,-2.130771723741634e-05,-2.848336193537827e-05,-2.3155472393610795e-05,-1.1400285094996877e-05,-1.842669612063444e-20,0.0,0.0,0.0,0.0,0.0,0.0,0.0,0.0,0.0,0.0,0.0,0.0,0.0,0.0,0.0,0.0,0.0,0.0,0.0,0.0,0.0,0.0,0.0,0.0,0.0,0.0,0.0,0.0,0.0,0.0,0.0,0.0,0.0,0.0,0.0,0.0,0.0,0.0,0.0,0.0,0.0,0.0,0.0,0.0,0.0,0.0,0.0,0.0,0.0,0.0,0.0,0.0,0.0,0.0,0.0,0.0,0.0,0.0,0.0,0.0,0.0,0.0,0.0,0.0,0.0,0.0,0.0,0.0,0.0,0.0,0.0,0.0,0.0,0.0,0.0,0.0,0.0,0.0,0.0,0.0,0.0,0.0,0.0,0.0,0.0,0.0,0.0,0.0,0.0,0.0,0.0,0.0,0.0,0.0,0.0,0.0,0.0,0.0,0.0,0.0,0.0,0.0,0.0,0.0,0.0,0.0,0.0,0.0,0.0,0.0,0.0,0.0,0.0,0.0,0.0,0.0,0.0,0.0,0.0,0.0,0.0,0.0,0.0,0.0,0.0,0.0,0.0,0.0,0.0,0.0,0.0,0.0,0.0,0.0,0.0,0.0,0.0,0.0,0.0,0.0,0.0,0.0,0.0,0.0,0.0,0.0,0.0,0.0,0.0,0.0,0.0,0.0,0.0,0.0,0.0,0.0,0.0,0.0,0.0,0.0,0.0,0.0,0.0,0.0
0.5469463632776492,0.592398331942805,0.5956012292277728,0.5638913587912349,0.5108347496576154,0.4521314725602736,0.40123843691090333,0.3667123598382193,0.3506797867937085,0.34974778544124924,0.35731658184289794,0.3661905872864214,0.3717158739059294,0.37241568946956727,0.369861509415427,0.36723685429103015,0.36734411448424004,0.3711749616631023,0.3769958982301411,0.38072182510334707,0.3771571267391624,0.3617685057809792,0.33185896290181766,0.28768225747730236,0.23240581757113893,0.17136077069640346,0.11089451528364785,0.05678165789704379,0.013357430188423447,-0.01710484203162334,-0.03443558534635548,-0.04012423915754631,-0.036899943934366485,-0.027921160559846236,-0.01623258645596424,-0.004341478800318297,0.0060610982099138285,0.014081897747629328,0.01963402500439131,0.023237299270377133,0.025752627745718876,0.028077934279349848,0.03086988455902346,0.03436300440233647,0.03834340549051672,0.04229570119932689,0.04568805765372769,0.04830976945627536,0.050547870666728244,0.05349684370521231,0.05883877465293492,0.0682166646453147,0.08381798964110533,0.1064358528347251,0.13560485903461203,0.16947257793560513,0.20468560514272646,0.23763843918775548,0.2638524794750627,0.27909473984472727,0.28010638121827536,0.26501457625790564,0.23438732136619847,0.19034817737194318,0.13665896416682333,0.07821827020228792,0.020175836983862626,-0.03211576131424727,-0.07475954932684026,-0.10545444206466525,-0.12366984081369956,-0.13071387151819197,-0.12860348429196872,-0.12047900348139348,-0.1095992340106405,-0.09872770067697335,-0.08979180515265885,-0.083372474943999,-0.07923636716334509,-0.07645553737210461,-0.07378556054024717,-0.07003567925417772,-0.06444660291722956,-0.05677363733869785,-0.04733541606245846,-0.03689278027012358,-0.02643323925536338,-0.01693764071191456,-0.009160799806422025,-0.003506992879924951,1.7818567336615548e-19,0.0016440167266868104,0.0019481277892584538,0.0014689460894423932,0.0007008686528925468,-1.8964946106170577e-19,-0.0004639311318709446,-0.0006072173582319079,-0.000496967469608315,-0.00025416676302174876,1.5041353783070307e-19,0.00014956659958582441,0.00021411955814500507,0.0001927833130737121,0.00010900413391410312,-1.373258576597587e-19,-0.00018209690046454394,-0.0002457825445079209,-0.0002043818605130599,-0.0001047703869838702,4.472712453325212e-20,-7.202117893255098e-05,-6.839440413346806e-05,-2.6171811942607404e-05,6.464190025164845e-06,-1.1098945649636685e-19,-8.240097550115901e-05,-0.00013629858401448735,-0.00013778273341026148,-8.522246063761259e-05,-8.706691416396833e-20,0.00014664277811190314,0.00020403846819458743,0.00017422191859579804,9.120725424802964e-05,1.2546918242631886e-19,-1.2855071170768997e-05,-2.6208853327981034e-05,-3.0477885972739075e-05,-2.083280184163727e-05,-3.115869134092975e-20,6.10501528511868e-05,8.160956804969177e-05,6.634427861136693e-05,3.2663712393109356e-05,5.2795548306398925e-20,0.0,0.0,0.0,0.0,0.0,0.0,0.0,0.0,0.0,0.0,0.0,0.0,0.0,0.0,0.0,0.0,0.0,0.0,0.0,0.0,0.0,0.0,0.0,0.0,0.0,0.0,0.0,0.0,0.0,0.0,0.0,0.0,0.0,0.0,0.0,0.0,0.0,0.0,0.0,0.0,0.0,0.0,0.0,0.0,0.0,0.0,0.0,0.0,0.0,0.0,0.0,0.0,0.0,0.0,0.0,0.0,0.0,0.0,0.0,0.0,0.0,0.0,0.0,0.0,0.0,0.0,0.0,0.0,0.0,0.0,0.0,0.0,0.0,0.0,0.0,0.0,0.0,0.0,0.0,0.0,0.0,0.0,0.0,0.0,0.0,0.0,0.0,0.0,0.0,0.0,0.0,0.0,0.0,0.0,0.0,0.0,0.0,0.0,0.0,0.0,0.0,0.0,0.0,0.0,0.0,0.0,0.0,0.0,0.0,0.0,0.0,0.0,0.0,0.0,0.0,0.0,0.0,0.0,0.0,0.0,0.0,0.0,0.0,0.0,0.0,0.0,0.0,0.0,0.0,0.0,0.0,0.0,0.0,0.0,0.0,0.0,0.0,0.0,0.0,0.0,0.0,0.0,0.0,0.0,0.0,0.0,0.0,0.0,0.0,0.0,0.0,0.0,0.0,0.0,0.0,0.0,0.0,0.0,0.0,0.0,0.0,0.0,0.0,0.0
0.7506121023152875,0.7949653976197126,0.7699433551951897,0.6853859905135805,0.561639169877518,0.42393840985845127,0.2959217632979033,0.19520924627341973,0.13014779962446782,0.09999136145904072,0.09726471740161485,0.11120785282914027,0.13183774348360297,0.15208550483995428,0.16880205538793636,0.18219678413062726,0.19428469020512615,0.20760666176472997,0.22389707747050383,0.24379124021918308,0.2671288508596397,0.29351187525887473,0.322904807064744,0.35560851674436,0.3919077268925808,0.43146216296236495,0.47262012950921534,0.5128714849230229,0.5488533820205985,0.5772666214262913,0.5957954750650902,0.6034752820762073,0.6018758319538108,0.593985233271634,0.5835150807335502,0.5738115494247191,0.5667593281128208,0.5627871009132166,0.5605894800910565,0.5577980249303184,0.551827623784348,0.5407100599101358,0.5236650993321189,0.5012680404581062,0.4752115349817451,0.44778008906291844,0.4212229542682612,0.3972131011016093,0.37652741444910437,0.359001707662632,0.3437325543414889,0.32905303774993006,0.3144262453122621,0.2988595470484911,0.28188243100657745,0.263682821497396,0.244803988805787,0.22670584048288367,0.21029501073112447,0.19600417384314792,0.18363308865330313,0.1723195756384844,0.16093393337939882,0.14817129433429432,0.13306162350333425,0.11536775242949777,0.09576255353559875,0.07625475322026815,0.059542332858440156,0.048793464562342015,0.047102416205692416,0.05673644008602971,0.07909648572156608,0.11363107662840866,0.15797680550257467,0.20817116904065275,0.2589161082710886,0.3051069293521291,0.34147473061717737,0.36374104485846104,0.36923992187561305,0.3569722133958594,0.32883097779284165,0.2878101770873319,0.2381184140437838,0.18461996093780653,0.13190198467597833,0.08478175137965299,0.04630889088267652,0.018030528326192945,1.6777501515785739e-19,-0.009279656349140582,-0.011377901447498368,-0.008888931192836423,-0.004395752295373409,-4.543169326186547e-19,0.0027414678181306718,0.003774136849247295,0.003259074772536787,0.0017615934725569143,1.4794657569366002e-19,-0.0015664920057836618,-0.0022251605133202512,-0.0019623813226736335,-0.0010739628946998077,-3.5123760496214687e-19,0.0007158879438730744,0.0010772859934728481,0.001005776911469255,0.0005820879557221293,1.756489995105488e-19,-0.0006078809636836046,-0.0008900300674476109,-0.0008061181098150049,-0.0004516222679517056,-2.923820351644586e-19,0.0003127385161798943,0.00047897507638986923,0.0004533210427209262,0.0002650378351189888,1.9425180168638246e-19,-0.00026075192318113314,-0.00038865668982290607,-0.0003577397044425565,-0.00020330849347020646,-2.187599372252649e-19,6.432973389435871e-05,0.00013115513231067054,0.00015251835390434683,0.0001042521337255468,1.5592526060970556e-19,-0.00030550901157646665,-0.0004083930556376821,-0.00033200203497800755,-0.00016345673223720409,-2.642010711757289e-19,0.0,0.0,0.0,0.0,0.0,0.0,0.0,0.0,0.0,0.0,0.0,0.0,0.0,0.0,0.0,0.0,0.0,0.0,0.0,0.0,0.0,0.0,0.0,0.0,0.0,0.0,0.0,0.0,0.0,0.0,0.0,0.0,0.0,0.0,0.0,0.0,0.0,0.0,0.0,0.0,0.0,0.0,0.0,0.0,0.0,0.0,0.0,0.0,0.0,0.0,0.0,0.0,0.0,0.0,0.0,0.0,0.0,0.0,0.0,0.0,0.0,0.0,0.0,0.0,0.0,0.0,0.0,0.0,0.0,0.0,0.0,0.0,0.0,0.0,0.0,0.0,0.0,0.0,0.0,0.0,0.0,0.0,0.0,0.0,0.0,0.0,0.0,0.0,0.0,0.0,0.0,0.0,0.0,0.0,0.0,0.0,0.0,0.0,0.0,0.0,0.0,0.0,0.0,0.0,0.0,0.0,0.0,0.0,0.0,0.0,0.0,0.0,0.0,0.0,0.0,0.0,0.0,0.0,0.0,0.0,0.0,0.0,0.0,0.0,0.0,0.0,0.0,0.0,0.0,0.0,0.0,0.0,0.0,0.0,0.0,0.0,0.0,0.0,0.0,0.0,0.0,0.0,0.0,0.0,0.0,0.0,0.0,0.0,0.0,0.0,0.0,0.0,0.0,0.0,0.0,0.0,0.0,0.0,0.0,0.0,0.0,0.0,0.0,0.0
0.5957954750650902,0.653012231871807,0.6687270840801379,0.6510215356612269,0.6141072672152736,0.5738115494247191,0.542826439963372,0.5280818742711365,0.5292780908811237,0.5402444826600588,0.551827623784348,0.5552650905568999,0.5452231492178327,0.521039553259302,0.4864334503227959,0.44778008906291844,0.41171893364846035,0.38306168504031773,0.36350663388249527,0.35160085737926994,0.3437325543414889,0.33571083138907204,0.3241881220895254,0.30769475980674815,0.2868179914333503,0.263682821497396,0.24109211756625148,0.22128260753350706,0.2054165855962323,0.19330423529264745,0.18363308865330313,0.1746397422848019,0.1643034752714569,0.15119329263664177,0.13473653770006006,0.11536775242949777,0.09457443799961648,0.07452845225449087,0.0579895504560226,0.04792675764347333,0.047102416205692416,0.05760043756095202,0.08035862788685813,0.11480039216498471,0.15867264797843006,0.20817116904065275,0.25837420939289013,0.3039275832257192,0.3398548331464926,0.3623279790815543,0.36923992187561305,0.3601602262343301,0.33742642401590417,0.30420960417238385,0.26451087880223867,0.22254569576780003,0.18183997784784622,0.1458592655405663,0.11621150368735317,0.09315619131922023,0.07585146965998696,0.06247777429237797,0.05179382026732142,0.042136497317497516,0.03228539050903691,0.021668264496044896,0.01011929024453402,-0.001444217202312888,-0.012502042429887394,-0.02280162939677933,-0.03251494066789717,-0.04241671991299404,-0.053045055170328634,-0.06530408631438929,-0.07978013900601988,-0.09640802246488718,-0.11443193265705072,-0.13193439670556983,-0.14679097019426562,-0.1568344614603992,-0.1603011042618772,-0.15631461291031198,-0.1447605029878864,-0.12678471240509842,-0.10441134451026829,-0.0801505521309386,-0.05659432905538254,-0.03576238458915052,-0.019099501950080675,-0.00723166842605444,3.280702411222211e-19,0.0033363734450982483,0.003930730978367714,0.0029516827484109553,0.001404745710283652,-3.2575507958900126e-19,-0.0009926158921424212,-0.001290720885432346,-0.0010465072296051,-0.0005286008688252953,2.256982170647733e-19,0.00017162550180606145,0.0002718228303596783,0.0002725128477930258,0.0001711964017013694,-2.9197322894277102e-19,-0.0002936413343264765,-0.000427535821657003,-0.0003865625666527668,-0.00021700779676477413,-1.625695209196518e-20,0.0001424300104476185,0.00022532383970729711,0.00022038879107096868,0.00013315874014961822,2.1664369992433375e-20,-0.00013787385472624264,-0.00021222718724352662,-0.00020178790020644187,-0.00011846975406425402,-8.942741245450709e-20,0.0001231857307142299,0.00018207609382109476,0.00016615755478836846,9.360537983023901e-05,1.0360555413155403e-19,-2.792798603075289e-05,-5.693943502158911e-05,-6.621402265193506e-05,-4.525981934177685e-05,-6.769309052794384e-20,0.00013263309034649846,0.00017729896989214603,0.0001441347201944579,7.09627890276952e-05,1.1469974113716582e-19,0.0,0.0,0.0,0.0,0.0,0.0,0.0,0.0,0.0,0.0,0.0,0.0,0.0,0.0,0.0,0.0,0.0,0.0,0.0,0.0,0.0,0.0,0.0,0.0,0.0,0.0,0.0,0.0,0.0,0.0,0.0,0.0,0.0,0.0,0.0,0.0,0.0,0.0,0.0,0.0,0.0,0.0,0.0,0.0,0.0,0.0,0.0,0.0,0.0,0.0,0.0,0.0,0.0,0.0,0.0,0.0,0.0,0.0,0.0,0.0,0.0,0.0,0.0,0.0,0.0,0.0,0.0,0.0,0.0,0.0,0.0,0.0,0.0,0.0,0.0,0.0,0.0,0.0,0.0,0.0,0.0,0.0,0.0,0.0,0.0,0.0,0.0,0.0,0.0,0.0,0.0,0.0,0.0,0.0,0.0,0.0,0.0,0.0,0.0,0.0,0.0,0.0,0.0,0.0,0.0,0.0,0.0,0.0,0.0,0.0,0.0,0.0,0.0,0.0,0.0,0.0,0.0,0.0,0.0,0.0,0.0,0.0,0.0,0.0,0.0,0.0,0.0,0.0,0.0,0.0,0.0,0.0,0.0,0.0,0.0,0.0,0.0,0.0,0.0,0.0,0.0,0.0,0.0,0.0,0.0,0.0,0.0,0.0,0.0,0.0,0.0,0.0,0.0,0.0,0.0,0.0,0.0,0.0,0.0,0.0,0.0,0.0,0.0,0.0
1.0006505165814363,1.0641867794905402,1.038704595132064,0.9377196633486682,0.7880843443911014,0.6223853407139025,0.47039070405586425,0.3533007836372601,0.2798894566271818,0.24719824141830735,0.2441201648463687,0.25633664824317515,0.27155628737292253,0.2822873708327004,0.28668220570269976,0.2872061343911361,0.28795030386316967,0.2926119715957557,0.302453925576585,0.3160794603735563,0.3302921039359036,0.34138207013854804,0.347162310411921,0.34729667191459057,0.34333477672382945,0.3379166563210558,0.3335133469499083,0.3320341350490307,0.3340270219600547,0.3389180583253,0.34554120870620797,0.352626644232829,0.3596614460730183,0.3666706597701962,0.37405137667342697,0.3821557178086448,0.39086396051646327,0.39967645555118775,0.40773098521435336,0.4142165404121885,0.4187702269110816,0.42171271347413475,0.4240062434414222,0.42693326569058937,0.4316040987872555,0.4384663290272969,0.44698645768793027,0.4556124274464028,0.46203191438692853,0.4636512342093064,0.4581624311435121,0.44354061007789897,0.4203669309278903,0.38936662265807154,0.3523210592438085,0.31190848937459215,0.2710419300181339,0.23363234265390403,0.2024884477745765,0.17953673539596746,0.16565454760567214,0.16053872308970055,0.16331782150376534,0.17215032653774778,0.18475953407290988,0.1987712590919912,0.21187084905286308,0.2226064870327313,0.22979546707442747,0.23287109316984758,0.2318879705783103,0.22726460817134542,0.22026975287693654,0.21195589856447933,0.20327474109266797,0.19493365540580174,0.18712107739002756,0.18012681845003914,0.1734862639659743,0.16641013694121562,0.15797934023329313,0.1471846927656829,0.1338102773378615,0.11769190513206389,0.09914396169019754,0.07898967011664657,0.05827849934790068,0.03884567892796208,0.02206027979255727,0.008941800256186717,2.600459504611372e-19,-0.005049826834133594,-0.00642041399431951,-0.005188975664169437,-0.0026483392395805494,-5.109543704930404e-19,0.0016688553851546897,0.0023808266687470924,0.0021267407728756873,0.0011865513180546426,2.792960475940166e-19,-0.001225163127358209,-0.0017447861167664033,-0.0015382168444511048,-0.0008392599222438921,-4.953004240246057e-19,0.0004960947556816638,0.0007569176377292697,0.0007150874294819588,0.00041799070934728233,2.1191198966698518e-19,-0.0004593139173508221,-0.0006701162235401149,-0.0006040564456788633,-0.0003364060116050747,-2.9352700119574724e-19,0.00017069414648935124,0.00028013851745722776,0.0002814128612809516,0.00017317831736522217,1.7252369916762896e-19,-0.0002867523829075042,-0.00040047379132062213,-0.00034344064974050606,-0.0001807174172362735,-2.45098676975131e-19,2.752348355614066e-05,5.611473744604993e-05,6.525499409945574e-05,4.4604286611844564e-05,6.671263949926777e-20,-0.00013071206341668166,-0.00017473101271870013,-0.00014204710632455703,-6.993498044402294e-05,-1.1303845667947974e-19,0.0,0.0,0.0,0.0,0.0,0.0,0.0,0.0,0.0,0.0,0.0,0.0,0.0,0.0,0.0,0.0,0.0,0.0,0.0,0.0,0.0,0.0,0.0,0.0,0.0,0.0,0.0,0.0,0.0,0.0,0.0,0.0,0.0,0.0,0.0,0.0,0.0,0.0,0.0,0.0,0.0,0.0,0.0,0.0,0.0,0.0,0.0,0.0,0.0,0.0,0.0,0.0,0.0,0.0,0.0,0.0,0.0,0.0,0.0,0.0,0.0,0.0,0.0,0.0,0.0,0.0,0.0,0.0,0.0,0.0,0.0,0.0,0.0,0.0,0.0,0.0,0.0,0.0,0.0,0.0,0.0,0.0,0.0,0.0,0.0,0.0,0.0,0.0,0.0,0.0,0.0,0.0,0.0,0.0,0.0,0.0,0.0,0.0,0.0,0.0,0.0,0.0,0.0,0.0,0.0,0.0,0.0,0.0,0.0,0.0,0.0,0.0,0.0,0.0,0.0,0.0,0.0,0.0,0.0,0.0,0.0,0.0,0.0,0.0,0.0,0.0,0.0,0.0,0.0,0.0,0.0,0.0,0.0,0.0,0.0,0.0,0.0,0.0,0.0,0.0,0.0,0.0,0.0,0.0,0.0,0.0,0.0,0.0,0.0,0.0,0.0,0.0,0.0,0.0,0.0,0.0,0.0,0.0,0.0,0.0,0.0,0.0,0.0,0.0
0.4581624311435121,0.49012148858530363,0.48280942538398963,0.44229142431772933,0.380520749585959,0.31190848937459215,0.2494145926202377,0.20228143341702298,0.17417935121155895,0.163631228341195,0.16565454760567214,0.1737601630174318,0.18289368486876686,0.19011709974023347,0.19497845589595433,0.1987712590919912,0.20311752308006015,0.20932206448519455,0.2172779752002241,0.2255422995885361,0.2318879705783103,0.23406880850198453,0.23084542952101234,0.22224128759487236,0.2095559139228953,0.19493365540580174,0.180630396554715,0.16876703705536358,0.16072630412824615,0.1571310992118342,0.15797934023329313,0.16274070126886775,0.17098403551949057,0.18216001791590516,0.19564137399188497,0.21060846535292502,0.2258873066202107,0.24016860540599133,0.25199014028444,0.2600065432797205,0.26323759047255685,0.26125649835968606,0.2542641993440811,0.24303911858767,0.22879412776372765,0.21299610003060293,0.19720155062153097,0.18293860046211688,0.17163384740165777,0.16455775601104883,0.16275460958864899,0.16669983219668474,0.17706632648497606,0.19340260693242803,0.21450778233545922,0.23849635880689893,0.2627977522140974,0.28501927366177915,0.3024540488924075,0.31274239973953727,0.31423810802514884,0.30619310982959147,0.28920135447680534,0.26471179362925734,0.2349775552821607,0.2027464216219618,0.1707922570659847,0.14194899899497498,0.11830438575523305,0.10121360493599682,0.0912547352187747,0.08815830296647595,0.0913756590368181,0.09962218959171124,0.111265199210938,0.12450450220531577,0.13743078748894608,0.14854215239262586,0.1563502537590874,0.15967449662295344,0.15775426919185684,0.15025308206666188,0.13761216491604705,0.12062724935311081,0.10053122608201763,0.07887713459592842,0.05725523303936701,0.0374962977836833,0.02091095874619656,0.008324354022859371,1.212004585384834e-19,-0.004485234367783373,-0.005624556632008896,-0.004493141324549992,-0.002271245369925138,-3.0863248747330864e-19,0.0014927611536055116,0.002096887440595974,0.0018445050634604571,0.0010138233770924112,1.9587655054216274e-19,-0.000906426052662836,-0.0013072360028815776,-0.0011698313660016752,-0.000649245511114423,-3.0607391934204876e-19,0.00040560022274628506,0.0006330580399842765,0.0006106812011975791,0.00036375820547048746,2.082013849513111e-19,-0.0004975216239761072,-0.0007058763740712178,-0.0006171667654359535,-0.0003324772763740279,-3.2927575101606955e-19,0.00014600710845510945,0.00022990340671868548,0.00022305839116377145,0.0001333181259142841,1.130298140340312e-19,-0.00017025729583569908,-0.0002447230635664151,-0.0002167980464794992,-0.00011835006875486647,-1.443590218913918e-19,2.7484271219269303e-05,5.603479153427275e-05,6.51620261869477e-05,4.4540739484571915e-05,6.661759489896187e-20,-0.0001305258396978205,-0.00017448207579475968,-0.00014184473372250497,-6.983534501790888e-05,-1.1287741231045255e-19,0.0,0.0,0.0,0.0,0.0,0.0,0.0,0.0,0.0,0.0,0.0,0.0,0.0,0.0,0.0,0.0,0.0,0.0,0.0,0.0,0.0,0.0,0.0,0.0,0.0,0.0,0.0,0.0,0.0,0.0,0.0,0.0,0.0,0.0,0.0,0.0,0.0,0.0,0.0,0.0,0.0,0.0,0.0,0.0,0.0,0.0,0.0,0.0,0.0,0.0,0.0,0.0,0.0,0.0,0.0,0.0,0.0,0.0,0.0,0.0,0.0,0.0,0.0,0.0,0.0,0.0,0.0,0.0,0.0,0.0,0.0,0.0,0.0,0.0,0.0,0.0,0.0,0.0,0.0,0.0,0.0,0.0,0.0,0.0,0.0,0.0,0.0,0.0,0.0,0.0,0.0,0.0,0.0,0.0,0.0,0.0,0.0,0.0,0.0,0.0,0.0,0.0,0.0,0.0,0.0,0.0,0.0,0.0,0.0,0.0,0.0,0.0,0.0,0.0,0.0,0.0,0.0,0.0,0.0,0.0,0.0,0.0,0.0,0.0,0.0,0.0,0.0,0.0,0.0,0.0,0.0,0.0,0.0,0.0,0.0,0.0,0.0,0.0,0.0,0.0,0.0,0.0,0.0,0.0,0.0,0.0,0.0,0.0,0.0,0.0,0.0,0.0,0.0,0.0,0.0,0.0,0.0,0.0,0.0,0.0,0.0,0.0,0.0,0.0
0.5207874763803647,0.5547348254194003,0.5437958247226072,0.4954988559202108,0.4239962611559237,0.3459398604395384,0.27601072277226446,0.22375180098736103,0.19187037779777344,0.17683587769236006,0.17109224449871208,0.1659991835368643,0.154780271149584,0.13416655615337134,0.10481390092812676,0.070428944224061,0.03613495214169581,0.0067389212066393915,-0.014547864382375049,-0.026619688156024383,-0.03023435605059012,-0.027230217304674797,-0.019837799678501026,-0.009922582406415163,0.001252724891434269,0.012939900001104369,0.024629506627485274,0.035699002706755995,0.0453040912869924,0.05242986810697623,0.05611415605279884,0.055702769305036,0.05110516037911035,0.04281547265910829,0.031832269478695704,0.0194702779589783,0.00714247021851085,-0.0037811920376051174,-0.012094990266968496,-0.01680548643174688,-0.017173600134842242,-0.012777542246690577,-0.003601452240387449,0.009877848398818275,0.02665375480275961,0.04524707169607107,0.0638759121231353,0.08071807208233917,0.09421049030109076,0.10331273104436507,0.10766774352698436,0.10735291140760526,0.10378616101213642,0.09815173112021484,0.09165019234532076,0.08529951128806243,0.07958914970625246,0.07505150091418798,0.07133913247166489,0.0676475981574458,0.06293127904914052,0.05608117048801314,0.04652268032332118,0.03397590743272183,0.01873551406211876,0.0016839763542364566,-0.015854814394410142,-0.03218951519930522,-0.0457148268773012,-0.055112971157585,-0.0595633263406676,-0.05884575117691609,-0.05341151345554572,-0.04421334468073778,-0.032564799170808414,-0.01992975149031827,-0.007714534869971134,0.002939471173650043,0.011244154456130473,0.01682592202062911,0.019703823360031056,0.020181751235198334,0.018847211960887112,0.016307736135359907,0.01314535827478406,0.009851911680015528,0.006785547042288104,0.004201741161361919,0.0022137251843981957,0.0008334687302686693,5.809829105750119e-20,-0.00038397659946127365,-0.0004614558162991957,-0.0003564664264438437,-0.00017573738200293918,-5.614011099954721e-20,9.723101622257052e-05,0.00013940896105414115,0.00012620777638543644,7.170317536504898e-05,5.795180069053513e-20,-0.0001175166071634343,-0.00015769972842612126,-0.0001294163389525024,-6.47604805039112e-05,-8.619000502612758e-20,-3.7393212472358432e-06,-1.3527121294355901e-06,2.6765485840264712e-06,3.741008808379133e-06,2.4964666289801184e-21,-3.911419990533353e-05,-4.9678212187033915e-05,-3.776753091349824e-05,-1.6945935608652247e-05,-2.250794519003164e-20,5.873569845861595e-06,3.509753905102717e-06,-1.4508264570355198e-06,-3.3836715680506997e-06,-1.5848361299835393e-20,3.744782207735676e-05,4.7919348695273786e-05,3.672626858822589e-05,1.663126328895578e-05,3.274393028067573e-20,3.4328403792676773e-06,6.998857400586066e-06,8.13886724173428e-06,5.563227338474259e-06,8.320670681583096e-21,-1.630293812332745e-05,-2.1793159821052632e-05,-1.771669059821012e-05,-8.72257409938121e-06,-1.409861428724719e-20,0.0,0.0,0.0,0.0,0.0,0.0,0.0,0.0,0.0,0.0,0.0,0.0,0.0,0.0,0.0,0.0,0.0,0.0,0.0,0.0,0.0,0.0,0.0,0.0,0.0,0.0,0.0,0.0,0.0,0.0,0.0,0.0,0.0,0.0,0.0,0.0,0.0,0.0,0.0,0.0,0.0,0.0,0.0,0.0,0.0,0.0,0.0,0.0,0.0,0.0,0.0,0.0,0.0,0.0,0.0,0.0,0.0,0.0,0.0,0.0,0.0,0.0,0.0,0.0,0.0,0.0,0.0,0.0,0.0,0.0,0.0,0.0,0.0,0.0,0.0,0.0,0.0,0.0,0.0,0.0,0.0,0.0,0.0,0.0,0.0,0.0,0.0,0.0,0.0,0.0,0.0,0.0,0.0,0.0,0.0,0.0,0.0,0.0,0.0,0.0,0.0,0.0,0.0,0.0,0.0,0.0,0.0,0.0,0.0,0.0,0.0,0.0,0.0,0.0,0.0,0.0,0.0,0.0,0.0,0.0,0.0,0.0,0.0,0.0,0.0,0.0,0.0,0.0,0.0,0.0,0.0,0.0,0.0,0.0,0.0,0.0,0.0,0.0,0.0,0.0,0.0,0.0,0.0,0.0,0.0,0.0,0.0,0.0,0.0,0.0,0.0,0.0,0.0,0.0,0.0,0.0,0.0,0.0,0.0,0.0,0.0,0.0,0.0,0.0
0.9090629905857508,0.9613140950886545,0.9296723372946378,0.8265366609904541,0.6768779050689914,0.5112790324132316,0.3579366219427751,0.23750330574209463,0.15915539772462017,0.12106244105548486,0.11349507424071242,0.12316445067296572,0.1383542833781846,0.151377184132036,0.15960235824797406,0.16443406332960495,0.1690046423189372,0.17636278299567795,0.18759524982963008,0.20152345300282612,0.2153730524184974,0.2259688426331727,0.23120822760469326,0.23064970901101656,0.2255803015706086,0.2184249010831787,0.21184332218027643,0.20802936622660387,0.2082355436223334,0.21280248009085317,0.22147674974786,0.23382137370048667,0.24941048738916324,0.2678843810846366,0.2887584290258714,0.3112021773097775,0.33396012320873236,0.35547232668647344,0.3742679834001028,0.38942394474989983,0.40092760487169504,0.40976799430510763,0.41768037378573303,0.4265996402399758,0.43799022288824746,0.4522720494200997,0.46853568014357566,0.4846467985188071,0.49771597039828896,0.5047974385241928,0.5036164939685044,0.4926582002004169,0.4732100727819,0.44690577468585996,0.4162343360111393,0.38406159858502853,0.35280398864182655,0.3249234895909239,0.30127055015741144,0.2815321066914727,0.2645067032015526,0.24850334074501745,0.2320713409133114,0.21412953647072863,0.19432369818261422,0.17306176357583816,0.15125344788211745,0.1303134001314228,0.11136699024512363,0.09510293430402526,0.0816168239501237,0.07031036987119954,0.060482877179932254,0.05104958101142055,0.04107045532316513,0.030042221541151732,0.01794784904757537,0.00567582610885951,-0.005723228063896822,-0.0151067948229742,-0.02153238086782023,-0.024615923725914673,-0.024225477001371468,-0.021035232201476663,-0.01613939940220039,-0.010766190433910116,-0.0061444993664831315,-0.0026701751975262682,-0.0006170358205292463,0.0001363189630920309,4.555510527002823e-19,-0.0007057550353282266,-0.0011373696333546249,-0.0010905437454600264,-0.0006325968935499652,-6.472785365949033e-19,0.00030572837660519344,0.0005282141121716788,0.0005494564781568286,0.00034657065210672716,3.59801590818984e-19,-0.0006049408110791149,-0.0008474233151248555,-0.0007287529652993068,-0.00038447853638290896,-5.235331802447491e-19,7.57805387652831e-05,0.0001405480834913576,0.00015415731265257699,0.00010127736317580617,1.4581471318215917e-19,-0.00024293623438912312,-0.00032939277158163275,-0.0002725102127220064,-0.0001371845988242683,-2.221552225723167e-19,-3.539475200752711e-06,2.034579882158636e-06,8.411656184819017e-06,8.363645736842742e-06,2.429779473049762e-20,-5.45965795663082e-05,-7.06446177370378e-05,-5.4993799730602915e-05,-2.5490434138472067e-05,-4.7607356991623016e-20,-3.751415405741203e-06,-7.648366534521347e-06,-8.89417175943318e-06,-6.079506891504574e-06,-9.092846952484566e-21,1.781588611112274e-05,2.3815612280206846e-05,1.9360837879404782e-05,9.532047878415621e-06,1.5406996246083878e-20,0.0,0.0,0.0,0.0,0.0,0.0,0.0,0.0,0.0,0.0,0.0,0.0,0.0,0.0,0.0,0.0,0.0,0.0,0.0,0.0,0.0,0.0,0.0,0.0,0.0,0.0,0.0,0.0,0.0,0.0,0.0,0.0,0.0,0.0,0.0,0.0,0.0,0.0,0.0,0.0,0.0,0.0,0.0,0.0,0.0,0.0,0.0,0.0,0.0,0.0,0.0,0.0,0.0,0.0,0.0,0.0,0.0,0.0,0.0,0.0,0.0,0.0,0.0,0.0,0.0,0.0,0.0,0.0,0.0,0.0,0.0,0.0,0.0,0.0,0.0,0.0,0.0,0.0,0.0,0.0,0.0,0.0,0.0,0.0,0.0,0.0,0.0,0.0,0.0,0.0,0.0,0.0,0.0,0.0,0.0,0.0,0.0,0.0,0.0,0.0,0.0,0.0,0.0,0.0,0.0,0.0,0.0,0.0,0.0,0.0,0.0,0.0,0.0,0.0,0.0,0.0,0.0,0.0,0.0,0.0,0.0,0.0,0.0,0.0,0.0,0.0,0.0,0.0,0.0,0.0,0.0,0.0,0.0,0.0,0.0,0.0,0.0,0.0,0.0,0.0,0.0,0.0,0.0,0.0,0.0,0.0,0.0,0.0,0.0,0.0,0.0,0.0,0.0,0.0,0.0,0.0,0.0,0.0,0.0,0.0,0.0,0.0,0.0,0.0
0.5036164939685044,0.5415626646541569,0.5388423770243184,0.5025849002297345,0.44592284724271525,0.38406159858502853,0.3299877323418091,0.29189182737751446,0.27149485020842207,0.26483855612553747,0.2645067032015526,0.26229190850311257,0.2524699088294583,0.23283117036822695,0.20494591340132004,0.17306176357583816,0.14212819017159528,0.11653034753013991,0.0984494308103484,0.08758613026796085,0.0816168239501237,0.07707157177772761,0.07089160811323832,0.06105325369542091,0.04709181299727687,0.030042221541151742,0.011873367760404131,-0.004701047352665996,-0.017087679025177143,-0.02316324588856817,-0.02153238086782023,-0.0117786123789206,0.00592033441907161,0.03051751292900665,0.060241618228868005,0.09272687404649937,0.12516962087142341,0.1548535553288885,0.1793723187343052,0.197013150005137,0.20698612896081894,0.20947981659112272,0.20553368412496792,0.19677111505434183,0.18507390637346252,0.17228672488062546,0.160016862169828,0.14955182394294414,0.14187248909252503,0.13770974326630211,0.13758732080043196,0.1415536923102725,0.1501122798286258,0.16282924314182312,0.17877433387320846,0.1965842234085126,0.21439326958585,0.2307766228108947,0.24398158967494737,0.2525514898194708,0.2555811260165932,0.25274025237655656,0.24481799134483528,0.23291989688164053,0.21850856326933304,0.20316139559196292,0.18824093217192722,0.17504865178590812,0.16427913040255532,0.1561968825472557,0.15074166516733262,0.14762173265579306,0.14658873618908788,0.1472844337608257,0.1493167663568151,0.152217614769964,0.1553697403503109,0.15803160300291225,0.15928034324195361,0.15813186607122298,0.1536935643725954,0.14535412543342563,0.13290113210034063,0.11667483006141872,0.09755198665727063,0.0768467821862977,0.05607711704750602,0.036909493647961165,0.02067502914519702,0.00826073817530226,6.121757415197218e-20,-0.00444477880118945,-0.005584924052162406,-0.004470578779640001,-0.002264745053352827,-2.352433385021988e-19,0.001517000008162333,0.0021317677959606244,0.001875406318169251,0.0010307480877351778,1.708009357915974e-19,-0.0009069816855424083,-0.0013121399021151546,-0.0011782738457590822,-0.0006563796970365395,-2.808480332063442e-19,0.00043734910277689297,0.0006762118100061693,0.0006467326052666885,0.00038227545106966454,2.1068771250322094e-19,-0.00048001585786550615,-0.0006881392288333502,-0.0006086293470371578,-0.0003320890132817917,-3.1560812443704486e-19,0.0001530219589577493,0.0002459498273357434,0.00024285866435507474,0.00014734532619919613,1.362328475026769e-19,-0.00021703775342381488,-0.00030681651083905943,-0.0002668172477340243,-0.00014267743604147722,-1.8488835878839877e-19,2.6776806925810244e-05,5.459241695262001e-05,6.348471022506798e-05,4.339422981225046e-05,6.490281158412918e-20,-0.00012716601362772865,-0.00016999078557685228,-0.0001381935514327038,-6.803773457274162e-05,-1.0997186905952877e-19,0.0,0.0,0.0,0.0,0.0,0.0,0.0,0.0,0.0,0.0,0.0,0.0,0.0,0.0,0.0,0.0,0.0,0.0,0.0,0.0,0.0,0.0,0.0,0.0,0.0,0.0,0.0,0.0,0.0,0.0,0.0,0.0,0.0,0.0,0.0,0.0,0.0,0.0,0.0,0.0,0.0,0.0,0.0,0.0,0.0,0.0,0.0,0.0,0.0,0.0,0.0,0.0,0.0,0.0,0.0,0.0,0.0,0.0,0.0,0.0,0.0,0.0,0.0,0.0,0.0,0.0,0.0,0.0,0.0,0.0,0.0,0.0,0.0,0.0,0.0,0.0,0.0,0.0,0.0,0.0,0.0,0.0,0.0,0.0,0.0,0.0,0.0,0.0,0.0,0.0,0.0,0.0,0.0,0.0,0.0,0.0,0.0,0.0,0.0,0.0,0.0,0.0,0.0,0.0,0.0,0.0,0.0,0.0,0.0,0.0,0.0,0.0,0.0,0.0,0.0,0.0,0.0,0.0,0.0,0.0,0.0,0.0,0.0,0.0,0.0,0.0,0.0,0.0,0.0,0.0,0.0,0.0,0.0,0.0,0.0,0.0,0.0,0.0,0.0,0.0,0.0,0.0,0.0,0.0,0.0,0.0,0.0,0.0,0.0,0.0,0.0,0.0,0.0,0.0,0.0,0.0,0.0,0.0,0.0,0.0,0.0,0.0,0.0,0.0
0.8788496935434875,0.9393300522901792,0.9256565851239452,0.8505010082881985,0.7375484761335599,0.6145132341603711,0.5053169666386136,0.42549237436379694,0.37876349227737643,0.3582315654504167,0.35017677477725445,0.3390598875169692,0.3129174307560396,0.266141647187483,0.20039586584507227,0.12322576558166598,0.04520252342707105,-0.02294812065228958,-0.07295239518141186,-0.10019335888369574,-0.10372524361392262,-0.08539639172667036,-0.048784134256605084,0.001835774344812292,0.061991848617931146,0.12711101741590947,0.19241360079864284,0.2528667124783564,0.30342765354963935,0.3395670693093797,0.35794727844574153,0.35700815210312914,0.3373604929057616,0.301695067209397,0.2544087964969258,0.20101654207947522,0.1475205823278582,0.099915371396992,0.06376733686846593,0.043903479137397124,0.04408580571320885,0.0666156625915478,0.11188193373017144,0.17795606476302964,0.2603950671136304,0.35240975489208004,0.44548345438544573,0.5304075481234583,0.598574102987153,0.6432751870358258,0.6607337040709512,0.650188488580931,0.6155596889608357,0.5625212090086591,0.49829452198071844,0.4304554029580664,0.3654214253956821,0.308686635189598,0.26265758681092355,0.22720632941670343,0.20017710184518164,0.17805115116128295,0.1576090008800917,0.13590686395324877,0.11125080478229572,0.08349950438715975,0.05390637715241078,0.02493104182283345,-0.0007149420907799043,-0.020614685841871053,-0.033178093070862134,-0.03789187436855743,-0.03555647198754503,-0.02780119698120204,-0.016798933404871774,-0.004821198089208144,0.0061067551536008145,0.014747906504331422,0.020447416984844514,0.023210927752248946,0.023535696892445848,0.0219829937289483,0.019642476532462795,0.017032433964991694,0.014393193412121844,0.011767848446222924,0.009025378965029841,0.006370043051230335,0.003879141138589756,0.0016969855562915,3.640135770402682e-19,-0.0010913826766101571,-0.0014897608085545665,-0.0012877856336027454,-0.0006998586365871178,-4.260452157661847e-19,0.00037827838749351743,0.0006100337577755391,0.0006073713719091561,0.0003723388689396318,3.607636425737299e-19,-0.0006997118524082818,-0.0009570854667832532,-0.0008015991949987,-0.0004103780749843532,-5.60481514175749e-19,4.86273896332788e-05,9.031950805562356e-05,9.944671816667538e-05,6.56495852856953e-05,7.370040346141535e-20,-0.00017295737439119402,-0.0002322103178098602,-0.0001899437858082945,-9.434221653411998e-05,-1.3536055315729474e-19,1.3630813534432193e-05,1.767891492643686e-05,1.3950400367826037e-05,6.6784803489499804e-06,-2.8967447084974366e-21,1.3315119709698768e-05,1.5243574993862165e-05,9.728980813002877e-06,3.0574435895739353e-06,1.1944116786517251e-20,4.100437218214356e-06,8.359950419966895e-06,9.721662082998544e-06,6.645128206320463e-06,9.93882149293141e-21,-1.947342924852175e-05,-2.6031354144057635e-05,-2.1162119261713744e-05,-1.0418884516665265e-05,-1.684042261266157e-20,0.0,0.0,0.0,0.0,0.0,0.0,0.0,0.0,0.0,0.0,0.0,0.0,0.0,0.0,0.0,0.0,0.0,0.0,0.0,0.0,0.0,0.0,0.0,0.0,0.0,0.0,0.0,0.0,0.0,0.0,0.0,0.0,0.0,0.0,0.0,0.0,0.0,0.0,0.0,0.0,0.0,0.0,0.0,0.0,0.0,0.0,0.0,0.0,0.0,0.0,0.0,0.0,0.0,0.0,0.0,0.0,0.0,0.0,0.0,0.0,0.0,0.0,0.0,0.0,0.0,0.0,0.0,0.0,0.0,0.0,0.0,0.0,0.0,0.0,0.0,0.0,0.0,0.0,0.0,0.0,0.0,0.0,0.0,0.0,0.0,0.0,0.0,0.0,0.0,0.0,0.0,0.0,0.0,0.0,0.0,0.0,0.0,0.0,0.0,0.0,0.0,0.0,0.0,0.0,0.0,0.0,0.0,0.0,0.0,0.0,0.0,0.0,0.0,0.0,0.0,0.0,0.0,0.0,0.0,0.0,0.0,0.0,0.0,0.0,0.0,0.0,0.0,0.0,0.0,0.0,0.0,0.0,0.0,0.0,0.0,0.0,0.0,0.0,0.0,0.0,0.0,0.0,0.0,0.0,0.0,0.0,0.0,0.0,0.0,0.0,0.0,0.0,0.0,0.0,0.0,0.0,0.0,0.0,0.0,0.0,0.0,0.0,0.0,0.0
0.6607337040709512,0.7030969017539973,0.6880177452520755,0.6250053592193112,0.5320601177690245,0.4304554029580664,0.33904614197361205,0.27025825989436303,0.22785319398436046,0.20763050917844048,0.20017710184518164,0.1944650733170182,0.18188668787985254,0.15814223041740505,0.12385757692185405,0.08349950438715976,0.04310673132227237,0.008698118316269708,-0.015844032207809187,-0.02936309954711957,-0.03317809307086215,-0.030412854699320487,-0.024124807051961777,-0.016917751227881053,-0.010326488331492682,-0.00482119808920814,-0.0004061665785262153,0.003816807058879034,0.008702890292394454,0.01504913668808822,0.023535696892445845,0.03439519822921574,0.048309612135572624,0.06556928666326917,0.08604038553829767,0.10895776600815921,0.13267944100738308,0.1552658959868675,0.1744227067613942,0.18799642105537295,0.19437983512387255,0.1928145958496757,0.18352458631216909,0.16766727831977962,0.14713837661427678,0.12429167781940612,0.10163683668321341,0.08155980589908626,0.06608743191671558,0.05670142970467875,0.05420352051493966,0.058300870587534186,0.06891607964422927,0.08458398568513442,0.10332981309078726,0.12304686278197811,0.14164867499731715,0.15821270693155326,0.172032301563825,0.1830697122390435,0.19189020504901655,0.19936018224399352,0.20675232254839482,0.21491845826045555,0.22424694612998033,0.2345795238158725,0.24524673093123975,0.255457100984702,0.26439421215993825,0.2716139089191272,0.27726884258272844,0.2821658977535994,0.2875203099371296,0.2946690168550694,0.3045637049908279,0.31732325941519496,0.33195543667481836,0.34633271993717357,0.3574880328297257,0.36214345336770437,0.3573776762476614,0.3412618634838511,0.31338201366544255,0.2749694364841047,0.22878591876327994,0.1786888381238307,0.1289362473017223,0.08369622833216128,0.04613757598814333,0.01811058549412622,-1.6840013264871747e-19,-0.009250590289299015,-0.011408547161512218,-0.008973938450170488,-0.004473507564629298,-5.965743310513652e-20,0.0030212872110119745,0.004169709573474007,0.0036047307055788735,0.0019485733948187266,7.987615911633611e-20,-0.0015625802094409768,-0.002262634789589291,-0.0020379829290861906,-0.001140934494046392,-2.339838785287532e-19,0.0008864344207312391,0.001337740584373687,0.0012515413045660782,0.000725338280819015,2.8538707322039157e-19,-0.0007392207363228023,-0.0010882689235589909,-0.0009908394896020805,-0.0005578629400771738,-4.0923229185717356e-19,0.00034305514258099203,0.0005458807735242328,0.0005344552609746435,0.0003219362150152247,2.858465732992783e-19,-0.00044406665089893177,-0.0006324169426336799,-0.0005545616426642515,-0.00029933793172512305,-3.775050310942173e-19,6.22630692153083e-05,0.00012694162693743587,0.0001476185311343872,0.00010090291728327087,1.5091598714989313e-19,-0.00029569419274955334,-0.000395272971779697,-0.0003213360981316239,-0.00015820550182449366,-2.557133161531011e-19,0.0,0.0,0.0,0.0,0.0,0.0,0.0,0.0,0.0,0.0,0.0,0.0,0.0,0.0,0.0,0.0,0.0,0.0,0.0,0.0,0.0,0.0,0.0,0.0,0.0,0.0,0.0,0.0,0.0,0.0,0.0,0.0,0.0,0.0,0.0,0.0,0.0,0.0,0.0,0.0,0.0,0.0,0.0,0.0,0.0,0.0,0.0,0.0,0.0,0.0,0.0,0.0,0.0,0.0,0.0,0.0,0.0,0.0,0.0,0.0,0.0,0.0,0.0,0.0,0.0,0.0,0.0,0.0,0.0,0.0,0.0,0.0,0.0,0.0,0.0,0.0,0.0,0.0,0.0,0.0,0.0,0.0,0.0,0.0,0.0,0.0,0.0,0.0,0.0,0.0,0.0,0.0,0.0,0.0,0.0,0.0,0.0,0.0,0.0,0.0,0.0,0.0,0.0,0.0,0.0,0.0,0.0,0.0,0.0,0.0,0.0,0.0,0.0,0.0,0.0,0.0,0.0,0.0,0.0,0.0,0.0,0.0,0.0,0.0,0.0,0.0,0.0,0.0,0.0,0.0,0.0,0.0,0.0,0.0,0.0,0.0,0.0,0.0,0.0,0.0,0.0,0.0,0.0,0.0,0.0,0.0,0.0,0.0,0.0,0.0,0.0,0.0,0.0,0.0,0.0,0.0,0.0,0.0,0.0,0.0,0.0,0.0,0.0,0.0
0.4804192955573808,0.5099629661345282,0.4963225889244714,0.4460115470740777,0.3719892123716207,0.29001616118610746,0.2146066420615856,0.15609975042409352,0.11891219000084412,0.1018131497671672,0.09961302681483411,0.1053631538073584,0.11327703670697996,0.11973389404370294,0.12375159979838175,0.12633235442756954,0.12912683535731717,0.13358362393816012,0.13991128090833588,0.14703307542542984,0.15305168204030498,0.15598869715374422,0.15461262561994177,0.1487885184239716,0.13949185843480583,0.1284495612927289,0.11761238430332614,0.10871484023838748,0.1030058206820055,0.10124310571481278,0.10384744054515277,0.1110969869693959,0.12314831142078914,0.13997868409285327,0.16114729406757022,0.1855371975302257,0.21120718902833785,0.2354134608868842,0.2549122424992612,0.26643058217393273,0.26722695451529865,0.2556069383856178,0.23128171290526897,0.19550333065951211,0.15096586989456515,0.10150728378263185,0.05167269432995032,0.00620574787539247,-0.030472303959098612,-0.05474644113704471,-0.06421238695003499,-0.05820937504886991,-0.03700008790279443,-0.0029555395575157537,0.04018204995374904,0.08778462296065749,0.13476700415523785,0.17674726929657625,0.2098213522244389,0.2312592805301341,0.23978163287134993,0.2355800001439163,0.22037256237121602,0.1968204403433554,0.16817574064833904,0.13779239533691054,0.10859886508723345,0.08298257308330297,0.06224795024161618,0.04670330478424411,0.03580315780247113,0.02833445620565985,0.023046108131850214,0.018578578822788298,0.013884002713743132,0.008408318049552626,0.0020747113885831517,-0.00454384356471701,-0.010736371228088293,-0.015749861685527663,-0.018986521703365882,-0.02019998200616538,-0.01935060048599414,-0.016844159309310325,-0.013321029125307363,-0.009493260851682941,-0.006080559821307287,-0.003327792397479082,-0.001434692950946355,-0.0003864072187150223,1.357397146670025e-19,-0.00014377476533210904,-0.00029930954239964667,-0.00032145289781190995,-0.0001975318423236333,-2.5711133072369535e-19,0.00012325090305526012,0.0002000682493217504,0.00019657746656856305,0.00011776147644152921,9.828139336560433e-20,-7.491061927961421e-05,-0.00012794352802876778,-0.0001323190711129147,-8.325553697939244e-05,-8.77695464132737e-20,3.813537754470623e-05,8.098388405791148e-05,9.614242139483083e-05,6.649629801355362e-05,1.1426272955140605e-19,-0.00019790990453187417,-0.00026472731635503166,-0.00021528900478444578,-0.00010599363649961094,-1.8244994666735636e-19,-9.421517301320164e-06,-1.1051461570712545e-05,-7.5207109715175625e-06,-2.835795665235557e-06,6.153469758136663e-21,-1.8219503426889893e-05,-2.229353614728218e-05,-1.5975001392598407e-05,-6.467457637963214e-06,-1.610239181754831e-20,-3.3078706185200876e-06,-6.744069691801221e-06,-7.842578402294305e-06,-5.360702573946211e-06,-8.017763435846626e-21,1.5709442926446325e-05,2.0999797570591138e-05,1.7071728892833748e-05,8.405035886743628e-06,1.3585365705987592e-20,0.0,0.0,0.0,0.0,0.0,0.0,0.0,0.0,0.0,0.0,0.0,0.0,0.0,0.0,0.0,0.0,0.0,0.0,0.0,0.0,0.0,0.0,0.0,0.0,0.0,0.0,0.0,0.0,0.0,0.0,0.0,0.0,0.0,0.0,0.0,0.0,0.0,0.0,0.0,0.0,0.0,0.0,0.0,0.0,0.0,0.0,0.0,0.0,0.0,0.0,0.0,0.0,0.0,0.0,0.0,0.0,0.0,0.0,0.0,0.0,0.0,0.0,0.0,0.0,0.0,0.0,0.0,0.0,0.0,0.0,0.0,0.0,0.0,0.0,0.0,0.0,0.0,0.0,0.0,0.0,0.0,0.0,0.0,0.0,0.0,0.0,0.0,0.0,0.0,0.0,0.0,0.0,0.0,0.0,0.0,0.0,0.0,0.0,0.0,0.0,0.0,0.0,0.0,0.0,0.0,0.0,0.0,0.0,0.0,0.0,0.0,0.0,0.0,0.0,0.0,0.0,0.0,0.0,0.0,0.0,0.0,0.0,0.0,0.0,0.0,0.0,0.0,0.0,0.0,0.0,0.0,0.0,0.0,0.0,0.0,0.0,0.0,0.0,0.0,0.0,0.0,0.0,0.0,0.0,0.0,0.0,0.0,0.0,0.0,0.0,0.0,0.0,0.0,0.0,0.0,0.0,0.0,0.0,0.0,0.0,0.0,0.0,0.0,0.0
0.6124272943342506,0.6569960412886631,0.6515615675714995,0.6051109985318327,0.5340423520785306,0.45724247044921534,0.39071808603199315,0.34414112475383724,0.3187695374122616,0.3083686801084042,0.30205764656418005,0.2879940495359949,0.25740124793843966,0.20662222258960472,0.13784688743707535,0.05811560646771989,-0.02296531305861868,-0.09503224081847267,-0.14946139435212782,-0.1805299160913658,-0.18582643362874032,-0.1662302492663144,-0.12448933435493739,-0.06509451131495889,0.006427000759815855,0.08391198758734034,0.1607497859148803,0.23081729138984405,0.28867829836658543,0.33031087562363065,0.35365040880342097,0.35879834631654933,0.3481450010673866,0.3257078157598368,0.2963819899261049,0.2650488761324449,0.2357665938124738,0.2113947138454982,0.1933775802366782,0.18193952642738445,0.17644734346146884,0.17581654011468212,0.1788420784578676,0.1843929286341617,0.19147398641576396,0.19920422525707934,0.2067739547597623,0.2134289336040486,0.21849810561577143,0.2214517857060366,0.22196110705268984,0.21961702627710258,0.21513921965110547,0.2087670163016227,0.20084691637865074,0.19188924231504959,0.1823689020876673,0.17362524395855672,0.16663373692469474,0.16238340221345154,0.1618173775774093,0.16556471975465223,0.1743741575469945,0.18815237690320172,0.20612302191516707,0.2268094720122745,0.24810230191632243,0.2675925955405351,0.2827433740788432,0.29132729074593694,0.2918015664471397,0.2836860523061447,0.26731772716595187,0.24425558987037466,0.21682876843541132,0.1877133066022275,0.1594255755580829,0.13408232970962075,0.11291307339791827,0.09625062824155288,0.0836250467573153,0.07381397755705353,0.06585271092385278,0.05844433071239515,0.050591188956380116,0.04181252337865765,0.03207462620772317,0.02222331611979015,0.013087431363203554,0.005482168706880357,8.122119213491889e-20,-0.0032206879263252794,-0.004189581177825686,-0.0034591808836779295,-0.0018015934749459148,-2.5342894771082004e-19,0.0012362804944760475,0.0017821337411622826,0.0016048015301506208,0.0009008884994306764,2.0889672956234858e-19,-0.0008718376454142267,-0.0012632591748798602,-0.0011341293474991022,-0.0006306793193505331,-3.4752066913150025e-19,0.00041494631667880234,0.0006386339332639709,0.0006077871767769104,0.00035744645899486033,2.2330763078912964e-19,-0.0004060086984492018,-0.0005908016458144765,-0.0005308035232945913,-0.0002944261998200719,-2.931445821692635e-19,0.00011980838759028962,0.00020833733754557922,0.00021879288428430376,0.00013940152039347814,1.627131395897613e-19,-0.0002916648882845527,-0.0003989670204637481,-0.0003338019727356513,-0.00017049864115927676,-2.507033297528832e-19,1.4569326570851201e-05,2.9703868466412673e-05,3.454218712811981e-05,2.3610907274229214e-05,3.531377956884567e-20,-6.919134108816572e-05,-9.24924049371045e-05,-7.519145155683503e-05,-3.701949888489821e-05,-5.983596469789616e-20,0.0,0.0,0.0,0.0,0.0,0.0,0.0,0.0,0.0,0.0,0.0,0.0,0.0,0.0,0.0,0.0,0.0,0.0,0.0,0.0,0.0,0.0,0.0,0.0,0.0,0.0,0.0,0.0,0.0,0.0,0.0,0.0,0.0,0.0,0.0,0.0,0.0,0.0,0.0,0.0,0.0,0.0,0.0,0.0,0.0,0.0,0.0,0.0,0.0,0.0,0.0,0.0,0.0,0.0,0.0,0.0,0.0,0.0,0.0,0.0,0.0,0.0,0.0,0.0,0.0,0.0,0.0,0.0,0.0,0.0,0.0,0.0,0.0,0.0,0.0,0.0,0.0,0.0,0.0,0.0,0.0,0.0,0.0,0.0,0.0,0.0,0.0,0.0,0.0,0.0,0.0,0.0,0.0,0.0,0.0,0.0,0.0,0.0,0.0,0.0,0.0,0.0,0.0,0.0,0.0,0.0,0.0,0.0,0.0,0.0,0.0,0.0,0.0,0.0,0.0,0.0,0.0,0.0,0.0,0.0,0.0,0.0,0.0,0.0,0.0,0.0,0.0,0.0,0.0,0.0,0.0,0.0,0.0,0.0,0.0,0.0,0.0,0.0,0.0,0.0,0.0,0.0,0.0,0.0,0.0,0.0,0.0,0.0,0.0,0.0,0.0,0.0,0.0,0.0,0.0,0.0,0.0,0.0,0.0,0.0,0.0,0.0,0.0,0.0
0.5266250016745633,0.572893400678511,0.5783767048566882,0.5493916917151115,0.49848464600243514,0.4407213318898883,0.3895864342457293,0.35440579763585656,0.3386582535537467,0.34053712879864595,0.3548176621052134,0.37518542048083614,0.39673188651987656,0.4168765463293812,0.4354417607598095,0.453718529328082,0.47307922654358353,0.4940460971032544,0.5156959106516776,0.5359905620967713,0.5526193965509505,0.5639710639400456,0.569809637627284,0.5713691140665521,0.5708612856613222,0.5706192676584875,0.5722344596641609,0.5760500213628897,0.5811570229217984,0.5858953347048095,0.5886191387660245,0.5884037300684322,0.5854469232853584,0.580956538470996,0.576628898668794,0.5739006825580281,0.5732569945339657,0.5738649842992104,0.5736324962292358,0.5696982572567176,0.5591822263500316,0.5399660163134545,0.5112782699324075,0.47393514997285463,0.4301967468798355,0.38330721306782267,0.33685877638032674,0.29414311746763144,0.257631322756932,0.22867159937356343,0.20743219978561378,0.19279183062115265,0.1836963874326064,0.17818800264616827,0.17431735827679024,0.17050621834174462,0.16551849843684577,0.15934024037004094,0.15189672185895153,0.14327715468576838,0.1335802368978755,0.12263365323050478,0.11068257068898865,0.09754912369393019,0.08312971394311029,0.06758772521452246,0.0512390787870066,0.03543925966491644,0.021265585357027827,0.009734835210224125,0.0015952135311694212,-0.0031362593618056017,-0.0041725910330634814,-0.002347260393971465,0.001113600364102507,0.004919360111105769,0.007731774702408523,0.009496267315872898,0.010021354853944247,0.009468346888804704,0.008243506691042119,0.006529838060619693,0.005284077664544726,0.004607015703038439,0.004322110633577631,0.0041217533455210585,0.003434620313830187,0.00267620287874669,0.001805275453994108,0.0008699852423130884,3.554716847493305e-19,-0.0009312384713139602,-0.001269122807295118,-0.0010735477837805784,-0.000561793682062277,-5.497217210633437e-19,0.0002037465263458697,0.00031871192294146864,0.00030870303310141816,0.00018473892962938684,1.4891277456968167e-19,-0.0002786532320435323,-0.00038958674618171953,-0.0003349046276296477,-0.00017689942357694698,-2.1586965658524434e-19,3.898935130113284e-05,7.072348810195085e-05,7.657661396834952e-05,4.99239546934398e-05,5.885613220046659e-20,-0.00012102997829864717,-0.00016357622925810864,-0.000134883808472894,-6.767036723665041e-05,-9.94468457436455e-20,7.076789480560602e-06,1.0886507657728e-05,1.0345218266560069e-05,6.070619471623582e-06,4.566355198072965e-21,-6.271239681701852e-06,-9.278265468032358e-06,-8.475556174045305e-06,-4.77963978175549e-06,-5.272926239578224e-21,1.4362005849674873e-06,2.9281184040867262e-06,3.4050653692337166e-06,2.32749253535882e-06,3.481126641478384e-21,-6.820675208442574e-06,-9.117624306773854e-06,-7.412148130891381e-06,-3.649271343815292e-06,-5.8984502189102576e-21,0.0,0.0,0.0,0.0,0.0,0.0,0.0,0.0,0.0,0.0,0.0,0.0,0.0,0.0,0.0,0.0,0.0,0.0,0.0,0.0,0.0,0.0,0.0,0.0,0.0,0.0,0.0,0.0,0.0,0.0,0.0,0.0,0.0,0.0,0.0,0.0,0.0,0.0,0.0,0.0,0.0,0.0,0.0,0.0,0.0,0.0,0.0,0.0,0.0,0.0,0.0,0.0,0.0,0.0,0.0,0.0,0.0,0.0,0.0,0.0,0.0,0.0,0.0,0.0,0.0,0.0,0.0,0.0,0.0,0.0,0.0,0.0,0.0,0.0,0.0,0.0,0.0,0.0,0.0,0.0,0.0,0.0,0.0,0.0,0.0,0.0,0.0,0.0,0.0,0.0,0.0,0.0,0.0,0.0,0.0,0.0,0.0,0.0,0.0,0.0,0.0,0.0,0.0,0.0,0.0,0.0,0.0,0.0,0.0,0.0,0.0,0.0,0.0,0.0,0.0,0.0,0.0,0.0,0.0,0.0,0.0,0.0,0.0,0.0,0.0,0.0,0.0,0.0,0.0,0.0,0.0,0.0,0.0,0.0,0.0,0.0,0.0,0.0,0.0,0.0,0.0,0.0,0.0,0.0,0.0,0.0,0.0,0.0,0.0,0.0,0.0,0.0,0.0,0.0,0.0,0.0,0.0,0.0,0.0,0.0,0.0,0.0,0.0,0.0
0.5886191387660245,0.6450750265616674,0.6610624278061611,0.6448494333999812,0.6106147029969969,0.5739006825580281,0.5469673379541048,0.5359180738800179,0.5395234002200634,0.55063055451263,0.5591822263500316,0.5556080205016568,0.5343761884032976,0.4950600387698575,0.44215568416000894,0.38330721306782267,0.32670847038847367,0.27902731349712867,0.2437134373127058,0.22075043864617463,0.20743219978561378,0.19978504872894706,0.194019360208254,0.1876010000252399,0.1796192174162945,0.17050621834174462,0.16131033914122686,0.15304898327485164,0.14608034409277865,0.1399507008781384,0.1335802368978755,0.12559303134866498,0.11503038342410823,0.10150087853970792,0.08535387268774666,0.06758772521452246,0.04956403312681741,0.032828529677876875,0.018724455755039556,0.008186339680261164,0.00159521353116942,-0.0012694889570232018,-0.0011756123995170678,0.0007201636351543007,0.0031244116110450016,0.00491936011110577,0.005475300550358055,0.004884349980809051,0.004039783036365972,0.004514594522389784,0.008243506691042119,0.016766752563102148,0.031910028748109054,0.05387210708353104,0.08162046629793754,0.11300694276634884,0.14478307187634382,0.17416810125556298,0.19784665215932923,0.21300462560880928,0.21777037884165557,0.21120072838693635,0.19445601825651312,0.16923241839209405,0.13805541434181529,0.10398758717816751,0.07007473020685988,0.03972576893892317,0.015380180568121205,-0.0013571567615586256,-0.00979520448532051,-0.010231495095117192,-0.0034231868074978853,0.009056052132323834,0.0252385274324774,0.043010551099706806,0.06024858126860536,0.07533612005576318,0.08685323813298054,0.09383170882557448,0.09581630668473412,0.09280698866431124,0.08548095877002629,0.07475737235733856,0.06180481877524958,0.04790815334236706,0.034287831554118936,0.022091187143913255,0.012099948050213914,0.004725175248386605,-1.3955046908272604e-20,-0.0023726573017930613,-0.002923680429301187,-0.002302299981556845,-0.0011509735652141537,-3.9550350682308076e-20,0.0007991372912102097,0.0011067526791268623,0.0009600191031745413,0.0005205486715490846,8.001481858535656e-20,-0.00041619564377703283,-0.0006045424691731938,-0.0005459233010479893,-0.0003062195950454907,-1.1028853909592175e-19,0.0001972489439286782,0.00031241399464841126,0.00030539253347185375,0.0001840697656036158,1.0702169542752053e-19,-0.0002852736683782843,-0.0003990471248763633,-0.0003433395074583859,-0.00018162284748622593,-1.8656110354307268e-19,7.731837654055042e-05,0.00011647125338946017,0.00010854022521246973,6.25596302619016e-05,4.1109619863987646e-20,-4.944633115860637e-05,-7.650205017089722e-05,-7.303447681113688e-05,-4.30106875698623e-05,-4.101280429058145e-20,1.6693312793641057e-05,3.4034240709728876e-05,3.957791264421479e-05,2.705301844622843e-05,4.0461991527312643e-20,-7.927838625754534e-05,-0.00010597639081961974,-8.615322157425039e-05,-4.241637877661684e-05,-6.855913827957305e-20,0.0,0.0,0.0,0.0,0.0,0.0,0.0,0.0,0.0,0.0,0.0,0.0,0.0,0.0,0.0,0.0,0.0,0.0,0.0,0.0,0.0,0.0,0.0,0.0,0.0,0.0,0.0,0.0,0.0,0.0,0.0,0.0,0.0,0.0,0.0,0.0,0.0,0.0,0.0,0.0,0.0,0.0,0.0,0.0,0.0,0.0,0.0,0.0,0.0,0.0,0.0,0.0,0.0,0.0,0.0,0.0,0.0,0.0,0.0,0.0,0.0,0.0,0.0,0.0,0.0,0.0,0.0,0.0,0.0,0.0,0.0,0.0,0.0,0.0,0.0,0.0,0.0,0.0,0.0,0.0,0.0,0.0,0.0,0.0,0.0,0.0,0.0,0.0,0.0,0.0,0.0,0.0,0.0,0.0,0.0,0.0,0.0,0.0,0.0,0.0,0.0,0.0,0.0,0.0,0.0,0.0,0.0,0.0,0.0,0.0,0.0,0.0,0.0,0.0,0.0,0.0,0.0,0.0,0.0,0.0,0.0,0.0,0.0,0.0,0.0,0.0,0.0,0.0,0.0,0.0,0.0,0.0,0.0,0.0,0.0,0.0,0.0,0.0,0.0,0.0,0.0,0.0,0.0,0.0,0.0,0.0,0.0,0.0,0.0,0.0,0.0,0.0,0.0,0.0,0.0,0.0,0.0,0.0,0.0,0.0,0.0,0.0,0.0,0.0
0.618309146647296,0.6701696454234102,0.6750002433909844,0.6414379895480362,0.5850537133155906,0.523572857790328,0.4717558609915242,0.43838114940442235,0.4244563890367717,0.4243865824698009,0.42883656893336014,0.4281656176266503,0.41594059890661506,0.3903188039549291,0.3540777887036512,0.31307838179818637,0.27383882246482727,0.24167680503254999,0.21903180576205689,0.20524686005823983,0.19732019466301265,0.19118298011766488,0.18342546427396964,0.172102957046755,0.15712474870111148,0.13991996367678164,0.12259279990448826,0.10731192882421293,0.09546649394896144,0.08740919280299446,0.08251973269055062,0.07946316688129862,0.07683212673985024,0.07339370383965943,0.06840841032290733,0.06176989980767094,0.05399577795106499,0.04627311791848669,0.04025300015242874,0.037863793390198595,0.04102006692479126,0.051263956163133804,0.06939245985486324,0.09515587396989711,0.12712005872424656,0.16275877924039725,0.19878681086666683,0.23167757596374058,0.2582540498933195,0.2762179160416265,0.28449749155600323,0.2830262558014129,0.2738066317541029,0.2589588587503508,0.24089436807635206,0.22194696279221898,0.2037885209017278,0.188245658836848,0.1758578254962097,0.1664561140826127,0.15939643402843476,0.15361154658988965,0.14870112423285334,0.14399199831626042,0.13904981627204993,0.13372806634162335,0.12797072579619037,0.12233325774990682,0.11705585813092888,0.1122839311513602,0.10805969865481198,0.10424622172925485,0.10095597971605258,0.09807428140671817,0.09547505560317371,0.09304161075535879,0.09058796033010902,0.08810865303648746,0.08538893113458451,0.08213677743502991,0.0780235228559056,0.07270722824924196,0.06607255272459775,0.05808744070992106,0.04893150995428357,0.0390117614279528,0.02889463378392397,0.019341718577738108,0.011030053978785674,0.0044879123222436755,1.0348576104458817e-19,-0.002462102518747204,-0.0031479938218326427,-0.0025647646731674764,-0.0013224853474670772,-1.9183348783784892e-19,0.0008870546622631258,0.0012769654122432939,0.0011502567837032604,0.0006466270800373193,1.978318754885898e-19,-0.0006923684162494991,-0.0009855521716700768,-0.0008677945574781815,-0.0004725286486801045,-3.227549521352359e-19,0.000253196993757265,0.00039329238640856265,0.00037761877827915133,0.00022393537801220257,1.3436858127885289e-19,-0.000287155675715719,-0.00041087491298859215,-0.000362569014049055,-0.00019729491639389662,-1.9723984801017317e-19,8.31766225425858e-05,0.00013605923572087154,0.00013631450086245016,8.370439348643645e-05,8.247618659274767e-20,-0.00013627243040871016,-0.0001906359454300065,-0.00016380593134807884,-8.639104433044558e-05,-1.1642370295340034e-19,1.3593417627554531e-05,2.771419030621019e-05,3.2228419969739056e-05,2.2029358843955922e-05,3.294832821217188e-20,-6.455664172589543e-05,-8.629691163642381e-05,-7.015484195947827e-05,-3.4539791956616845e-05,-5.582792405198939e-20,0.0,0.0,0.0,0.0,0.0,0.0,0.0,0.0,0.0,0.0,0.0,0.0,0.0,0.0,0.0,0.0,0.0,0.0,0.0,0.0,0.0,0.0,0.0,0.0,0.0,0.0,0.0,0.0,0.0,0.0,0.0,0.0,0.0,0.0,0.0,0.0,0.0,0.0,0.0,0.0,0.0,0.0,0.0,0.0,0.0,0.0,0.0,0.0,0.0,0.0,0.0,0.0,0.0,0.0,0.0,0.0,0.0,0.0,0.0,0.0,0.0,0.0,0.0,0.0,0.0,0.0,0.0,0.0,0.0,0.0,0.0,0.0,0.0,0.0,0.0,0.0,0.0,0.0,0.0,0.0,0.0,0.0,0.0,0.0,0.0,0.0,0.0,0.0,0.0,0.0,0.0,0.0,0.0,0.0,0.0,0.0,0.0,0.0,0.0,0.0,0.0,0.0,0.0,0.0,0.0,0.0,0.0,0.0,0.0,0.0,0.0,0.0,0.0,0.0,0.0,0.0,0.0,0.0,0.0,0.0,0.0,0.0,0.0,0.0,0.0,0.0,0.0,0.0,0.0,0.0,0.0,0.0,0.0,0.0,0.0,0.0,0.0,0.0,0.0,0.0,0.0,0.0,0.0,0.0,0.0,0.0,0.0,0.0,0.0,0.0,0.0,0.0,0.0,0.0,0.0,0.0,0.0,0.0,0.0,0.0,0.0,0.0,0.0,0.0
0.7902346805546482,0.8512611454416462,0.8483272125089912,0.7921431572037868,0.7030017313757829,0.6047556029365573,0.5181327663994095,0.456729542003671,0.4242071305566943,0.41534130055626706,0.4192765253184662,0.42367209755455054,0.41922684376657204,0.4016806859487314,0.3723118261217332,0.3365195316356562,0.3011479143214978,0.272712964496845,0.2551505515034287,0.24937295195561235,0.25376253795284615,0.26503658083863335,0.280341627085371,0.29747844604714396,0.31530441050544217,0.333431309566126,0.35149413900113363,0.3692363548942383,0.38595470989346137,0.40078874339155557,0.4131000811794059,0.42274312065520675,0.43042553563313707,0.43733644170426117,0.444743682229149,0.45347377563975266,0.46349968325176805,0.4739932004278222,0.48350524185306526,0.4904899147990354,0.4938474701000995,0.4933087567570924,0.489525369001522,0.4838405504320042,0.4778285218261885,0.47276352724861465,0.46919241241167764,0.4667383058289391,0.4641806944287107,0.45977085288973546,0.4516795843971298,0.43804591725004827,0.41889464449430275,0.39428825069665124,0.3651416384521884,0.333179350241035,0.3004201032959957,0.2700468681799293,0.24447162223605173,0.2256049319760163,0.21467911608494025,0.21193520444113834,0.21742108858982076,0.22993965922777904,0.24756815990146674,0.2678727268165795,0.2879876118820585,0.3055493858956933,0.3180981204225767,0.32367254076372626,0.3210663375482186,0.30986158465825503,0.29096617061255153,0.26585558490099814,0.23660376591648835,0.20560198959419232,0.1750536265891892,0.1472987966904885,0.12367889614240109,0.10471472851741498,0.09013764164016606,0.07883953695093235,0.06994880650479857,0.062072433950972825,0.05401584010309177,0.04506882082008303,0.03491434557425614,0.024490212132151763,0.014626471932465586,0.006220129967258589,3.22705384705054e-19,-0.003916768511377457,-0.005143822286675256,-0.0042737126816617555,-0.002233071394412957,-6.118126532486494e-19,0.001414199507972746,0.002063661030438935,0.0018803243492565664,0.0010672975822669916,3.3522763227364417e-19,-0.0011472573375718958,-0.0016447004064994403,-0.0014584906246042488,-0.000799876988503426,-5.491968432539135e-19,0.00045966948220942756,0.000710857061743642,0.0006794346875066881,0.0004011094757240532,2.607877765906626e-19,-0.0004748668589597384,-0.0006873019493121842,-0.0006139270726047967,-0.00033840952869232746,-3.480586885787839e-19,0.00013027824687804855,0.00022688526112305657,0.00023853343951760924,0.00015210433908063327,1.7814662784296342e-19,-0.00031979026163175275,-0.0004372711290839216,-0.00036567814416151875,-0.0001866718444558705,-2.7490706268673008e-19,1.5703964162711308e-05,3.2017161783146276e-05,3.72322815418893e-05,2.5449689790427434e-05,3.8063964460001695e-20,-7.457986033427246e-05,-9.969557655199216e-05,-8.104725052654177e-05,-3.990252267205558e-05,-6.449590107596303e-20,0.0,0.0,0.0,0.0,0.0,0.0,0.0,0.0,0.0,0.0,0.0,0.0,0.0,0.0,0.0,0.0,0.0,0.0,0.0,0.0,0.0,0.0,0.0,0.0,0.0,0.0,0.0,0.0,0.0,0.0,0.0,0.0,0.0,0.0,0.0,0.0,0.0,0.0,0.0,0.0,0.0,0.0,0.0,0.0,0.0,0.0,0.0,0.0,0.0,0.0,0.0,0.0,0.0,0.0,0.0,0.0,0.0,0.0,0.0,0.0,0.0,0.0,0.0,0.0,0.0,0.0,0.0,0.0,0.0,0.0,0.0,0.0,0.0,0.0,0.0,0.0,0.0,0.0,0.0,0.0,0.0,0.0,0.0,0.0,0.0,0.0,0.0,0.0,0.0,0.0,0.0,0.0,0.0,0.0,0.0,0.0,0.0,0.0,0.0,0.0,0.0,0.0,0.0,0.0,0.0,0.0,0.0,0.0,0.0,0.0,0.0,0.0,0.0,0.0,0.0,0.0,0.0,0.0,0.0,0.0,0.0,0.0,0.0,0.0,0.0,0.0,0.0,0.0,0.0,0.0,0.0,0.0,0.0,0.0,0.0,0.0,0.0,0.0,0.0,0.0,0.0,0.0,0.0,0.0,0.0,0.0,0.0,0.0,0.0,0.0,0.0,0.0,0.0,0.0,0.0,0.0,0.0,0.0,0.0,0.0,0.0,0.0,0.0,0.0
0.4938474701000995,0.5409666345454265,0.5535004754806516,0.5381769772819175,0.5068547349732022,0.47276352724861465,0.4465549215135359,0.43398090591220045,0.434682637869262,0.4432621089597842,0.4516795843971298,0.45209635641813345,0.4395437544226159,0.4130811561608638,0.375729151948585,0.333179350241035,0.29175923566812617,0.25705138269401584,0.23239539466985995,0.218654506584639,0.21467911608494025,0.2180044927549467,0.2264467928006799,0.23824045288762957,0.25229055023623154,0.2678727268165795,0.28398569212195046,0.29941006403830706,0.31224053126184476,0.320191116238219,0.3210663375482186,0.31322220507741144,0.29629191225708623,0.2711705703151516,0.23995879526603012,0.20560198959419232,0.17135192501772117,0.14041527920458652,0.11545505213770568,0.09836243789298757,0.09013764164016605,0.09087694018262366,0.09983294237074664,0.11552754519526848,0.1359117127423447,0.15857172282440796,0.1809744078008636,0.20072899044709744,0.21582996621010447,0.22484285590720574,0.22700580400864984,0.22198741595018318,0.21080248406727883,0.19443637847493606,0.174236746731513,0.15187576103299041,0.12904445128082814,0.10827600913405902,0.09156020476819322,0.08061819175522451,0.07674571805733098,0.08041559144607989,0.0920235844033309,0.11063638382975048,0.134467544202275,0.1610813398501315,0.18752042562416585,0.2113154807551225,0.2299808911147242,0.24166525344309328,0.24541696164293203,0.2411908217125045,0.23021408777017402,0.21421076608171644,0.195282008500978,0.17554979474338617,0.15667864896868908,0.1401429223952043,0.12640064586875976,0.11518203789248156,0.1056826278438403,0.09667607143969245,0.08744563006581856,0.07721037079158447,0.06561833312873297,0.05284131392192015,0.03942666868044445,0.026538553105051606,0.015187158487547914,0.006188831130863217,2.6300888887272007e-20,-0.0034069450004503045,-0.004343144277470507,-0.003524264996344789,-0.0018086269598152705,-1.5229729246788516e-19,0.0012321929649112581,0.0017548658614408774,0.0015637117342935597,0.0008698985676611009,1.5573368161952506e-19,-0.000837933295599265,-0.0012057056975966398,-0.001075348216247728,-0.0005942780658276564,-2.9098061858613026e-19,0.00040040274784301885,0.0006072838975685277,0.0005703899635130009,0.0003315602394103075,1.7001115017351447e-19,-0.0003333070516241957,-0.0004929006204887757,-0.000450580560543423,-0.0002545780537461023,-2.172331565994632e-19,0.00012991925319566055,0.00021947483578258875,0.00022555138083587092,0.00014134349731442282,1.5354146499758475e-19,-0.0002665348923404032,-0.00036776926094286405,-0.0003109358205650053,-0.00016086448234729054,-2.2856879247155052e-19,1.8412243432174252e-05,3.75387877003927e-05,4.365329824887709e-05,2.9838700524248237e-05,4.46284118054291e-20,-8.744177771831465e-05,-0.00011688890814873852,-9.502452315488853e-05,-4.678404467709214e-05,-7.561875579210664e-20,0.0,0.0,0.0,0.0,0.0,0.0,0.0,0.0,0.0,0.0,0.0,0.0,0.0,0.0,0.0,0.0,0.0,0.0,0.0,0.0,0.0,0.0,0.0,0.0,0.0,0.0,0.0,0.0,0.0,0.0,0.0,0.0,0.0,0.0,0.0,0.0,0.0,0.0,0.0,0.0,0.0,0.0,0.0,0.0,0.0,0.0,0.0,0.0,0.0,0.0,0.0,0.0,0.0,0.0,0.0,0.0,0.0,0.0,0.0,0.0,0.0,0.0,0.0,0.0,0.0,0.0,0.0,0.0,0.0,0.0,0.0,0.0,0.0,0.0,0.0,0.0,0.0,0.0,0.0,0.0,0.0,0.0,0.0,0.0,0.0,0.0,0.0,0.0,0.0,0.0,0.0,0.0,0.0,0.0,0.0,0.0,0.0,0.0,0.0,0.0,0.0,0.0,0.0,0.0,0.0,0.0,0.0,0.0,0.0,0.0,0.0,0.0,0.0,0.0,0.0,0.0,0.0,0.0,0.0,0.0,0.0,0.0,0.0,0.0,0.0,0.0,0.0,0.0,0.0,0.0,0.0,0.0,0.0,0.0,0.0,0.0,0.0,0.0,0.0,0.0,0.0,0.0,0.0,0.0,0.0,0.0,0.0,0.0,0.0,0.0,0.0,0.0,0.0,0.0,0.0,0.0,0.0,0.0,0.0,0.0,0.0,0.0,0.0,0.0
0.9708727806470049,1.033027479328884,1.0098439613927541,0.9148870969046072,0.7744523429243325,0.6200142672121332,0.4796114454247696,0.37279167595273816,0.3065234539847751,0.27615477099281804,0.2691557537772614,0.27006399406613396,0.26638890653137276,0.2511782073424022,0.22402670809667613,0.18968315707757627,0.15510248789679343,0.1271906717939656,0.1102189329995459,0.10516561415235956,0.11021056037789102,0.12190872730980941,0.1370194985498515,0.15324541907883116,0.16961109612337366,0.18610920401194866,0.20290454951638962,0.21995320559502043,0.23645962967613401,0.2510162692444792,0.2620078476460062,0.26805985972509916,0.2686163951193151,0.26395953089448854,0.25515660660375733,0.2438370921867684,0.23194332620545074,0.22169848215737278,0.21550974202212642,0.21596028572025577,0.2256663367275306,0.24693443162452003,0.28123064761802596,0.328582234376197,0.3871065562295005,0.4528670745889841,0.520183629844331,0.5823970499175869,0.6329493704023234,0.6665378800042915,0.6800678124504377,0.6726757576106034,0.6476238773818158,0.6092422965579596,0.5629827135955807,0.5144545294096644,0.468165968670348,0.42802100691744727,0.3953498708252247,0.36959589546416133,0.3488412463688912,0.3304095905663755,0.3121529886791043,0.29234864319365317,0.2702875445926275,0.24631736552513597,0.2215099973956147,0.19762088535026556,0.17613477261398403,0.158071880963262,0.14379348468138076,0.13293937664914315,0.12480145105991805,0.11829525790231096,0.1123516624133907,0.10616192906888655,0.09921915295729584,0.09169268680408525,0.08383975365665369,0.07601859939626755,0.06853037345639236,0.061366380070930614,0.054683714595778504,0.04817588800226541,0.04146008449884443,0.03426518672819618,0.02645573754605636,0.01857030808509288,0.011135804287309845,0.004765807643528745,4.046314059476753e-19,-0.0029676088125915553,-0.003942280276834256,-0.003318418324668077,-0.001758549137463841,-5.969209985032216e-19,0.0011117086295694119,0.0016620147814740134,0.0015491672380400813,0.0008977364977889113,4.640829843403571e-19,-0.0011461134014469684,-0.0016170496664830417,-0.0014069234906130342,-0.0007546127332111764,-7.141477614342909e-19,0.0002990899072104461,0.0004808141924054147,0.00047537347710947917,0.0002889792947012507,2.2929238146785426e-19,-0.0004543704093551035,-0.0006364220012159675,-0.0005479846076693293,-0.0002898939487020187,-3.4716981808092173e-19,8.157271938597166e-05,0.00013686769813745295,0.0001399200532086685,8.732136211475302e-05,9.308328536653802e-20,-0.00016013661242104783,-0.0002215058979036204,-0.00018782735430910961,-9.751886711875001e-05,-1.372343773741433e-19,1.1939501735719292e-05,2.434219504845596e-05,2.8307176805058887e-05,1.9349039024670384e-05,2.893949355906354e-20,-5.6702012478167364e-05,-7.579713612136378e-05,-6.161907772526747e-05,-3.033732335137556e-05,-4.9035320946013393e-20,0.0,0.0,0.0,0.0,0.0,0.0,0.0,0.0,0.0,0.0,0.0,0.0,0.0,0.0,0.0,0.0,0.0,0.0,0.0,0.0,0.0,0.0,0.0,0.0,0.0,0.0,0.0,0.0,0.0,0.0,0.0,0.0,0.0,0.0,0.0,0.0,0.0,0.0,0.0,0.0,0.0,0.0,0.0,0.0,0.0,0.0,0.0,0.0,0.0,0.0,0.0,0.0,0.0,0.0,0.0,0.0,0.0,0.0,0.0,0.0,0.0,0.0,0.0,0.0,0.0,0.0,0.0,0.0,0.0,0.0,0.0,0.0,0.0,0.0,0.0,0.0,0.0,0.0,0.0,0.0,0.0,0.0,0.0,0.0,0.0,0.0,0.0,0.0,0.0,0.0,0.0,0.0,0.0,0.0,0.0,0.0,0.0,0.0,0.0,0.0,0.0,0.0,0.0,0.0,0.0,0.0,0.0,0.0,0.0,0.0,0.0,0.0,0.0,0.0,0.0,0.0,0.0,0.0,0.0,0.0,0.0,0.0,0.0,0.0,0.0,0.0,0.0,0.0,0.0,0.0,0.0,0.0,0.0,0.0,0.0,0.0,0.0,0.0,0.0,0.0,0.0,0.0,0.0,0.0,0.0,0.0,0.0,0.0,0.0,0.0,0.0,0.0,0.0,0.0,0.0,0.0,0.0,0.0,0.0,0.0,0.0,0.0,0.0,0.0
0.6800678124504377,0.7311794271558683,0.7270993622297277,0.677343705411087,0.5995988862255707,0.5144545294096644,0.4396531855703749,0.38653621698937396,0.3577958278620472,0.34846534866886836,0.3488412463688912,0.3480001919597945,0.33820169178695875,0.3162445817847099,0.28386370457145976,0.246317365525136,0.2099522514296601,0.18023281135184313,0.15991654633196056,0.1486873903369537,0.14379348468138076,0.1414347227747422,0.13793470992908163,0.13098464697870588,0.1200408221505751,0.10616192906888658,0.09132501751194393,0.07809821101988021,0.06880376896562673,0.06523706975513816,0.06853037345639235,0.07882545057070689,0.09625743160933474,0.12021380398180453,0.14943524675186368,0.18194587855325361,0.21494107379674926,0.24549939582731475,0.27062073663272324,0.2877844618490595,0.2953613836501149,0.29286445167321806,0.2809817778483097,0.2614045342789185,0.2365200208817957,0.20906592335869503,0.18182968841543595,0.15743701917827008,0.13822558118997044,0.1261645595164221,0.12277046306727522,0.12863606629144603,0.1446163673894625,0.1699120722117605,0.2026510968075501,0.23997347987139755,0.2779513715409814,0.3128880968468594,0.3403678204290069,0.35623733480188274,0.3571764966755199,0.3410384700695979,0.3079203454085519,0.2594410752663189,0.19903948793809817,0.13172943779377788,0.06350318927673015,0.0011723861334847398,-0.0490081347718078,-0.0818265953002264,-0.09371762108796414,-0.08327253523159928,-0.05117220356213406,-0.0005221811553174083,0.06359157239805514,0.13466004723425717,0.20543020480101626,0.26893689750569555,0.3190371349918544,0.3512077734246948,0.36303771555647846,0.354400338086546,0.32748305109840337,0.28621243228927323,0.2357021645775966,0.18151885777823923,0.12884610534168636,0.08220468072608728,0.04453645823156674,0.017189766372509872,3.073769078822816e-20,-0.00857087645107333,-0.010420238990180963,-0.008082485118646607,-0.003973791285926426,-2.2929731597164883e-19,0.002558978185056031,0.0034939769270737643,0.002991315928953915,0.0016027599292829323,1.0922776582847182e-19,-0.0013060413100996933,-0.0018665484795932306,-0.0016589656494495186,-0.0009163263636282398,-2.27788115843295e-19,0.0006191460892685709,0.0009466300068490139,0.000897303709607113,0.0005267118002395895,1.811623994211768e-19,-0.0006597055581814104,-0.0009428017424451575,-0.0008317864194440912,-0.00045303253885558593,-3.436727299236045e-19,0.0002830892647259892,0.0004211909555884032,0.0003878661487487873,0.00022104983573002193,1.318565326297477e-19,-0.00014051218378852647,-0.0002272512341719899,-0.00022582374721755042,-0.00013790489650468212,-1.1489097976687895e-19,6.324917283248555e-05,0.0001289520899465836,0.00014995646868466521,0.0001025009871017165,1.5330614880902648e-19,-0.00030037730774409925,-0.0004015331852924056,-0.0003264253218510889,-0.00016071111260746048,-2.597632261430343e-19,0.0,0.0,0.0,0.0,0.0,0.0,0.0,0.0,0.0,0.0,0.0,0.0,0.0,0.0,0.0,0.0,0.0,0.0,0.0,0.0,0.0,0.0,0.0,0.0,0.0,0.0,0.0,0.0,0.0,0.0,0.0,0.0,0.0,0.0,0.0,0.0,0.0,0.0,0.0,0.0,0.0,0.0,0.0,0.0,0.0,0.0,0.0,0.0,0.0,0.0,0.0,0.0,0.0,0.0,0.0,0.0,0.0,0.0,0.0,0.0,0.0,0.0,0.0,0.0,0.0,0.0,0.0,0.0,0.0,0.0,0.0,0.0,0.0,0.0,0.0,0.0,0.0,0.0,0.0,0.0,0.0,0.0,0.0,0.0,0.0,0.0,0.0,0.0,0.0,0.0,0.0,0.0,0.0,0.0,0.0,0.0,0.0,0.0,0.0,0.0,0.0,0.0,0.0,0.0,0.0,0.0,0.0,0.0,0.0,0.0,0.0,0.0,0.0,0.0,0.0,0.0,0.0,0.0,0.0,0.0,0.0,0.0,0.0,0.0,0.0,0.0,0.0,0.0,0.0,0.0,0.0,0.0,0.0,0.0,0.0,0.0,0.0,0.0,0.0,0.0,0.0,0.0,0.0,0.0,0.0,0.0,0.0,0.0,0.0,0.0,0.0,0.0,0.0,0.0,0.0,0.0,0.0,0.0,0.0,0.0,0.0,0.0,0.0,0.0
0.8468531396444788,0.9028364974711797,0.88526349798578,0.8058712946028252,0.687377473147382,0.5569308099401529,0.43862523690327027,0.34924825533866305,0.2947041888140953,0.2708997899407408,0.2670084802358268,0.26963827407433033,0.268273334951297,0.2571797835688274,0.2362579818566093,0.20972989575314332,0.18341879764638838,0.16295914244500195,0.15139784494215902,0.14873055090558682,0.15245131127045977,0.1587051435815128,0.16413850071674074,0.1666438867544106,0.1658238002836419,0.16273015215782413,0.1590419078405862,0.15687084416268507,0.15786459187908172,0.16308167257494008,0.17300899304518844,0.18748307821621507,0.20640495656546884,0.22927781462855282,0.255233536688442,0.2829572015416813,0.310645667564402,0.3365718565811315,0.35926057740875583,0.3779615513472308,0.39290541003817425,0.4052762852925196,0.41687126414245695,0.42953273038389356,0.4445288988795036,0.4620856830440148,0.4812286533050443,0.4999937428819172,0.5159457247459298,0.526845834149707,0.5312659560498555,0.5285330847483112,0.5204456981171459,0.5087930213308177,0.49567931501360574,0.4830129639216937,0.4717404705896076,0.4626227738429589,0.4547237562358255,0.44618701560306073,0.43475997179353193,0.41827266877797387,0.39571402967718167,0.36689606541215775,0.33281705276884505,0.29552928299406445,0.2576843600439487,0.22247799943150975,0.19262594299512095,0.17017889649573165,0.15629859419459693,0.15110781413952595,0.15404957484668286,0.1636438471962819,0.17784639106963882,0.19429394441641812,0.21045479266021117,0.22415765779253957,0.2333487515487404,0.23640698693138312,0.23228929463823933,0.22054631739119646,0.20171405854455893,0.17685025421212308,0.14761875079931852,0.11614464731911966,0.08464490681399217,0.05570319833389462,0.031235192823465985,0.012507658057889778,3.0710471653735864e-19,-0.006817913330250985,-0.008599687309986215,-0.006908731141690726,-0.003511251955694244,-5.937420416069952e-19,0.0022641173027496218,0.003212811747111426,0.00285554219283677,0.0015856933467160526,4.028758633365779e-19,-0.0015845818764282406,-0.0022601793232725634,-0.001996559010175758,-0.0010918914587886262,-6.534954827871994e-19,0.0006104526451782511,0.0009496867761183258,0.0009134350647692436,0.0005426842867843275,3.051242473772483e-19,-0.0007226352009298963,-0.0010284616353639403,-0.0009023636248057659,-0.0004880281879498158,-4.758430366136514e-19,0.00021881227002438293,0.0003463161057121701,0.00033750569626416556,0.00020249894550358923,1.7569364102209585e-19,-0.0002688431092535033,-0.0003846021524582001,-0.0003389465780537649,-0.00018397486091272387,-2.2825536063883296e-19,4.046991569784845e-05,8.250985705411825e-05,9.59494863606892e-05,6.558514714396623e-05,9.809277561139129e-20,-0.00019219609960980822,-0.0002569205798423659,-0.00020886289362145744,-0.00010283083379061732,-1.6620922286607887e-19,0.0,0.0,0.0,0.0,0.0,0.0,0.0,0.0,0.0,0.0,0.0,0.0,0.0,0.0,0.0,0.0,0.0,0.0,0.0,0.0,0.0,0.0,0.0,0.0,0.0,0.0,0.0,0.0,0.0,0.0,0.0,0.0,0.0,0.0,0.0,0.0,0.0,0.0,0.0,0.0,0.0,0.0,0.0,0.0,0.0,0.0,0.0,0.0,0.0,0.0,0.0,0.0,0.0,0.0,0.0,0.0,0.0,0.0,0.0,0.0,0.0,0.0,0.0,0.0,0.0,0.0,0.0,0.0,0.0,0.0,0.0,0.0,0.0,0.0,0.0,0.0,0.0,0.0,0.0,0.0,0.0,0.0,0.0,0.0,0.0,0.0,0.0,0.0,0.0,0.0,0.0,0.0,0.0,0.0,0.0,0.0,0.0,0.0,0.0,0.0,0.0,0.0,0.0,0.0,0.0,0.0,0.0,0.0,0.0,0.0,0.0,0.0,0.0,0.0,0.0,0.0,0.0,0.0,0.0,0.0,0.0,0.0,0.0,0.0,0.0,0.0,0.0,0.0,0.0,0.0,0.0,0.0,0.0,0.0,0.0,0.0,0.0,0.0,0.0,0.0,0.0,0.0,0.0,0.0,0.0,0.0,0.0,0.0,0.0,0.0,0.0,0.0,0.0,0.0,0.0,0.0,0.0,0.0,0.0,0.0,0.0,0.0,0.0,0.0
0.5312659560498555,0.579192195450423,0.5885239519539464,0.5666197168959315,0.5265502555046699,0.4830129639216937,0.44803081074630613,0.42828534028608106,0.4237657660853358,0.42883134363237524,0.43475997179353193,0.43273636488836825,0.4171033874083769,0.38650061293703164,0.34395089818771457,0.29552928299406445,0.2481437299012042,0.20805215575760458,0.1790844869285189,0.1622812602999783,0.15629859419459693,0.15818319797459515,0.16499805311868243,0.1742352757117164,0.18427480721019307,0.19429394441641812,0.20360955691262847,0.21225225817978358,0.22005173536315595,0.22678610434938462,0.23228929463823933,0.23615261677580912,0.23912257905745385,0.24201945814095413,0.2457150628572974,0.25075942967936066,0.2568362185801084,0.2632809881093768,0.2686709255060371,0.27123173340378626,0.26922956472048204,0.26137149690356787,0.24711780853130738,0.2268432601598067,0.2018275960362999,0.17409258546092932,0.1461259978293964,0.1205418900766426,0.09972667087859867,0.0855174227777448,0.07895560620137664,0.07988104283880901,0.08799056654954594,0.10162447256501823,0.1185923548358246,0.1366044419274321,0.15342290936367373,0.1680980494511852,0.17983872746402274,0.18845607823725932,0.19425327765348754,0.1975980149717351,0.19954755951169384,0.20053882761095004,0.20075450412449408,0.2002462850546455,0.19900259333173276,0.19777691244515166,0.19751113710808194,0.19968839388459322,0.20623929245580344,0.21915406142580718,0.24030629014755386,0.2704861095261709,0.309059101951657,0.3536976622881284,0.4003258873597493,0.44390280070679644,0.478635716337645,0.4990909017006783,0.5011560321204533,0.4827017823585285,0.44447145934959686,0.3894678949824222,0.3227338536676252,0.25057801606022667,0.17946993418389237,0.11554574835716477,0.06314477053793355,0.02456710146313474,-2.0526806153109687e-19,-0.012332116932165224,-0.015077923835714532,-0.011759960673323994,-0.005813853490868593,-5.700381880081495e-20,0.003856628858986315,0.005283326860318401,0.0045357935617297875,0.002436012676314178,4.0404942587224916e-20,-0.0019372544417553886,-0.0027895343220005094,-0.0024995544791203313,-0.0013926636516142406,-2.247883317426334e-19,0.0010794391140649291,0.0016207841676848071,0.0015096085121439097,0.0008715450495930966,2.823830268622083e-19,-0.0008650361686468504,-0.0012769035191062547,-0.0011662286537274212,-0.0006589503017986023,-4.288189813020016e-19,0.0004492620556417245,0.0007006441438240111,0.0006740584552968609,0.00039990614662381596,3.237461728593665e-19,-0.00047165551324677567,-0.0006849086147985755,-0.0006135042166005643,-0.0003389412010462163,-3.9874079775694566e-19,8.731242825016621e-05,0.00017801213196873972,0.0002070076623350457,0.00014149766204204323,2.1163173396194107e-19,-0.000414656365544031,-0.0005542971688144696,-0.00045061439093670034,-0.00022185392883646075,-3.5859058749613144e-19,0.0,0.0,0.0,0.0,0.0,0.0,0.0,0.0,0.0,0.0,0.0,0.0,0.0,0.0,0.0,0.0,0.0,0.0,0.0,0.0,0.0,0.0,0.0,0.0,0.0,0.0,0.0,0.0,0.0,0.0,0.0,0.0,0.0,0.0,0.0,0.0,0.0,0.0,0.0,0.0,0.0,0.0,0.0,0.0,0.0,0.0,0.0,0.0,0.0,0.0,0.0,0.0,0.0,0.0,0.0,0.0,0.0,0.0,0.0,0.0,0.0,0.0,0.0,0.0,0.0,0.0,0.0,0.0,0.0,0.0,0.0,0.0,0.0,0.0,0.0,0.0,0.0,0.0,0.0,0.0,0.0,0.0,0.0,0.0,0.0,0.0,0.0,0.0,0.0,0.0,0.0,0.0,0.0,0.0,0.0,0.0,0.0,0.0,0.0,0.0,0.0,0.0,0.0,0.0,0.0,0.0,0.0,0.0,0.0,0.0,0.0,0.0,0.0,0.0,0.0,0.0,0.0,0.0,0.0,0.0,0.0,0.0,0.0,0.0,0.0,0.0,0.0,0.0,0.0,0.0,0.0,0.0,0.0,0.0,0.0,0.0,0.0,0.0,0.0,0.0,0.0,0.0,0.0,0.0,0.0,0.0,0.0,0.0,0.0,0.0,0.0,0.0,0.0,0.0,0.0,0.0,0.0,0.0,0.0,0.0,0.0,0.0,0.0,0.0
0.698612506926757,0.7065803073600121,0.6292506244658193,0.47508353860130303,0.26559672449236293,0.03036474498114102,-0.1996595202758854,-0.39655001346875896,-0.5404990937591229,-0.6212994227369926,-0.6378830169644749,-0.5967156619889435,-0.5079936463240571,-0.38415608468287316,-0.2380487482492435,-0.08213449978269886,0.07145397297864925,0.21209488841061805,0.33037110176453766,0.418985187569958,0.47361401739907727,0.4933184055489734,0.4815024377277738,0.44482708573145635,0.39222516615668773,0.333405731278962,0.2772543517209293,0.2311594564758844,0.20019347977665466,0.18720918146619442,0.19319744515884668,0.21771528367232462,0.25922061282371567,0.3151410411170335,0.3818272841256032,0.4545339338451271,0.5276169931938566,0.595077430351577,0.6513659772488201,0.6923080368750814,0.7158704225314075,0.7225257892206808,0.7150744993712481,0.6979450733294973,0.6761532075155063,0.6542006384632455,0.6352058662585133,0.6204783917279676,0.6096069274993711,0.6009787046058018,0.5925308543950835,0.5821304186633242,0.5694724367799228,0.5544553363102507,0.5377315953038123,0.5204039990984498,0.5035869249590141,0.4880742059900608,0.4740318928787837,0.4610324208189208,0.44827714380181616,0.4352664184230928,0.4208649202959119,0.4051343236271366,0.38866340821451817,0.3722664371605417,0.3566495644683208,0.34193027455751007,0.327688220306045,0.3129208011826301,0.2962557305192673,0.27604773588440856,0.2516982243962394,0.2227680413464618,0.18966559848121178,0.15373283041193087,0.11693013534236989,0.0821406925805529,0.05182449161335423,0.027860895416650617,0.011209930304594443,0.0016625301314878828,-0.0017050179626007128,-0.0007499613804463007,0.0023544962819760044,0.005604965152297222,0.007334266342010837,0.007329084133046205,0.005654771504122689,0.0029172575845830473,5.914143628562613e-19,-0.002614614727802867,-0.00369528141239692,-0.003249654741657326,-0.0017749039612116007,-9.67069317012459e-19,0.0010648124038551321,0.0016365652632244123,0.0015578909538737336,0.0009173928329001847,5.199261788005307e-19,-0.0011365523775342663,-0.0016290993949352687,-0.0014407995288581506,-0.0007861593952054724,-7.587370218986956e-19,0.0003420212580508772,0.0005590414667441675,0.0005598241517501207,0.0003436705535301283,3.315014922915598e-19,-0.000561830007154554,-0.0007853974780308937,-0.0006743553288377895,-0.00035537412496095406,-4.734035640625909e-19,6.085971784033952e-05,0.00011926441779670374,0.00013554339259825573,9.128825097859413e-05,1.3039848739945404e-19,-0.00025185501749889366,-0.00033788760663416156,-0.0002759533085995472,-0.00013668707196360947,-2.1759715425175836e-19,1.9530169701200315e-06,3.981801005763848e-06,4.630377205028105e-06,3.165040083510605e-06,4.733809105152365e-21,-9.275093304649297e-06,-1.23985989037258e-05,-1.0079407595424466e-05,-4.962460632339422e-06,-8.021005906497903e-21,0.0,0.0,0.0,0.0,0.0,0.0,0.0,0.0,0.0,0.0,0.0,0.0,0.0,0.0,0.0,0.0,0.0,0.0,0.0,0.0,0.0,0.0,0.0,0.0,0.0,0.0,0.0,0.0,0.0,0.0,0.0,0.0,0.0,0.0,0.0,0.0,0.0,0.0,0.0,0.0,0.0,0.0,0.0,0.0,0.0,0.0,0.0,0.0,0.0,0.0,0.0,0.0,0.0,0.0,0.0,0.0,0.0,0.0,0.0,0.0,0.0,0.0,0.0,0.0,0.0,0.0,0.0,0.0,0.0,0.0,0.0,0.0,0.0,0.0,0.0,0.0,0.0,0.0,0.0,0.0,0.0,0.0,0.0,0.0,0.0,0.0,0.0,0.0,0.0,0.0,0.0,0.0,0.0,0.0,0.0,0.0,0.0,0.0,0.0,0.0,0.0,0.0,0.0,0.0,0.0,0.0,0.0,0.0,0.0,0.0,0.0,0.0,0.0,0.0,0.0,0.0,0.0,0.0,0.0,0.0,0.0,0.0,0.0,0.0,0.0,0.0,0.0,0.0,0.0,0.0,0.0,0.0,0.0,0.0,0.0,0.0,0.0,0.0,0.0,0.0,0.0,0.0,0.0,0.0,0.0,0.0,0.0,0.0,0.0,0.0,0.0,0.0,0.0,0.0,0.0,0.0,0.0,0.0,0.0,0.0,0.0,0.0,0.0,0.0
