0.18754420765386973,0.19415339192430978,0.2531099704667903,0.2601306608870768,0.293423674141767,0.29215381851458466,0.2823857489331136,0.29887279093206753,0.3502964639887467,0.34105521670181893,0.38410889921698643,0.44468342300807506,0.41848172799462974,0.39238742095598805,0.3750708338768397,0.409960862309662,0.444893081314309,0.4363911475225464,0.4278778068629635,0.4019427036748508,0.43676478804691815,0.4540986355823415,0.42783742631769517,0.42746351493482887,0.4703163286711223,0.4520713181792568,0.4595844728071782,0.4754279450315637,0.5516926404165121,0.5232138029808189,0.5115982536954398,0.49071796406652257,0.5474140554998469,0.6207929624155788,0.7455498273020615,0.886855637673041,0.8100046316399956,0.3932583209271152,-0.598097540655468,-0.7302739413543968,-0.35959211365190447,0.1142454291130885,0.3871617799909128,0.4592340589725614,0.4695795522596958,0.4791020674976753,0.5052524075529818,0.4525072718908596,0.45128424949631524,0.5103368275508722,0.49068400341901436,0.5140461640677795,0.5283386155197269,0.5075444876952642,0.5473061080888447,0.46517906243334384,0.47846224323735886,0.4307765679365814,0.4438247656946254,0.4220541273866881,0.3828814326550383,0.395862139128646,0.39150768800974856,0.3698485921996721,0.33960353843752544,0.3355597583481253,0.2795310776476962,0.2671322717781324,0.25493461650637084,0.23426857744288143,0.25729426515861326,0.2545087796145048,0.23461911668617647,0.2150211310815736,0.24787002991795032,0.28103836869222815,0.28846785767984845,0.3136198529741933,0.30436282319090296,0.2520143257274676,0.30431276093927717,0.2874604081898388,0.26229157243687806,0.28094898995985634,0.2565319835608034,0.284631230197484,0.2175124456334988,0.21159452064410506,0.18866171128430884,0.1313281352700745,0.14386880627593293,0.10461466555393868,0.10045908804146869,0.07925282358300297,0.049677039361142726,0.0030322435419252187,0.008829878292198477,0.04968005685536203,0.04736192869186246,0.03662610275276196,0.04353281980325617,0.04200134922068861,0.05809153097564223,-0.003798844235169198,0.0040514023615594,0.003420394647535403,-0.023082844118984196,-0.005947994019484852,0.037436143972508454,0.020160282933118116,0.01173731352976192,-0.00522128813378774,-0.022033710511657006,-0.003947251906930041,-0.04655908806353862,-0.010832472578460008,0.033710611035340565,-0.008521185778876332,0.03627469253200994,0.03774701286596144,-0.04755432549029158,0.015004592054055396,0.06031615444446697,0.05362464624679358,0.0036247073272287233,-0.011468239561480777,0.008350027823867477,0.0630848212092343,-0.0036809542015740623,0.04269120330118091,0.06316449594029477,0.057744014502115665,0.043814796702958125,0.04745172291528734,0.09472945443758495,0.06399018191392561,0.06820916949913483,0.10738965350622845,0.0946332154401441,0.07339287050089803,0.09581129209865234,0.10974921016453966,0.10651753245434746,0.10349701210648161,0.0746172127905703,0.08070849445341181,0.1478403184508481,0.0,0.0,0.0,N
0.4595844728071782,0.4754279450315637,0.5516926404165121,0.5232138029808189,0.5115982536954398,0.49071796406652257,0.5474140554998469,0.6207929624155788,0.7455498273020615,0.886855637673041,0.8100046316399956,0.3932583209271152,-0.598097540655468,-0.7302739413543968,-0.35959211365190447,0.1142454291130885,0.3871617799909128,0.4592340589725614,0.4695795522596958,0.4791020674976753,0.5052524075529818,0.4525072718908596,0.45128424949631524,0.5103368275508722,0.49068400341901436,0.5140461640677795,0.5283386155197269,0.5075444876952642,0.5473061080888447,0.46517906243334384,0.47846224323735886,0.4307765679365814,0.4438247656946254,0.4220541273866881,0.3828814326550383,0.395862139128646,0.39150768800974856,0.3698485921996721,0.33960353843752544,0.3355597583481253,0.2795310776476962,0.2671322717781324,0.25493461650637084,0.23426857744288143,0.25729426515861326,0.2545087796145048,0.23461911668617647,0.2150211310815736,0.24787002991795032,0.28103836869222815,0.28846785767984845,0.3136198529741933,0.30436282319090296,0.2520143257274676,0.30431276093927717,0.2874604081898388,0.26229157243687806,0.28094898995985634,0.2565319835608034,0.284631230197484,0.2175124456334988,0.21159452064410506,0.18866171128430884,0.1313281352700745,0.14386880627593293,0.10461466555393868,0.10045908804146869,0.07925282358300297,0.049677039361142726,0.0030322435419252187,0.008829878292198477,0.04968005685536203,0.04736192869186246,0.03662610275276196,0.04353281980325617,0.04200134922068861,0.05809153097564223,-0.003798844235169198,0.0040514023615594,0.003420394647535403,-0.023082844118984196,-0.005947994019484852,0.037436143972508454,0.020160282933118116,0.01173731352976192,-0.00522128813378774,-0.022033710511657006,-0.003947251906930041,-0.04655908806353862,-0.010832472578460008,0.033710611035340565,-0.008521185778876332,0.03627469253200994,0.03774701286596144,-0.04755432549029158,0.015004592054055396,0.06031615444446697,0.05362464624679358,0.0036247073272287233,-0.011468239561480777,0.008350027823867477,0.0630848212092343,-0.0036809542015740623,0.04269120330118091,0.06316449594029477,0.057744014502115665,0.043814796702958125,0.04745172291528734,0.09472945443758495,0.06399018191392561,0.06820916949913483,0.10738965350622845,0.0946332154401441,0.07339287050089803,0.09581129209865234,0.10974921016453966,0.10651753245434746,0.10349701210648161,0.0746172127905703,0.08070849445341181,0.1478403184508481,0.12827911507178735,0.1349945166902376,0.1332232808888394,0.14903240991121108,0.1389671888747822,0.12040307736849395,0.15416549702645857,0.19679769095272445,0.1874618686714087,0.23912188324263534,0.21272684050671548,0.22123846060501318,0.20381477252022848,0.212584406933658,0.22146379306672845,0.273889348228616,0.24818388626129312,0.26599253009423707,0.29253679696547824,0.2669664800217275,0.24140161761661041,0.32879183290491415,0.38138160074664496,0.4252163795671063,0.3994384071213669,0.3648496343497208,0.0,0.0,0.0,N
0.7891671695410819,0.31165345508841835,-0.618746202077203,-0.6551350524846264,-0.24072462927545285,0.17264564086247952,0.3417223531104684,0.34478610034186075,0.37308747470913733,0.45276284828603924,0.4274539688082488,0.47102531249368385,0.444494488746387,0.42613003624941537,0.40729695745115146,0.3880482555260193,0.3858151599161018,0.40933682844598085,0.43258996435954616,0.4556196183452144,0.43501802126046474,0.4229665710031384,0.41081357074740854,0.3551446833297009,0.3602757509143795,0.36540834379415355,0.34450275638786954,0.3149681129537705,0.3202822093649865,0.2909495587631832,0.2617546493936557,0.25010025200145947,0.2560075658059564,0.2534261453965791,0.2163042653249312,0.248940903655235,0.22100040977236338,0.25415969826713986,0.19201037468920057,0.19967763470994443,0.22503242954331984,0.15511379238154008,0.21587475492737065,0.17269061037479203,0.1993717472264948,0.18295335511675598,0.12344133471201654,0.10774198567417262,0.13585967669621593,0.09482652987030987,0.08023714101958804,0.07471392394363469,0.026118365751436674,0.07349447025926878,0.09518216940488469,0.07380260416836373,0.05280735925249976,0.0235068620897273,0.046732327085469205,0.044272749091268666,0.05957872856415649,0.023128936706518003,0.07396489985644956,0.0469734305395563,0.0029843872387439875,0.028897787698434988,0.029120875840430827,0.06448311586960989,0.039391461614456044,0.032055172012335216,0.05116225803352073,0.035879519362641166,0.03834520776393494,0.06724673872292827,0.0356798908606547,0.05661312821758488,0.08659237166271978,0.07347312762319623,0.060701914702746516,0.07434462138701865,0.027495124761187158,0.0331199518404503,0.013002601887474851,0.08879943021829913,0.09539239172059044,0.09360641306666499,0.14426594396688036,0.099631813070175,0.12480885723979825,0.13288760526946486,0.10647901291838788,0.13247494802243104,0.14134438125037788,0.1591470660347258,0.17718152358117345,0.18674547936008923,0.17044564155800057,0.2064792297724918,0.1384090642149164,0.15740218774940185,0.17654074715561624,0.22187781009318863,0.2151839850033355,0.24334126708646128,0.25418847360347624,0.24770399336629348,0.3020761266304657,0.37383009586445576,0.4194896131560934,0.4564074410762902,0.43241319373810716,0.41699604248452327,0.4101219455827635,0.40306464494361777,0.36971556911570125,0.44038649609642005,0.4151623630088575,0.42435089734009335,0.3549340722311461,0.363285811731463,0.3363841925572147,0.352388365272421,0.3851742220054622,0.46944681257645315,0.6051487354295061,0.7835301103984471,0.8133452726727408,0.720597924196876,0.0011896862393707148,-0.7192643440118784,-0.6152760536642761,-0.18218896889845249,0.2324440687258523,0.36798883936317456,0.39831652975886045,0.3843247788231595,0.4042894966361182,0.4061327010105431,0.4159855706977648,0.4252167282807167,0.364361796780917,0.3898976889180428,0.3628350288112022,0.3440555127441898,0.38574889144943253,0.36630056785733217,0.3639670378069639,0.0,0.0,0.0,N
0.720597924196876,0.0011896862393707148,-0.7192643440118784,-0.6152760536642761,-0.18218896889845249,0.2324440687258523,0.36798883936317456,0.39831652975886045,0.3843247788231595,0.4042894966361182,0.4061327010105431,0.4159855706977648,0.4252167282807167,0.364361796780917,0.3898976889180428,0.3628350288112022,0.3440555127441898,0.38574889144943253,0.36630056785733217,0.3639670378069639,0.35272138911988643,0.33260528391113886,0.3731796716985992,0.3702012114492641,0.34977666687511805,0.338010950682088,0.37838748944521267,0.3145149980316466,0.2941548975389047,0.29995454034127317,0.3145598080385502,0.2771644255767172,0.231242121617392,0.25502576450495673,0.23556417609627794,0.23370753064386096,0.26685416769821524,0.24811968175751983,0.19489990956379225,0.21149076102287198,0.20231414988791985,0.15869224622052205,0.15015739089752309,0.14195955481985936,0.16017887773507433,0.15268360720692975,0.1368622409145833,0.13010251311915652,0.1671717365230126,0.16117473404882604,0.10342667514659645,0.08952349990733008,0.1368494489026498,0.10636595031466359,0.07628703248381175,0.08137553503966768,0.10425312791930386,0.13623120555834062,0.0643390646120819,0.07106978737138826,0.04345166764021275,0.051005402774256095,0.05027976497998086,0.023893665565504936,0.041367078202352074,0.05924814920281821,0.051465080796254406,0.02670630447615802,0.028420519915514725,0.05660563637467241,0.0938791582589333,0.07940765006430225,0.04794865202944672,0.06032970148345303,0.04702612536880121,0.1036254451277023,0.09977153128994054,0.07022023240631291,0.07579729229862922,0.07304652717286027,0.10541268801074612,0.1207487154229371,0.09297741708531268,0.10030257344485213,0.09057552941810317,0.15937936180453846,0.11552235911062217,0.13279753074737857,0.12429336722734405,0.15952005984741655,0.1602549450418655,0.1786265322880072,0.20593161015487116,0.20739567995015618,0.23514452708574102,0.2544015862328738,0.23907924771639025,0.25868007499164863,0.2436633340981992,0.25483896831856345,0.29218478298503064,0.28615625822526386,0.3410100407674723,0.3871987190341128,0.4420744901596689,0.48822708978013624,0.47348351765416774,0.45864004029586686,0.4436596371681875,0.39374246902898935,0.4478891058624079,0.43225341939620254,0.4684515087041879,0.46084402718750433,0.4267609938806489,0.4009103863504281,0.3919276542300102,0.4171363739768541,0.4417173741528098,0.5525112369049794,0.6799339710215794,0.8326100051206491,0.7758366896161262,0.5877519414159542,-0.2183687412098723,-0.7822824354364888,-0.5652603343288701,-0.05393481651494718,0.2998759646140026,0.3572037090183017,0.39620492333715673,0.425640255528314,0.45426837252490265,0.4213247620489896,0.4224650052527944,0.43168073739760293,0.42296148141967504,0.4398156528613678,0.430158107319177,0.4201126836973421,0.42711093873334244,0.4077514089676773,0.4316022032770525,0.41180702700911337,0.43531005502495046,0.38918038149738826,0.4038086025832224,0.0,0.0,0.0,N
0.7758366896161262,0.5877519414159542,-0.2183687412098723,-0.7822824354364888,-0.5652603343288701,-0.05393481651494718,0.2998759646140026,0.3572037090183017,0.39620492333715673,0.425640255528314,0.45426837252490265,0.4213247620489896,0.4224650052527944,0.43168073739760293,0.42296148141967504,0.4398156528613678,0.430158107319177,0.4201126836973421,0.42711093873334244,0.4077514089676773,0.4316022032770525,0.41180702700911337,0.43531005502495046,0.38918038149738826,0.4038086025832224,0.40971034688420965,0.3634696180877636,0.33464007922046285,0.3493229190796802,0.3554064708763847,0.3529181094642882,0.3505735640409711,0.2528052226987899,0.29426871295875723,0.2924920922570649,0.25618483696324723,0.289646406124831,0.2712315620833584,0.29654690335391753,0.20049373100709392,0.2090277753089948,0.23525903451304153,0.15753593622888662,0.1322899358101485,0.14214907340630298,0.14367033358847742,0.14555077843977082,0.13041635756294495,0.1417232124404308,0.13602551871064067,0.05249648064347825,0.03887177541060756,0.0690841901768278,0.06492552949072271,0.05246882899460195,0.05778679970312779,0.046120970653255884,0.0956842898388434,0.05874605886709422,0.0830395677153476,0.08166426547262541,0.08938102529723398,0.05404899826392148,0.06256899056187891,0.05410930473951355,0.054739244262510686,0.03838705379269344,0.022431361176778946,0.0503209964548846,0.06991323237186807,0.011684827315158543,0.02336547451160032,0.052811787110770295,0.07395065556354204,0.060708706261853505,0.05653324685414943,0.06142062456422787,0.05798664119720639,0.03753692283130278,0.09565838212620573,0.1019943282751898,0.10868035108030343,0.11571074211461528,0.09700885542076935,0.15684943713104516,0.13880280704675288,0.13845231063248617,0.08626810319056513,0.12997293216733352,0.1305147782532576,0.11395346842238126,0.14110870257974922,0.12506737746727178,0.178788705936477,0.10238654595797483,0.14786069312244546,0.15877425640535456,0.18725275850805603,0.18982948312216796,0.1925578286853003,0.21280011311142424,0.2766078229015904,0.2622991471604918,0.21330338810194485,0.27733011295870713,0.2979332242787879,0.3619889164938777,0.3825692668450843,0.4465471701533941,0.4496107181165517,0.443868134468466,0.4205944752558942,0.3884428399373668,0.382134619127707,0.41900899847509243,0.3773611509350352,0.4135683584571937,0.4319922062750024,0.4065132627898876,0.3457704619471366,0.38875267576906886,0.3789825806341093,0.4641355073251116,0.6354625269400108,0.8494518643943129,0.8974760711426504,0.8142271299145807,0.11298465348591988,-0.6849205768612887,-0.6757925642144541,-0.21593929375852963,0.2341138731004558,0.33552392845650314,0.40989667842720146,0.387780339580459,0.40828423203014574,0.42802297808774886,0.40360915864359564,0.4046249223640223,0.36160829785000315,0.404968312231031,0.38702798055597076,0.3686714460614797,0.358640128586974,0.3135328163573006,0.38112939467357115,0.3963634516287847,0.0,0.0,0.0,N
0.8142271299145807,0.11298465348591988,-0.6849205768612887,-0.6757925642144541,-0.21593929375852963,0.2341138731004558,0.33552392845650314,0.40989667842720146,0.387780339580459,0.40828423203014574,0.42802297808774886,0.40360915864359564,0.4046249223640223,0.36160829785000315,0.404968312231031,0.38702798055597076,0.3686714460614797,0.358640128586974,0.3135328163573006,0.38112939467357115,0.3963634516287847,0.3766594285696513,0.3915805732829611,0.37164614823879244,0.35165503451903385,0.34902399222238645,0.34640749766748646,0.3525286761816781,0.3326582641737016,0.338966549171147,0.3193405788956066,0.30856701999815717,0.2979802855458658,0.30498363989936855,0.2426972810031968,0.2241129035368133,0.2231788866737065,0.25729314590396235,0.24826103568477972,0.23085833189852753,0.21378917499372704,0.18837628837479392,0.20677224613383027,0.15601618433325787,0.22730080334207542,0.1860015860134293,0.17116852787404116,0.16542832967068713,0.15140683630750407,0.16386985380431884,0.15068111738454593,0.12053446255589227,0.12557362830159302,0.11366017441789353,0.12824647797135144,0.08243237708430608,0.0891900902998378,0.07030853372223377,0.06054788539622963,0.06859757769522308,0.07707634612451567,0.0946729773301896,0.0692449529430349,0.04424072636740872,0.07179853615912665,0.07370442902702622,0.0934059319543871,0.05268836413522074,0.08189973076323263,0.08544435780850766,0.11545839513826908,0.10241572613082804,0.10714162751586617,0.11224968155842666,0.12642332894408434,0.1409651863575601,0.16455750111937603,0.1363607647143379,0.07374582822575332,0.15050522570512176,0.14937521054476305,0.13117548765000692,0.12196448954523784,0.11303946737250993,0.12176745658009851,0.19158532154761132,0.16605629616424247,0.1928972545603857,0.21126108755560033,0.22113064111673425,0.20510744215275126,0.23269322568164041,0.2256564677883874,0.22742632035897298,0.24667028149214615,0.2659843180263848,0.250582900696313,0.28734100958208775,0.3067100070773467,0.4216325777713646,0.4582755372880191,0.42529635198898325,0.46170216750159004,0.4284137989322737,0.42098330003465423,0.40460861185001007,0.42269675288912756,0.3883007479763874,0.37958400460064395,0.3878066749847808,0.35208622517432003,0.35058028420097787,0.3832335382793367,0.4065382638414427,0.4812663976663276,0.581286530079473,0.7152253705792642,0.7092139633307512,0.6327034549063775,-0.10530853878418486,-0.7488572020339616,-0.5854183717059092,-0.1363953986524676,0.21590608303880465,0.26299602436768243,0.2221997342384558,0.2760806810704006,0.28566636136386786,0.4074473580073869,0.44161743913253454,0.5185933279305742,0.4820152040902119,0.4449147269964297,0.3899691753148428,0.3693746541472155,0.35711413636342776,0.3532391420887578,0.38386980000647114,0.39691329021811517,0.4184860558622447,0.39649137312495547,0.3831120022767411,0.3783879328738909,0.3736671075364598,0.3602955769448383,0.39044844307744053,0.3685667730390034,0.0,0.0,0.0,N
0.7092139633307512,0.6327034549063775,-0.10530853878418486,-0.7488572020339616,-0.5854183717059092,-0.1363953986524676,0.21590608303880465,0.26299602436768243,0.2221997342384558,0.2760806810704006,0.28566636136386786,0.4074473580073869,0.44161743913253454,0.5185933279305742,0.4820152040902119,0.4449147269964297,0.3899691753148428,0.3693746541472155,0.35711413636342776,0.3532391420887578,0.38386980000647114,0.39691329021811517,0.4184860558622447,0.39649137312495547,0.3831120022767411,0.3783879328738909,0.3736671075364598,0.3602955769448383,0.39044844307744053,0.3685667730390034,0.31206138958294866,0.35131298051973237,0.3038559438088321,0.2739972562601842,0.3312818498991138,0.3106197396066415,0.34238375064612286,0.29624121389552294,0.319941952353192,0.3179106292771647,0.30754201610661375,0.26277863784645017,0.22708253280128904,0.20046376850144065,0.1655510143121053,0.1918732510418713,0.1317053473386784,0.11540541652334958,0.1342888113704019,0.13621965074615416,0.09513177620153761,0.14138071296124505,0.12723730655194995,0.15698550550723003,0.1263454691447765,0.13090959350788361,0.11853740951670773,0.13267923868189127,0.13857362744102145,0.13621898434038424,0.14299328781057455,0.07199225867258881,0.07094444993900742,0.04425437612687138,0.03536829905054137,0.026901339618936173,0.010158573275702385,0.02858572921512707,0.030037040700177244,0.031887649074958516,-0.009318374135188613,0.01938524792884663,0.005022261589918053,0.0257992065215474,0.012190363890156167,0.03371198788570246,0.04690856385542497,0.043084934091515176,0.06568649460068374,0.07125711220274,0.06848111354235883,0.09211286310732324,0.05524454371272552,0.04477050513380395,0.08675390128951661,0.09428595435539601,0.08473902925214502,0.14500607048047934,0.10996578893549917,0.10996063727353679,0.15367067905485668,0.1541839828980831,0.18101021384046045,0.25151747774198,0.2527210047682178,0.23674726364559942,0.22096093399063424,0.2314156430597366,0.24202312504731222,0.23538408844577471,0.21147829438435856,0.26587577221030967,0.28558234085004847,0.2966445918707031,0.32510768892769765,0.4404659693346122,0.4862687290847821,0.46248542661371117,0.49943505965660406,0.4406599781061705,0.4077842387189605,0.4181481184369563,0.419568804271162,0.42069231212555064,0.4388526914362973,0.4479312312969006,0.42180702653740193,0.3430470637079094,0.38539911060030596,0.4705954098606869,0.49429588301092475,0.6302423026349817,0.8262305540556046,0.8214902183546734,0.685471737757774,0.05311487822824783,-0.6846025918978464,-0.6587459441665711,-0.23431406830143536,0.23244685821497074,0.4287635746176612,0.31994586194649677,0.34056845173951167,0.3255854108460373,0.4054135700647312,0.40631353409938853,0.3544169022390849,0.41489534422479435,0.4053135026640567,0.3865576242219364,0.37606127211486906,0.37387581401872283,0.3713606059267823,0.3511830030770383,0.3394591607855677,0.3623034784534317,0.4110681326809954,0.0,0.0,0.0,N
0.8214902183546734,0.685471737757774,0.05311487822824783,-0.6846025918978464,-0.6587459441665711,-0.23431406830143536,0.23244685821497074,0.4287635746176612,0.31994586194649677,0.34056845173951167,0.3255854108460373,0.4054135700647312,0.40631353409938853,0.3544169022390849,0.41489534422479435,0.4053135026640567,0.3865576242219364,0.37606127211486906,0.37387581401872283,0.3713606059267823,0.3511830030770383,0.3394591607855677,0.3623034784534317,0.4110681326809954,0.3641317806603317,0.37795522828198824,0.3569836508671401,0.3620826987328364,0.33245439801074855,0.3202706723099543,0.3168708633339798,0.29621244868054314,0.2843921098503845,0.2988149159057772,0.2352226746813223,0.2587497725999567,0.2912057414369975,0.2978494761000146,0.27869894097276254,0.2511508739440618,0.24998088216047393,0.24044226600440616,0.2399278642111932,0.23106878779994744,0.24863573640779865,0.19704628368459143,0.16320951900217287,0.18189275824363332,0.15751053060112175,0.1595889519512345,0.15337177410323777,0.11279208229786139,0.10737364005541825,0.1284284645498022,0.08036672232447602,0.06747095943371036,0.08105161220726428,0.06896812273898434,0.02253018474577132,0.028638592242366243,0.04384205594924024,0.03337927477012632,0.032009779408262315,0.013662014036950682,0.03916557654282766,0.012927631730443912,0.02184790747715198,0.022474096378799564,0.04956496417770468,-0.001162937773865742,-0.0167400215428887,0.06366262302540883,0.02279129234870796,0.01706761370916701,0.05518086703669034,0.06760906453710594,0.0891115190265836,0.08492615426618573,0.11588189359783346,0.14721579059422285,0.10071366253746655,0.14148426916497037,0.13917139985424296,0.12853063270968548,0.11824645585003066,0.09962245198840179,0.09872213811053498,0.14160853308990648,0.09792179741728659,0.1935967699659263,0.16792044293159725,0.18599527796115187,0.22174000682232012,0.24038229993021917,0.24190924450482437,0.2523771199832804,0.27177060212784043,0.27400271068648824,0.3025061575639815,0.28774057676062464,0.3252765858941721,0.32819060497881036,0.3485995296653657,0.3517173008894086,0.4070376931035381,0.4797711456591715,0.47429514308569953,0.46878739858124574,0.47190220285843354,0.4575309771880012,0.46039370296323373,0.4196166287840765,0.4568164601826444,0.4415939946974393,0.4781812929426852,0.4622450545332783,0.4545620843258889,0.3942450366847913,0.42027731481696884,0.4283166721699753,0.505201651081698,0.6943179954255482,0.8478660327897735,0.7832820936677524,0.6308429987667298,-0.0614171498234639,-0.7461022959623385,-0.6411770017221476,-0.1898434735044818,0.2342780451140168,0.3966274477062582,0.4015585801276268,0.3794936992249378,0.38264187166609775,0.40237934701695544,0.4300804616340011,0.4744978027294361,0.4661706247271459,0.47467791158157085,0.44793447712690504,0.43813433832246096,0.4366383528216039,0.38266439934866925,0.35447027545579746,0.3781710771157933,0.39297881418785346,0.38155426255690417,0.0,0.0,0.0,N
0.7832820936677524,0.6308429987667298,-0.0614171498234639,-0.7461022959623385,-0.6411770017221476,-0.1898434735044818,0.2342780451140168,0.3966274477062582,0.4015585801276268,0.3794936992249378,0.38264187166609775,0.40237934701695544,0.4300804616340011,0.4744978027294361,0.4661706247271459,0.47467791158157085,0.44793447712690504,0.43813433832246096,0.4366383528216039,0.38266439934866925,0.35447027545579746,0.3781710771157933,0.39297881418785346,0.38155426255690417,0.3439364959662466,0.32361333726898456,0.3640708896357421,0.30023048514110273,0.2624761022967867,0.31166916745230355,0.2914165101710744,0.26257668607626006,0.24255613682735505,0.24006985982420015,0.2812119024383983,0.24434287829646076,0.2598358048758561,0.25818945628653034,0.2481124898454128,0.2991431915557129,0.2809455852050599,0.26305522051825614,0.20203453460127777,0.20217688267979064,0.2287325077872183,0.20349998519145565,0.1786287171412046,0.1975769570090182,0.18214022575674058,0.1670847643523308,0.12634498342905764,0.15551629746349108,0.1503204675541531,0.14552057923764775,0.10635791543845653,0.12842500212151092,0.09875068043281145,0.060785514165363264,0.09274009886366179,0.1337826241250623,0.10570055309397967,0.10408330752616972,0.12023820415994586,0.1194016451884147,0.06680943161366208,0.08411913220156324,0.01490377763169686,0.03296097028445754,0.03400403398221327,-0.00804268987151168,-0.006283322002462905,0.021897204404474905,-0.010406497929777325,-0.0076071668696360475,0.01291174044688561,-0.0009930359422651242,0.028887150085502866,0.059099199724072245,0.054880001107798344,0.0857477233897149,0.07348802792705768,0.0789282493580148,0.10206443524707313,0.14289223851747276,0.13188575076049305,0.08641966286845126,0.11076932006714173,0.11802674520713669,0.06473406417352347,0.14206635987568622,0.1327622168702037,0.1237141075496628,0.16705331499067377,0.193248664432186,0.19359906548013536,0.2115432497544741,0.17754727298892692,0.17849849797298503,0.24914261150243625,0.267802043108563,0.26922034138160544,0.25337919039669615,0.263709585008376,0.2654300707892264,0.3106591885261341,0.3646128380934011,0.42726589157427913,0.43776047835426796,0.46558856213275535,0.48464847266828354,0.48621647452903005,0.45287627766458627,0.4801808688330702,0.45511781738185825,0.42978478790222063,0.4388969066438948,0.43895596854667057,0.4212220995706971,0.35088283676761145,0.3843065013554604,0.4258458502276378,0.5102036893883767,0.6547004328602127,0.8071328926374497,0.8197031620737737,0.7271020577590912,0.0860590720752296,-0.7124473259888575,-0.6778200327801848,-0.2098152823454902,0.25711455866671046,0.41019889532684756,0.4580737297059424,0.47033091086097045,0.4296586837180276,0.44040478081577816,0.43311215887500626,0.46867354323593796,0.4602472602822126,0.43396100092065304,0.43332041757422696,0.44099807322733586,0.4049038387574008,0.39460721931859977,0.46229543279347046,0.42552017687043125,0.4059854359285438,0.0,0.0,0.0,N
0.8197031620737737,0.7271020577590912,0.0860590720752296,-0.7124473259888575,-0.6778200327801848,-0.2098152823454902,0.25711455866671046,0.41019889532684756,0.4580737297059424,0.47033091086097045,0.4296586837180276,0.44040478081577816,0.43311215887500626,0.46867354323593796,0.4602472602822126,0.43396100092065304,0.43332041757422696,0.44099807322733586,0.4049038387574008,0.39460721931859977,0.46229543279347046,0.42552017687043125,0.4059854359285438,0.438491752983755,0.4101054077290391,0.4425240345566287,0.3967392760450251,0.350993846558134,0.36614821401103437,0.34663872657755734,0.3446321350862559,0.2993217492811502,0.3063215205176005,0.3048215387702051,0.2687708879108522,0.30246909834708186,0.2755808094739717,0.22288164448934575,0.2834274252016579,0.2052169470811009,0.17944428864811837,0.1974294806852878,0.1983508684964049,0.13876607299030813,0.1664146135984011,0.14226098050636096,0.11845172210370447,0.13844254409882278,0.13271685205059655,0.1012784103149705,0.08758097654474443,0.10031727649577434,0.07865854700924879,0.06605709985465083,0.0712043280038361,0.041960374509599496,0.06522712842266512,0.0454135100911999,0.06073074125219018,0.041657583179279645,0.05771459551197484,0.04807015895852032,0.04748381079263688,0.02988392830368897,0.038719702371771705,0.07398951757622325,0.03140998838319304,0.03264077509304255,0.0689894103128452,0.06224221243601434,0.003706205918696382,0.05849073153043701,0.05278998783705238,0.06481169086117014,0.09455211028947111,0.037725615235504835,0.07682043746763093,0.08147989058210203,0.06038900609255265,0.07437319637050288,0.0712858639515424,0.11195174739617904,0.08339260131113929,0.0985730363262127,0.09665461858372075,0.15584052338037235,0.1457702897104297,0.15333596177111491,0.1698374097697477,0.16919347448139255,0.16008267299895734,0.22939385883398514,0.21200127517418485,0.2556227477820019,0.22989083837436738,0.2825210345936118,0.28314347058873535,0.30995002093291874,0.3194693052148671,0.311679050154296,0.38214683026284885,0.4004952458751184,0.4275278768684534,0.4545252496341885,0.46407562154805115,0.4474551087357433,0.4741486893308667,0.4398364766670179,0.42268897223503127,0.4661139528384654,0.43971445431155604,0.43034446632435186,0.38581367795506033,0.4103519913315731,0.36486370097914556,0.4057155164546612,0.47201903859092165,0.6506160730389382,0.8024026495727292,0.8404123331432864,0.6776746766883534,-0.13777048671736178,-0.7804374000677418,-0.5812495829324462,-0.05291428049446717,0.2919164807735822,0.40117266419555886,0.37920513828493146,0.3998838167016317,0.3850629071694309,0.38694658863636255,0.422976589231032,0.44107165133931653,0.45866945347393207,0.44975481190822236,0.4143806436969326,0.4308087995067564,0.4208766933291533,0.40201103025003904,0.435087067852978,0.4071754261419217,0.44866822821972857,0.4031812258967645,0.409792394433839,0.41639480290872466,0.3708794714372213,0.3427971774282375,0.0,0.0,0.0,N
0.8404123331432864,0.6776746766883534,-0.13777048671736178,-0.7804374000677418,-0.5812495829324462,-0.05291428049446717,0.2919164807735822,0.40117266419555886,0.37920513828493146,0.3998838167016317,0.3850629071694309,0.38694658863636255,0.422976589231032,0.44107165133931653,0.45866945347393207,0.44975481190822236,0.4143806436969326,0.4308087995067564,0.4208766933291533,0.40201103025003904,0.435087067852978,0.4071754261419217,0.44866822821972857,0.4031812258967645,0.409792394433839,0.41639480290872466,0.3708794714372213,0.3427971774282375,0.2887251360024248,0.3303513444427854,0.2938978896150571,0.32712006754850903,0.29099736936760073,0.2290004094971388,0.24542926700864423,0.24470985431845982,0.2094780390826012,0.2440303046749352,0.22671867129733314,0.235766960653274,0.21904589020953388,0.1852559182316472,0.2039273273892587,0.16209671517173754,0.09453189282760813,0.10552091213160363,0.12554872467453151,0.09378988581886168,0.06239003107434058,0.06611406424883949,0.04413513206162044,0.08335828405741647,0.07081532745216956,0.06734028019486298,0.09900628065295033,0.05284402847291515,0.09396793230897603,0.0920276698036247,0.09916520766037594,0.08062073868216472,0.0798451422318955,0.0794579749352177,0.07076852556829274,0.045085685617407376,0.07192917511222817,0.055705992505755204,0.057245141377128356,0.059164164389517306,0.08753097486150023,0.03806121964748722,0.023723392352590907,0.05320421976114883,0.022218602149636762,-0.008406330078329884,0.039536705140299715,0.027002504064356926,0.09302986930828586,0.05512260755375647,0.07838931538201525,0.10199489797947084,0.09117426271462425,0.0806828579912712,0.12265593909433999,0.13018625587489976,0.1467179155476703,0.12879306063386134,0.11116428245111239,0.17203418523287523,0.16366140160938936,0.16424711982176807,0.13032987053699346,0.1661795965822408,0.184882698858425,0.17773592975448568,0.23162656238432205,0.23356795952905368,0.2443749533614498,0.28141055133336673,0.2490648311309938,0.2515994850408945,0.2976835148870224,0.3003932193574523,0.30315537936603043,0.3754656679891756,0.4390860091306172,0.4852975003755295,0.4879987811265947,0.49929724668500086,0.519157064100692,0.44325832742270144,0.46274300170632676,0.4732863689236438,0.4140120542128349,0.4586748634382608,0.416042014602642,0.39903303050218897,0.39021338307969317,0.38083668048901625,0.4229854994506659,0.45576880461084734,0.5660256790840609,0.788452138883445,0.8709670344783812,0.7179076388495722,0.2770575270236628,-0.6167750234017957,-0.7122917057925267,-0.3397395303596289,0.15332189764540213,0.3846047227215634,0.44977754845063245,0.4705774495194425,0.43838728108373826,0.4575592533029164,0.5107815451328449,0.5025288653471172,0.4589352080787239,0.4495827116974446,0.4658400375110105,0.45562294203247855,0.41029550945583376,0.4428813851274739,0.4404587471344491,0.45521605530512266,0.46981851616433706,0.4147882718993196,0.42920826863407063,0.0,0.0,0.0,N
0.8709670344783812,0.7179076388495722,0.2770575270236628,-0.6167750234017957,-0.7122917057925267,-0.3397395303596289,0.15332189764540213,0.3846047227215634,0.44977754845063245,0.4705774495194425,0.43838728108373826,0.4575592533029164,0.5107815451328449,0.5025288653471172,0.4589352080787239,0.4495827116974446,0.4658400375110105,0.45562294203247855,0.41029550945583376,0.4428813851274739,0.4404587471344491,0.45521605530512266,0.46981851616433706,0.4147882718993196,0.42920826863407063,0.4175258313932078,0.4753690294369134,0.42896977173329714,0.4347825827017984,0.40593616337875194,0.3598386174022552,0.33127628148203514,0.27682251074872355,0.3094713687235604,0.25544119939987,0.2885540544630561,0.26978597884849465,0.25129446499819685,0.24178499954316424,0.22389141851340405,0.23238713727126434,0.19776287520732352,0.18955029179604285,0.15561821843038456,0.13073585251408243,0.15836174473600143,0.11684129595750527,0.14522305651792622,0.11316091988720153,0.0814909436968934,0.09366835702151843,0.08017627358997477,0.12791970356139074,0.08047957767928066,0.11166117938511783,0.08242466017845652,0.079673029034754,0.03388651803415128,0.05803771979232879,0.065226035839246,0.06414202265471727,0.07216604196460087,0.0632274779035264,0.037325747904582804,0.029220478768361886,0.038910585161823594,0.04901457289708786,0.016080359104679566,0.04438784923805134,0.029653715319506512,0.041397034956563716,0.0274748982210419,0.0660961588429314,0.06166690565326985,0.07501526177431614,0.036617071350454646,0.05944056235044551,0.06527088938078442,0.12362514324094757,0.11283719809905662,0.11980346302687064,0.07499741813814297,0.12614522893488866,0.08205756225933207,0.09914970927647587,0.11658326645793458,0.09089959727922249,0.10899145294286762,0.1360892908862886,0.13742302358963915,0.17381332822507262,0.21917888108739353,0.17791643839498064,0.20643547038227653,0.20044061641483948,0.22943811120533728,0.2499614793724556,0.2533036238492164,0.25682659188991364,0.260510901478276,0.2643357864650725,0.268279178146565,0.2636275547638597,0.3285673669244029,0.3761712509496287,0.3977213827101442,0.4105684513489706,0.4755118142833309,0.47085601718750675,0.5008466439585079,0.49592429668879656,0.46473825562362286,0.424625452762976,0.4537514160491287,0.4390966600201819,0.4588223207340636,0.4433551053696094,0.4621615290136205,0.41090326245290926,0.4024929500722197,0.4281793424728606,0.5052795719200593,0.6511086297823308,0.8829789810303297,0.7315524780230701,0.5269786448371836,-0.3217505780927348,-0.7632110551191532,-0.5454401709021434,-0.050782395515825134,0.31239922365324807,0.45728132446635106,0.4534613475606551,0.4748160236813863,0.4692764004852332,0.4542922025585499,0.49076146498680384,0.5092279807511032,0.5010640086587927,0.466329392753536,0.4919827855211842,0.4737976175237166,0.4465869614287542,0.427781258163384,0.4261185843436628,0.4416447463031329,0.42226263152507665,0.0,0.0,0.0,N
0.7315524780230701,0.5269786448371836,-0.3217505780927348,-0.7632110551191532,-0.5454401709021434,-0.050782395515825134,0.31239922365324807,0.45728132446635106,0.4534613475606551,0.4748160236813863,0.4692764004852332,0.4542922025585499,0.49076146498680384,0.5092279807511032,0.5010640086587927,0.466329392753536,0.4919827855211842,0.4737976175237166,0.4465869614287542,0.427781258163384,0.4261185843436628,0.4416447463031329,0.42226263152507665,0.39408410165505214,0.4353596952827982,0.43315509030063737,0.38750549569331566,0.3853452684323581,0.3919449886946879,0.3812634413071093,0.3446377141239287,0.2907832514346918,0.2718644312214892,0.2618329951641462,0.21725906286788607,0.233753546792525,0.2244335142018802,0.2762174911164964,0.2674597283599935,0.2850762486978894,0.2508692414488216,0.2778223608270919,0.2529745909189947,0.22847602284725851,0.18695443185187283,0.18055750180249733,0.13977014252950934,0.08197767483800794,0.050635114811048695,0.0631266745146437,0.032554736324554155,0.028443731755183953,0.06817714128991686,0.07354685805502408,0.09669640493441646,0.05941696643436835,0.07468213385603703,0.11642309939617845,0.08035949945487143,0.053393278593605556,0.1050457168239269,0.11365493691408088,0.10529076979952101,0.05388168988367781,0.02894709025458667,0.05655543771071804,0.04111321504796804,0.043448987057059525,0.07225032470530167,0.040613136576614306,0.009365203399086103,0.04802423421134581,0.05230526370154355,0.02220466295133549,0.035929723902066925,0.023955394075976043,0.012347886485135367,0.09669434537443171,0.05973712370528855,0.06658387152121772,0.10853931265565088,0.09869665563665418,0.13264132519641525,0.12346549368315873,0.12330277225805238,0.14083549787368022,0.13260460271142638,0.13336149716119308,0.11702600895630738,0.14441861278484122,0.18076775306636791,0.16523075799872752,0.12386536570322546,0.15224953915716166,0.20691851999143832,0.18357586895570013,0.212557659365015,0.2156358936257519,0.2449334819993291,0.3004314683103583,0.3038984893300332,0.290073387563106,0.28500335464565923,0.37556505148039876,0.4487606923001264,0.4611116645221714,0.542939739284863,0.4943393898717309,0.5238385495500931,0.49235742484139455,0.4346162305987934,0.46354390227433173,0.44005339232842905,0.4596888826600162,0.47026012150527,0.38481403315106194,0.39447939462279397,0.4122988548365637,0.40345387856883413,0.4634758397451401,0.5575421243782768,0.6942784579829558,0.8388571214821513,0.8174048223869781,0.5516355190613972,-0.4017264349561118,-0.7740035631887187,-0.47833809231461,-0.001347389504192639,0.3268189849629122,0.41064514596710905,0.4240076469567932,0.42780928026372994,0.46557045542900305,0.46783773505639553,0.5041974559169817,0.4965013821973686,0.49695072774022925,0.41870212186175676,0.4443037817874206,0.4434571016880501,0.4335934876113586,0.43214212831955034,0.43914978185494524,0.402520257291883,0.391817007222917,0.4418409461344219,0.0,0.0,0.0,N
0.8174048223869781,0.5516355190613972,-0.4017264349561118,-0.7740035631887187,-0.47833809231461,-0.001347389504192639,0.3268189849629122,0.41064514596710905,0.4240076469567932,0.42780928026372994,0.46557045542900305,0.46783773505639553,0.5041974559169817,0.4965013821973686,0.49695072774022925,0.41870212186175676,0.4443037817874206,0.4434571016880501,0.4335934876113586,0.43214212831955034,0.43914978185494524,0.402520257291883,0.391817007222917,0.4418409461344219,0.4222785332794975,0.4635179599932054,0.43524136493124815,0.3896213280602125,0.3701381217636373,0.38550954481352756,0.35755023152904813,0.3210445965725397,0.3281555296076312,0.30069234443162224,0.33426534158862564,0.2724695082505627,0.2891231525591232,0.25388862214064806,0.2797504975399612,0.22767827994830672,0.20196375033868683,0.23737650028291954,0.1688120898809401,0.10924909638932075,0.11083433337062251,0.08667196612235543,0.05414718228503918,0.06540526164425545,0.11176029361611263,0.10631485820440331,0.10121307863102107,0.10514788966245293,0.11812158862356978,0.07930502746623223,0.03215004404903467,0.06355873658654956,0.05186988951377515,0.04922459699648816,0.03824264284123307,0.036304090236461486,0.04340854840496474,0.050865313672859694,0.023913071194852108,-0.0026886971911363475,0.04057989629235235,0.04943636732454784,0.02387960519987501,0.024739171664483632,0.025943195304266756,0.027490075137928293,0.029378080468195383,0.031605343147419585,-0.009280808743565497,0.028379290997596465,0.03161264309206934,0.07862899664146994,0.03907478965484544,0.025919745530505786,0.06523207853058191,0.09617855955624617,0.07530589610072436,0.0634418912791215,0.06058305204350024,0.04065517400779765,0.09055545776159052,0.0886177475892315,0.08697806252224587,0.0943213216223056,0.13671227181321613,0.11855334914505167,0.15280945913588073,0.16126202426011813,0.16128314808333655,0.1354836023560954,0.16206479755166736,0.22363602158685936,0.18114391278736766,0.18230832671414146,0.21842584843655052,0.22865136322499233,0.23034984660662985,0.24957526222803286,0.2602396337291997,0.28839452513115543,0.3427099365043104,0.43185442594644935,0.4689033928672206,0.45383139116637305,0.464821812612699,0.41494328366979644,0.4258252597215539,0.42791223115853383,0.42116761025478416,0.3707921442183049,0.44185749607217517,0.4605183512060532,0.4180396818703549,0.43603612836708605,0.40148669364182027,0.4794524044986273,0.6003587331500858,0.7728399369327593,0.7969641183601915,0.6813586687755955,0.03490095139533049,-0.6992824652401728,-0.6522487496603111,-0.15422676847906647,0.2560534222914425,0.43093233011214177,0.40524194107753,0.4484456337784778,0.4476389800423354,0.4724080683689682,0.4967453039248873,0.529401255341154,0.5096029565125252,0.5764478159806115,0.538805701975764,0.5096981986570617,0.5239330137690656,0.5294139928031131,0.5261831498428107,0.5403502460304703,0.5545717547115384,0.5515014474802321,0.5572409799531093,0.0,0.0,0.0,N
0.7969641183601915,0.6813586687755955,0.03490095139533049,-0.6992824652401728,-0.6522487496603111,-0.15422676847906647,0.2560534222914425,0.43093233011214177,0.40524194107753,0.4484456337784778,0.4476389800423354,0.4724080683689682,0.4967453039248873,0.529401255341154,0.5096029565125252,0.5764478159806115,0.538805701975764,0.5096981986570617,0.5239330137690656,0.5294139928031131,0.5261831498428107,0.5403502460304703,0.5545717547115384,0.5515014474802321,0.5572409799531093,0.5718188561108213,0.5865706623528961,0.5667587318559122,0.538473384576697,0.5364922380546424,0.5347592978286555,0.5072158869764528,0.5407723626701619,0.5485339184780142,0.5478846206211044,0.5475156612747119,0.5300450990623428,0.49546851778164325,0.6175814785292258,0.6356704962479601,0.6626946471509149,0.73339864671267,0.7000311380338844,0.7537522208946836,0.6425217947321258,0.6096334786668794,0.5594625555379397,0.5528036247889235,0.45057546689753925,0.417848696491179,0.3937482595380999,0.3434674068917457,0.31909873442649267,0.3553528579272364,0.3739670897943002,0.366198016673502,0.4188918005136644,0.6015125095210805,0.9053109350570321,1.0,0.703020334069582,-0.3941358487964246,-0.7447002901117007,-0.22704883418487584,0.2463877874324353,0.3106786895299192,0.3482430533135097,0.32437220053698507,0.34339781375842665,0.29239666926933583,0.26700697940149865,0.2064431297313397,0.2324109297010705,0.25805200350790036,0.3355489153139588,0.3172099173682273,0.359496182342918,0.36685348695018677,0.3480073869359543,0.3203717351549297,0.37087969543467175,0.3865898080909326,0.35015020417944126,0.2876577386880011,0.2599680413582871,0.29317477813838794,0.2569479503641703,0.2990402975367484,0.23697828212100733,0.25327238918171385,0.23496745210063924,0.22552940266962418,0.2597328664670251,0.2419993707808391,0.21579124625430005,0.17242882527644923,0.1901326750423275,0.15593961032594134,0.11330786000993728,0.14914553016002535,0.15048713864948482,0.15209869101973608,0.12791452074294474,0.16483990868872106,0.12383608037227158,0.14394764114839773,0.10351463590480679,0.04598888593923857,0.10172300873848393,0.08822466230087334,0.11846546280127793,0.0881633008856802,0.05814797102098703,0.06317843272893149,0.07718243515783008,0.08277754294005847,0.04520067204337035,0.051350163814927595,0.08384255708385473,-0.022438099467335094,0.010588523818462835,0.026498319406648523,0.05135988572068766,0.07648116318755648,0.006268521672571683,0.057972678179265,0.08385880056719056,0.03178321197096535,0.006024181003218961,-0.002111890530379037,0.01606163180738208,0.025780926202198007,-0.007717909468394439,-0.006227198340589793,0.012870024512363411,0.02350118422483579,-0.0004063584189245046,0.001975953621640013,-0.021494991899763193,-0.0013004778420717485,0.010418415692884493,0.013661520406008983,-0.0350220409749887,0.06424046450424495,0.09419879083324854,0.06354578658103795,0.033114617580013626,0.0,0.0,0.0,N
1.0,0.703020334069582,-0.3941358487964246,-0.7447002901117007,-0.22704883418487584,0.2463877874324353,0.3106786895299192,0.3482430533135097,0.32437220053698507,0.34339781375842665,0.29239666926933583,0.26700697940149865,0.2064431297313397,0.2324109297010705,0.25805200350790036,0.3355489153139588,0.3172099173682273,0.359496182342918,0.36685348695018677,0.3480073869359543,0.3203717351549297,0.37087969543467175,0.3865898080909326,0.35015020417944126,0.2876577386880011,0.2599680413582871,0.29317477813838794,0.2569479503641703,0.2990402975367484,0.23697828212100733,0.25327238918171385,0.23496745210063924,0.22552940266962418,0.2597328664670251,0.2419993707808391,0.21579124625430005,0.17242882527644923,0.1901326750423275,0.15593961032594134,0.11330786000993728,0.14914553016002535,0.15048713864948482,0.15209869101973608,0.12791452074294474,0.16483990868872106,0.12383608037227158,0.14394764114839773,0.10351463590480679,0.04598888593923857,0.10172300873848393,0.08822466230087334,0.11846546280127793,0.0881633008856802,0.05814797102098703,0.06317843272893149,0.07718243515783008,0.08277754294005847,0.04520067204337035,0.051350163814927595,0.08384255708385473,-0.022438099467335094,0.010588523818462835,0.026498319406648523,0.05135988572068766,0.07648116318755648,0.006268521672571683,0.057972678179265,0.08385880056719056,0.03178321197096535,0.006024181003218961,-0.002111890530379037,0.01606163180738208,0.025780926202198007,-0.007717909468394439,-0.006227198340589793,0.012870024512363411,0.02350118422483579,-0.0004063584189245046,0.001975953621640013,-0.021494991899763193,-0.0013004778420717485,0.010418415692884493,0.013661520406008983,-0.0350220409749887,0.06424046450424495,0.09419879083324854,0.06354578658103795,0.033114617580013626,0.08111839468608897,0.04244638464784334,0.05614204678969,0.02661508104609602,0.04076766554197876,0.11598079431706568,0.06976223591962563,0.04984417129043274,0.030155805034619697,0.03676688079380152,0.0783667286781215,0.07674318120108836,0.10141591243835914,0.08286211073011583,0.07322029660410091,0.1159384449012802,0.15018258784645966,0.10642804659599753,0.13240267579888954,0.15858051355832156,0.1328151987165463,0.1767622047377102,0.18613292522816613,0.20437010337903533,0.1619438438259127,0.1978863823832298,0.1557646783546145,0.2093696939082594,0.17619622596381934,0.19527288551273297,0.18837411815973268,0.24238588929336086,0.2356300694022157,0.176779287688795,0.23092735997726424,0.27639288277998864,0.26101434898231807,0.28036110290098065,0.3344097386425057,0.336234134745677,0.40746965072993857,0.4264262864098149,0.47997515728093015,0.5333234074403528,0.4821547300995804,0.5176146186446577,0.4832409006390557,0.47458262548362107,0.4829048498600203,0.46470973203190014,0.4373279353722194,0.43546806245772285,0.4416957409681397,0.4559546839953329,0.5998482354195829,0.8211748318232884,0.8591667575183173,0.7658969204864083,0.14154710131191284,0.0,0.0,0.0,N
0.4559546839953329,0.5998482354195829,0.8211748318232884,0.8591667575183173,0.7658969204864083,0.14154710131191284,-0.6576633191740134,-0.641136077411437,-0.2607722402781328,0.1706301352950477,0.31422737161141046,0.33520255764452356,0.34659642297375803,0.33978618189857285,0.4104288922509895,0.4369266285265422,0.42803138371964994,0.44463375444892705,0.41727022653272255,0.4242072960164053,0.3699067450697497,0.37608151923162675,0.3645696928540512,0.38755943052478775,0.3842653660922365,0.41556203487476795,0.4206602115967991,0.3909093814299101,0.3697977145019616,0.3486706381365683,0.3275618620449954,0.37602440359510153,0.38111688344475075,0.3254874872682427,0.339514728551252,0.37977286581755487,0.38545419726483854,0.3391997791075762,0.3018599226752624,0.3082128491698267,0.29744382535513153,0.2869477593168005,0.29411807192133044,0.27551582966286003,0.25722167945495256,0.25662475925579975,0.2476622640340809,0.2042701056346788,0.21335466548205606,0.2053989388781321,0.16302564260883698,0.14706764885141418,0.09669517538777096,0.15095072631470097,0.16210198683775953,0.12145798942843933,0.13329866393919879,0.11072044265564149,0.10586119338962038,0.16216809897455192,0.14928518541342406,0.17148921502675268,0.15925357618466499,0.09519158806855121,0.10095787561148994,0.08095330338304223,0.10469072731162965,0.10264049653958766,0.09217375051784596,0.08197098411862837,0.0372615744642905,0.03624619671316728,0.035463500448597966,-0.008548045977061968,0.008482081866832861,0.043092987079503306,0.04313359897353816,0.025973682406375143,0.00029265519123370184,-0.01654006335085583,0.03629560151897609,-0.01501225131240585,0.012019681989001253,0.004411664629490342,0.07512731549874437,0.024285501884092155,0.034370495990099836,0.035852638683355045,0.028723149987750288,0.030353333416430504,0.014663691985675359,-0.009664897550010286,0.018189156502756727,0.06345691886417344,-0.02160234458224585,-0.04581456156488137,0.008193764886160746,0.010068250728330681,-0.005433032901507384,-0.020932327960189182,0.0,0.0,0.0,0.0,0.0,0.0,0.0,0.0,0.0,0.0,0.0,0.0,0.0,0.0,0.0,0.0,0.0,0.0,0.0,0.0,0.0,0.0,0.0,0.0,0.0,0.0,0.0,0.0,0.0,0.0,0.0,0.0,0.0,0.0,0.0,0.0,0.0,0.0,0.0,0.0,0.0,0.0,0.0,0.0,0.0,0.0,0.0,0.0,0.0,0.0,N
0.3164317617069511,0.36153390796536594,0.4335724329245768,0.6012929528359799,0.672042924452297,0.5701071101093975,0.2266457538137006,-0.4203049090787543,-0.5315814894832551,-0.24477621704305355,0.1305981317108168,0.291930875873113,0.3355835108878686,0.3304007050040522,0.31771008101239273,0.3388376097000937,0.32504620314121274,0.3726892844658703,0.35799571124768914,0.3566788922838374,0.3275101343450145,0.3668357985108846,0.3164834585591016,0.32094789703586424,0.32523589940011016,0.3087468557971483,0.32654579092967534,0.3442712412588812,0.34131779428734393,0.3108359999317777,0.34227848791232335,0.2980945515584691,0.2883700806734299,0.3062491625397513,0.2829648656230333,0.307962090502003,0.2574402244907487,0.26899310672941606,0.23945382317603187,0.24450400383754378,0.17409535055215786,0.22084738558559877,0.212800140812759,0.18435780042674213,0.19743885216063303,0.1626263404847454,0.15559452791924339,0.1350765518046765,0.11483550659032506,0.10175496945753905,0.06832373398427916,0.09709155513639947,0.05048490593560261,0.045446923697153786,0.08198018126387634,0.0775409216219195,0.07340413178960967,0.10396556919549389,0.07980147031437669,0.00779133818561474,0.011754588889125388,0.02978186864850945,0.04123681622545121,0.01860407958712034,0.02379304502383226,0.036166903183449006,0.04196756763377857,0.020557929222941723,0.020089087812934225,0.047438989165077765,0.07509126916939844,0.013619749554434894,0.021236184458547032,0.022271635825522884,-0.010791047385572763,-0.002286499296284772,0.020269042843774045,0.029359559002423912,0.0800150304243269,0.055294244427066444,0.023984319152699496,0.013599044961032815,0.10668282737164808,0.06935327719102162,0.0598214592662574,0.016175151352591528,0.0691094048827605,0.019134779925521043,0.045097794687027334,0.10572193137405206,0.09094202785268121,0.09017880804931201,0.0896699129026327,0.11004674188314754,0.08939414348974073,0.11713093746135576,0.12446213320727845,0.13889594087450555,0.20169763206971042,0.2234337881016069,0.23161029383866105,0.23309539132488427,0.2553926902083325,0.25033737392322064,0.252309451562368,0.25441462922069646,0.2979092446420691,0.30022920956411897,0.33014346765202496,0.36699451691769086,0.39012320465568223,0.40638391072866514,0.40887138061293954,0.4044360116355944,0.37241078922613036,0.31276320228950394,0.36991455726532246,0.3924943957148154,0.38046493110019486,0.4163325170337496,0.4175093995590015,0.3839518456789433,0.35688708616059706,0.3431462225859002,0.3358008883310165,0.43110362931856644,0.6014861585336453,0.7643472983618308,0.6444752909731115,0.5032042238443463,-0.1823230128335911,-0.6142284029380536,-0.4348624903111394,-0.06382660012102481,0.182501882678263,0.26978415395173244,0.30125733475840466,0.3251264621551604,0.32080664806049297,0.3158632719567844,0.2897082160969764,0.2767825184990219,0.290889242984279,0.3183147019208278,0.2834341762639921,0.31010777006555335,0.2676770204550731,0.0,0.0,0.0,N
0.6444752909731115,0.5032042238443463,-0.1823230128335911,-0.6142284029380536,-0.4348624903111394,-0.06382660012102481,0.182501882678263,0.26978415395173244,0.30125733475840466,0.3251264621551604,0.32080664806049297,0.3158632719567844,0.2897082160969764,0.2767825184990219,0.290889242984279,0.3183147019208278,0.2834341762639921,0.31010777006555335,0.2676770204550731,0.3143932732004576,0.2989586508518015,0.33146969562934286,0.3087773565197549,0.3203384979460297,0.3111527608557785,0.2881277614706646,0.2512907183633755,0.23506161889364785,0.23258614265659805,0.16134153320236397,0.18644217901653687,0.1565749351591617,0.22309476742692602,0.21405029013878976,0.22576383566155664,0.2651317216033528,0.27026071790141254,0.2961965808822743,0.2948010872913173,0.2936017936279005,0.29948825673043244,0.2436813046914691,0.22937131529156535,0.20153408454581243,0.19456920611995202,0.16720800527241866,0.11945388572664395,0.06506709893637572,0.017807299085933002,-0.03608155251654515,-0.020930639092188157,-0.03303876324391889,0.0032683079653361502,-0.015181942859295288,0.001045523330571427,0.031325717705151704,0.06879132997738656,0.06530184192060094,0.08277786151421077,0.09371472572119531,0.11188040892625399,0.1441635750552863,0.14930043543594793,0.16857258320007487,0.14007823669975625,0.15324929289793393,0.1530612687777687,0.15327733392767018,0.17453873451487523,0.20309174089409437,0.1839086994153378,0.19953777867333675,0.18807054813072838,0.2182955753795108,0.2145448080703441,0.21121057253875222,0.1876533873148483,0.1713846080720816,0.21055117787247893,0.19508581949608642,0.20752777575185763,0.2203538438569074,0.21291862527464292,0.21272751289545147,0.17849641616488068,0.17212280916848324,0.15919948711733248,0.14659143591948365,0.10676863605969973,0.10162527957279084,0.10363008014315989,0.09900892709915438,0.08086603350389229,0.07669932680171249,0.10024864633644366,0.13085923852942383,0.14099700667358778,0.12376372542119154,0.1823219346021988,0.19283177301729273,0.2171811987571089,0.20031689370550532,0.25227665908445734,0.2836108798615038,0.34932435920948524,0.35308596077307436,0.37741269058960125,0.3603641096779948,0.350059362156472,0.27079663638961715,0.3632990971630842,0.3317388882359825,0.2861380080970432,0.30212258711469914,0.29710396160840274,0.2779169017918978,0.2513946923591202,0.2862788053860382,0.29309609261621883,0.40249491472468324,0.5525145941211929,0.6124040218892224,0.5958650061278727,0.1038657798058565,-0.5678653730308423,-0.5388991274255776,-0.1875802761976149,0.16970716021742777,0.26474887470637065,0.29021211792671037,0.3080648209733149,0.2839696774880642,0.252376259640446,0.26149040352190334,0.2700917388353537,0.34702005799443775,0.3203543369731061,0.3277197014777283,0.37604167962473367,0.3277884813434465,0.3687320049578442,0.3407004155909317,0.38131023576805473,0.35990145099079934,0.35217739676471205,0.38568771589188483,0.4054341876653699,0.0,0.0,0.0,N
0.5958650061278727,0.1038657798058565,-0.5678653730308423,-0.5388991274255776,-0.1875802761976149,0.16970716021742777,0.26474887470637065,0.29021211792671037,0.3080648209733149,0.2839696774880642,0.252376259640446,0.26149040352190334,0.2700917388353537,0.34702005799443775,0.3203543369731061,0.3277197014777283,0.37604167962473367,0.3277884813434465,0.3687320049578442,0.3407004155909317,0.38131023576805473,0.35990145099079934,0.35217739676471205,0.38568771589188483,0.4054341876653699,0.39768971425066774,0.40375590572371095,0.375507439204634,0.36799960131161236,0.36749738227391193,0.3327485647821067,0.3188028804322578,0.34631418765174543,0.3121155969204642,0.3056460599321665,0.2925238138695368,0.2658809352256448,0.2738787729558614,0.2683735602184826,0.2700085796296528,0.251273878741516,0.23968889014468836,0.1939833712086791,0.16231082536577346,0.1446718929352018,0.1341875607968962,0.12397809247132402,0.08652655488563461,0.06310381392822752,0.019313042117843602,0.010182040961380683,0.028828938433984378,0.054614127830252185,0.0393824907594046,0.01752473838207813,-0.004083982594229486,0.002067912569801201,0.008461661510465898,0.015093859065182475,0.049476425303746505,0.0015443671232318352,-0.025523457521103684,-0.004215459132722769,-0.003321409879021381,0.01155194681879155,0.012888606106904087,-0.013069810857887424,0.01622203903058126,0.03197621903673718,0.027314288281353842,0.036630697315137614,0.025531341265640082,0.04904687661415327,0.010873310711493533,0.062344713540261505,0.04524721588379482,0.028368419012516972,0.04610148853491529,0.064051029365669,0.04782141591201451,0.07307817248878255,0.06415206282995535,0.055434955441393485,0.026287662987273024,0.0592533492345619,0.07866168315297306,0.07763045629718601,0.10430780199483489,0.10365883714370258,0.12383078538013173,0.10978772376870921,0.11655458038283624,0.1097307898500679,0.13746130664711315,0.1447079083191616,0.15209894584175407,0.13898899533986128,0.17415681695095192,0.16816711250857758,0.15540286699528863,0.17712506644324408,0.17829013347786957,0.20015739149165693,0.2083180116895457,0.24402942522640292,0.2866384447004948,0.30173297879261907,0.36496097315409,0.3593612919865313,0.3468208637011546,0.3204364010509985,0.3008182502254682,0.3292116808874775,0.3092836209052625,0.28915503167725215,0.303187644413428,0.2756802743858718,0.24099169109118412,0.2472369693949366,0.2668627184673606,0.29295083694935437,0.37361262424959363,0.48129065428568524,0.6021833166824572,0.5917885987932108,0.46381484041360366,-0.22203614202500727,-0.5234176322460334,-0.39909010749683627,-0.055402628215880836,0.21190871421135354,0.3065995063190364,0.3043953222270486,0.32229325436876755,0.36034856115304625,0.3704629963262672,0.38708261451406245,0.37586319917536914,0.38500470097810774,0.3732802467669747,0.38888598287038906,0.39059124470830814,0.3853153164669744,0.3937332131467487,0.4158814975158956,0.4036428704804141,0.39832289804604254,0.0,0.0,0.0,N
0.5917885987932108,0.46381484041360366,-0.22203614202500727,-0.5234176322460334,-0.39909010749683627,-0.055402628215880836,0.21190871421135354,0.3065995063190364,0.3043953222270486,0.32229325436876755,0.36034856115304625,0.3704629963262672,0.38708261451406245,0.37586319917536914,0.38500470097810774,0.3732802467669747,0.38888598287038906,0.39059124470830814,0.3853153164669744,0.3937332131467487,0.4158814975158956,0.4036428704804141,0.39832289804604254,0.39995207669313876,0.41543775317274156,0.45856411636067734,0.4261729658960949,0.4008325394971857,0.4031993670507707,0.41265492296994466,0.44297287509682415,0.4322575672620259,0.4286725985945323,0.40471214619860485,0.42917203020791006,0.41263268383644375,0.43764344156733287,0.44917473701685895,0.4678620763209797,0.49370219408645394,0.5335683274948299,0.5736947195611705,0.5727975779182166,0.46207487418442506,0.4066023400861876,0.35133045665004287,0.3512691420535699,0.29633435257795326,0.26216901905829165,0.2556261718062077,0.2560421627475439,0.24275206567728302,0.24324156737579378,0.27123745709277347,0.25791920524802636,0.2651629218923259,0.34796458559524795,0.44437853706384645,0.5612457960339603,0.774193579200456,0.9318445148185661,0.6626944198501452,-0.23967334272141486,-0.5096065599581614,-0.16777368248161767,0.15298832392964254,0.21883126133681718,0.20863667996976334,0.20498124950963326,0.2216521776024661,0.21740491190668285,0.21290336878635785,0.24944690323651955,0.24451465180226864,0.32194976034932893,0.22037900660057166,0.2012195418030859,0.271370265557589,0.24512149858229249,0.24631008957678888,0.22680061450389535,0.20724483662769377,0.18765685955367933,0.18868627631867793,0.1828298484790179,0.16321991981515957,0.17801865503969153,0.11717403940666275,0.10451379217267179,0.05062094828380916,0.06556443478717229,0.05304766906997822,0.04747173651552429,0.03508556407256359,0.0846839439532221,0.09309044581252263,0.10158389547436518,0.08265423445870794,0.09133699898808689,0.08636352562146735,0.10213195496970398,0.1386457864001664,0.14775611542425024,0.1569806050613032,0.16632081200941076,0.25144476880051725,0.2747755779221962,0.18816002914540414,0.053505008525948757,-0.012252803599137566,0.004640377304565373,0.0353933971657639,0.018093920596449077,-0.04038214590666113,-0.009339832383367833,0.021796727104906738,-0.0020015047933261416,0.02932853083092034,0.026363668359620656,0.009742065694835756,0.013859432690627529,0.02495953729453008,0.056801445697599075,0.08874988986734708,0.10016931776405802,0.1323333105651082,0.137090004094058,0.1419541332447994,0.11940901237983331,0.11760450682787868,0.09526494036536554,0.07990246759790263,0.043998031725026525,0.0288205952856488,0.006850481976809403,-0.04255328672225731,-0.06436446284784268,-0.024189281529513704,-0.01144701720595034,-0.005493176171346253,0.007438980861568307,0.027359031261456862,0.02676114766139344,0.053806626636179855,0.05347400267731006,0.03952996009485775,0.046377441484396945,0.0,0.0,0.0,N
0.9318445148185661,0.6626944198501452,-0.23967334272141486,-0.5096065599581614,-0.16777368248161767,0.15298832392964254,0.21883126133681718,0.20863667996976334,0.20498124950963326,0.2216521776024661,0.21740491190668285,0.21290336878635785,0.24944690323651955,0.24451465180226864,0.32194976034932893,0.22037900660057166,0.2012195418030859,0.271370265557589,0.24512149858229249,0.24631008957678888,0.22680061450389535,0.20724483662769377,0.18765685955367933,0.18868627631867793,0.1828298484790179,0.16321991981515957,0.17801865503969153,0.11717403940666275,0.10451379217267179,0.05062094828380916,0.06556443478717229,0.05304766906997822,0.04747173651552429,0.03508556407256359,0.0846839439532221,0.09309044581252263,0.10158389547436518,0.08265423445870794,0.09133699898808689,0.08636352562146735,0.10213195496970398,0.1386457864001664,0.14775611542425024,0.1569806050613032,0.16632081200941076,0.25144476880051725,0.2747755779221962,0.18816002914540414,0.053505008525948757,-0.012252803599137566,0.004640377304565373,0.0353933971657639,0.018093920596449077,-0.04038214590666113,-0.009339832383367833,0.021796727104906738,-0.0020015047933261416,0.02932853083092034,0.026363668359620656,0.009742065694835756,0.013859432690627529,0.02495953729453008,0.056801445697599075,0.08874988986734708,0.10016931776405802,0.1323333105651082,0.137090004094058,0.1419541332447994,0.11940901237983331,0.11760450682787868,0.09526494036536554,0.07990246759790263,0.043998031725026525,0.0288205952856488,0.006850481976809403,-0.04255328672225731,-0.06436446284784268,-0.024189281529513704,-0.01144701720595034,-0.005493176171346253,0.007438980861568307,0.027359031261456862,0.02676114766139344,0.053806626636179855,0.05347400267731006,0.03952996009485775,0.046377441484396945,0.07402498236584465,0.05369246752019724,0.09544930061799337,0.109878202197466,0.1451382532537711,0.12556883145796993,0.10620658460811239,0.0870567975767204,0.08188190797373539,0.06317086681408278,0.0722006345548613,0.11585364637297878,0.11846587382011464,0.12131302122762856,0.11751830740131189,0.12771971212253502,0.10376620872941819,0.12820412777977586,0.11848707575626727,0.15028138147985245,0.12728173420683012,0.10451659326036006,0.09574073024390306,0.12158723606312481,0.10638493652764135,0.09828120344397191,0.10414982538292496,0.09646989008343525,0.08211417396116713,0.129864548048876,0.1434102675643359,0.16401677610600668,0.14352385571378348,0.22637804112847723,0.2681137902944251,0.2962354763950412,0.32448844827444534,0.40101078302523196,0.4363620975943273,0.47179799969299796,0.5004200220258227,0.5153273383073821,0.46146472695594715,0.4488665949972091,0.47062473008531136,0.4716767823452234,0.3969580487782641,0.40464556644215116,0.39839723785301945,0.3712938868063984,0.357687396422656,0.32313937450101293,0.2676038498295637,0.28045818000675765,0.3341380725638825,0.4079566746264972,0.5637715652518532,0.6639518690438607,0.5846215755189456,0.21565903820453144,0.0,0.0,0.0,N
0.5846215755189456,0.21565903820453144,-0.4842718936281228,-0.5384398499975953,-0.23577436196409124,0.1486038749682779,0.24329277746738853,0.2822276050768173,0.3273713537469708,0.3237452962423175,0.29203632920744166,0.3079604656418163,0.35092847197086974,0.35219768162150294,0.359963985426169,0.3536330943771994,0.340124287187684,0.3607492838310969,0.3398777916115639,0.3256968680198751,0.33887650361717697,0.36569085105441923,0.36489700105934814,0.3846751604126812,0.3837787669029038,0.36911122813889824,0.3750894003763969,0.33982450792259367,0.30460852791525006,0.3107317383695878,0.31693679163613303,0.24069173509569255,0.1301610272633695,0.1298117095879899,0.18462375804327522,0.19142460634819983,0.22589065411740136,0.1504532454021751,0.11645395397774105,0.10326255422380894,0.09024823825031851,0.07053736562478052,0.071650054099371,0.10046954308392374,0.095090294886289,0.12430426528485639,0.13308378067345752,0.11455243912079668,0.15813695966907274,0.1400193901579783,0.13586740241237547,0.13192302365294845,0.052518024796827184,0.0833795087825334,0.10068643112575566,0.0700422749518655,0.06711149011681991,0.07125438987280261,0.02055790060351872,0.052595007090691794,0.02978491591969007,0.03466951102632791,0.025971373488756642,0.024322488004114042,0.00908165810164245,0.007759458894343264,-0.014043156879614634,-0.01505801454247239,-0.009046340397938023,0.010868595417175896,-0.04473940422400343,-0.0039005991548162013,0.009568799972432401,0.05070284207681104,0.00256448110410567,0.037127776663086705,0.009940048822238767,-0.010207469548526471,-0.01643317224608324,0.05317625172367208,0.054170417951067064,0.05534277458548125,0.03606155441697729,0.05136197425862906,0.08061180987885397,0.07566321269551259,0.01588329860810136,0.06636753609967866,0.06890574563375812,0.08541035616165481,0.09524734948389989,0.09153996411958616,0.1499570649731148,0.1329229608087556,0.12986299281610653,0.10638268363687792,0.09687532544952904,0.10133946909324419,0.133530864800923,0.14529517914157797,0.11599277857058285,0.1969543501966984,0.22996211633208355,0.19437415222057247,0.20024537911367224,0.20629522491836025,0.2537882189367739,0.2601687050618424,0.27357775406365503,0.2389725075912056,0.2732797865340005,0.26642343470835456,0.26653929289059025,0.2804888184288282,0.2876167684340397,0.3222972326544739,0.405145178984195,0.3916817585869927,0.3644278791114147,0.3508717547158452,0.254680623486189,0.25467364455642955,0.2613938701357517,0.26105033980200176,0.25360846993401787,0.30782079051065186,0.32734635822429464,0.3671772121371533,0.385999968187245,0.37001477396721144,0.3879659496919087,0.4810805979616376,0.628674304580409,0.6312103609347893,0.6124544836428738,0.10458883114621992,-0.520988790395133,-0.5145447940808798,-0.17188006562166638,0.1768591816014422,0.31160453297635654,0.31495573254261633,0.32454170139846694,0.3266552643897217,0.33510299119437253,0.3292956087882321,0.31615753617284276,0.0,0.0,0.0,N
0.6312103609347893,0.6124544836428738,0.10458883114621992,-0.520988790395133,-0.5145447940808798,-0.17188006562166638,0.1768591816014422,0.31160453297635654,0.31495573254261633,0.32454170139846694,0.3266552643897217,0.33510299119437253,0.3292956087882321,0.31615753617284276,0.35076343906790175,0.3024576715058,0.3088576672234145,0.24618335603275465,0.25204911509400324,0.23706630843990947,0.2631795613314159,0.2891496854203527,0.33564575342728475,0.32703160593195185,0.31148855921840984,0.3234386106423419,0.2872407299538941,0.31298100060978457,0.2974999714227708,0.29584998965954784,0.24614160303904098,0.23093955961882498,0.22962474847088926,0.1871826945435688,0.16553808670936826,0.18534162661629158,0.21221245314053874,0.2048899365650052,0.15650659553617727,0.12898234310257126,0.16359978412421186,0.15030635707563947,0.13038320390624264,0.07632229618191144,0.06379758183008596,0.10657305020018344,0.053320166409600495,0.09665195696904808,0.03020835244846918,0.032843945727615106,0.042653712663478796,0.03212667431918124,0.04254005734099282,0.039503667004928175,0.03677898908291416,0.027490786173028574,0.01164247886357507,0.05114692725546803,0.07034009553380152,0.08986147854143135,0.11659253565039328,0.10926238372913093,0.07475144987960891,0.12312224316944279,0.10304090727248884,0.11081127811755473,0.07764447118480004,0.09296441125693405,0.12237548096122632,0.0833297049066911,0.08588606860973437,0.05437441003861214,0.023185607893978374,0.06798332031546461,0.07182351672986623,0.048459822465631845,0.05291855504465428,0.030164319526972874,0.021465242772250002,0.0405739332778653,0.05309099901878526,0.1002841058371944,0.07208613264651324,0.09231008103545746,0.0852821774921115,0.10602618277240927,0.09262511917348502,0.06570758148361469,0.1078112783320201,0.10886601702521878,0.09637790351676255,0.1322467088559743,0.15455256826957572,0.1839210583727996,0.1790674060514958,0.2225250725193056,0.20421905086804332,0.24107500377481392,0.25053115815149984,0.23944948004219194,0.2697214179165607,0.23126617586759338,0.25476107536218395,0.28515355063672126,0.32929933908875864,0.3734162266925825,0.3968415110406125,0.4064259901848199,0.3608665847734214,0.3426773372577663,0.35870322501939556,0.36763561885696466,0.3556794635936888,0.3847051266115734,0.38588320107705065,0.35229193359746147,0.34579606021585424,0.35947013666389616,0.37262930592261034,0.4196176487037072,0.5347773825723675,0.6217506311872733,0.5772980024350224,0.4839057263486822,-0.002431050409313726,-0.5791084634990606,-0.5445495882909287,-0.18767571631592422,0.15449169990963516,0.2343739815697093,0.2377587161555509,0.23349200724059252,0.23538803452331494,0.2572598102421629,0.2647672764992089,0.30611519171953006,0.38135509729562167,0.4011120595367932,0.38607070813960837,0.3706713510106759,0.3687158400475497,0.33897343870965807,0.3777884045806551,0.36825920193669054,0.3654534532411735,0.38316388835047555,0.4076660423130168,0.0,0.0,0.0,N
0.5772980024350224,0.4839057263486822,-0.002431050409313726,-0.5791084634990606,-0.5445495882909287,-0.18767571631592422,0.15449169990963516,0.2343739815697093,0.2377587161555509,0.23349200724059252,0.23538803452331494,0.2572598102421629,0.2647672764992089,0.30611519171953006,0.38135509729562167,0.4011120595367932,0.38607070813960837,0.3706713510106759,0.3687158400475497,0.33897343870965807,0.3777884045806551,0.36825920193669054,0.3654534532411735,0.38316388835047555,0.4076660423130168,0.37020279927640426,0.3602283684169738,0.35713363773432333,0.35406537785655123,0.3441685737435669,0.31370759814321925,0.32461236369737256,0.2943555349213025,0.29174267474223525,0.26863756226181,0.24569093672000517,0.23667335228381658,0.20720224146935717,0.18480343039251979,0.1832440253876477,0.12686526426470468,0.09822083197246774,0.14546956970753613,0.12416225477755226,0.1374872450084772,0.13729775594122903,0.1235982088767002,0.15830191559354498,0.13135052275009035,0.12529245827988192,0.11261402320111069,0.07955857584001866,0.08115733030444487,0.08301615840212193,0.10577126123550144,0.0737546384338445,0.06263228224387488,0.051766029746725686,0.08242698182866041,0.023914933416511033,4.6417053538821013e-05,-0.002938991995088384,-0.033195928122144454,-0.01505959258308017,-0.031075396379114658,0.015062569164282462,0.013297908329158321,-0.0019701703266881993,0.08620357788705556,0.11273206753485976,0.12577188060361544,0.11156945845333412,0.1045225067808234,0.104633964009742,0.08439087841052931,0.08506819393551779,0.05851548807542085,-0.009023877594161196,0.05442189682455689,0.03561032292813849,0.04460420880671438,0.08140471433605954,0.1116185669450484,0.12148861269449751,0.1454090327485878,0.17650034951740898,0.14597278139934494,0.18452207896100004,0.16144727126856181,0.17992708887364758,0.16428956607706405,0.15580214959208577,0.14070072960278637,0.1946453617897185,0.2075666674301613,0.25512302547421045,0.19972767859831378,0.22709816246684314,0.24091849681375374,0.2549330360449293,0.27600608808859783,0.283485318667122,0.2635958553575954,0.2782286690474022,0.33424267756327936,0.36282814685173415,0.39147745803828427,0.43392349433737076,0.4144722370689169,0.422519703179486,0.36173110635483025,0.37652901366318164,0.3705747175362449,0.385104465464082,0.36504886567076944,0.34476154536528303,0.35171546462709885,0.28956270579488264,0.28207653295545876,0.2604211895973261,0.2864575046445731,0.3738931117191411,0.5433130540406192,0.6158140906930704,0.6670074139466254,0.517983987249623,-0.19589729188629312,-0.6079674184237511,-0.436240337322211,-0.0384045319573143,0.24852948278285705,0.28016241322555396,0.28355118484986386,0.27250722388249754,0.26084053879424113,0.24172324986424773,0.24959922448000368,0.3051534376424038,0.3534023556193357,0.3393609189114988,0.2905884036298702,0.28279428227703135,0.2541097367101193,0.24584716309242924,0.2786811613830585,0.34576973476460365,0.3577233903917983,0.0,0.0,0.0,N
0.6670074139466254,0.517983987249623,-0.19589729188629312,-0.6079674184237511,-0.436240337322211,-0.0384045319573143,0.24852948278285705,0.28016241322555396,0.28355118484986386,0.27250722388249754,0.26084053879424113,0.24172324986424773,0.24959922448000368,0.3051534376424038,0.3534023556193357,0.3393609189114988,0.2905884036298702,0.28279428227703135,0.2541097367101193,0.24584716309242924,0.2786811613830585,0.34576973476460365,0.3577233903917983,0.3420912186186141,0.3401782049524136,0.3038626799372391,0.3432346365850484,0.3001077150727183,0.298326356695966,0.3035201388529935,0.28131714731021873,0.26613236908507876,0.26486401706858853,0.27065128971957503,0.2766320611767798,0.30345821986318094,0.2961130103045663,0.28212426235768007,0.254624115888358,0.22737982579663818,0.2347938995174931,0.22872160496471028,0.20229008739360776,0.18301955787733515,0.1640350066127484,0.2003700856654559,0.16132889602640751,0.1500951609319493,0.13227495927052083,0.08035246133992825,0.11126685565177878,0.0736820954336917,0.04326335978966125,0.006250514905977295,-0.002964896151669917,-0.018779780421877997,-0.006802344426396799,-0.00830627134472054,-0.009533863052252291,0.023909893326896546,0.01635944622286361,0.05036248787525997,0.03649558159718282,0.03666956036305874,0.07840086524354972,0.06538660002843237,0.07329452363243975,0.10212480730042028,0.08308883695289096,0.08497432558975858,0.06650710060400408,0.0758375090242074,0.044175253295533255,0.005912284953170721,0.009198018426384945,0.0265145778461318,0.044101725123617694,0.0688356152526738,0.08007681517782031,0.11221628274687168,0.14461384034219585,0.13599222360923321,0.16201375717213456,0.1538844061053352,0.1391131118068827,0.10393499494176639,0.11713058323147202,0.13741841455976975,0.15103180869819888,0.13044571455588305,0.15131695416047217,0.13108833395210293,0.1316575833747387,0.1598910413493026,0.16074481154225886,0.1479626170165783,0.16280274465185895,0.1433401132370441,0.144589139595266,0.15277510499737748,0.147243725883362,0.14861300612870584,0.1568636877347518,0.16509692775264084,0.20080730834093163,0.24333669297734487,0.2720259411030595,0.31436658867198886,0.3290603926566272,0.3160805895075533,0.2616410866030401,0.2964098905070103,0.3240519173673,0.3238978620191771,0.2959133246938368,0.3019718630997056,0.2801264014455029,0.27161098235820225,0.24886982898105645,0.2944072765651473,0.3944226296200133,0.5075983530781245,0.6682822004956874,0.6425445539154616,0.506000338801913,-0.12662113840974004,-0.5881302928547626,-0.44520613475609516,-0.08993282817941398,0.23010343698100397,0.27420385633473027,0.26942972316580055,0.2639910707245148,0.23042932437567262,0.25134605969146107,0.28552254616436124,0.3123753222120699,0.3663502337209231,0.3580724107675622,0.37013619880674237,0.38195152465359516,0.3798053063274295,0.38437676151578715,0.37507015756865075,0.34504552372253766,0.35624943271489024,0.3605652618927911,0.0,0.0,0.0,N
0.6425445539154616,0.506000338801913,-0.12662113840974004,-0.5881302928547626,-0.44520613475609516,-0.08993282817941398,0.23010343698100397,0.27420385633473027,0.26942972316580055,0.2639910707245148,0.23042932437567262,0.25134605969146107,0.28552254616436124,0.3123753222120699,0.3663502337209231,0.3580724107675622,0.37013619880674237,0.38195152465359516,0.3798053063274295,0.38437676151578715,0.37507015756865075,0.34504552372253766,0.35624943271489024,0.3605652618927911,0.37178418432270094,0.3486648351634007,0.36690430270066166,0.35774225230748163,0.32808377557222956,0.3604994361088968,0.3518294262129711,0.3640043409268714,0.3832857554090005,0.3615392153702004,0.346932136484934,0.339478233535388,0.36670485418375204,0.4011069136196778,0.3876621259678605,0.3470134605553115,0.23789237143187064,0.11533236397247336,0.09627533105673923,0.0775396485769862,0.03161047178576116,0.06167056405562299,0.002627697185090462,0.005816061337742314,0.023083418868703298,0.01315634493796261,0.0035497181401283975,0.008020667517741357,0.01968977870923754,0.024798755364543828,0.030225728340207616,0.03596986261382803,0.03515133014919108,0.0002535974052557499,0.013821425247071164,0.02770157745344438,0.04877148377742681,0.049514226038325865,0.050564535394229296,0.017526160350724077,0.019185224868289837,0.02114513699903475,0.0577976277206558,0.012199800811396022,0.0012890951571842614,0.02506257659703289,0.014728885672765365,0.0253156915464056,0.02930448711349344,0.06108621565765249,0.06562672943284382,0.049801152228491824,0.0755150147817441,-0.0016916577311522768,0.052057085975398064,0.05790684478419619,0.05024705573292395,0.0703457082102103,0.0906821215176923,0.09061410511363724,0.07701438258638994,0.07739175010928352,0.09173925124305289,0.08565533316382584,0.12104177074387239,0.1359807566457128,0.13734229717472718,0.15263224438802636,0.16120387043503617,0.14240968430396023,0.15814749158570574,0.2084048088562163,0.20374341744675026,0.20605857813829045,0.19469843037267653,0.1834042927247142,0.23406840347325616,0.25724756240192287,0.30107423665574323,0.34489118829022103,0.4024338834155334,0.38425343540834606,0.3866276763755331,0.3544979956830226,0.34286531972110185,0.3173038578828523,0.346568733512326,0.3412001200753454,0.34243445401232026,0.3433545725668604,0.31640507515479155,0.34409031458181755,0.2819112794176129,0.3293093320388447,0.4036919079737593,0.5325262663666834,0.6469738615100055,0.630041591868583,0.5091888006265632,-0.0664646229242879,-0.6017037835601371,-0.4774883179848892,-0.10654698381870721,0.2084982928711959,0.275097178143811,0.3065499667917716,0.337305689107366,0.3330234237813355,0.3075124561721745,0.3296111416026291,0.3030640925890529,0.3379795301472307,0.3380989034173448,0.30346575803432485,0.30291036799029675,0.3227153873265402,0.27349469479561006,0.30662002155412044,0.3120657396487011,0.31050268384412877,0.3226001285764818,0.34151042822773353,0.31911127286818763,0.0,0.0,0.0,N
0.630041591868583,0.5091888006265632,-0.0664646229242879,-0.6017037835601371,-0.4774883179848892,-0.10654698381870721,0.2084982928711959,0.275097178143811,0.3065499667917716,0.337305689107366,0.3330234237813355,0.3075124561721745,0.3296111416026291,0.3030640925890529,0.3379795301472307,0.3380989034173448,0.30346575803432485,0.30291036799029675,0.3227153873265402,0.27349469479561006,0.30662002155412044,0.3120657396487011,0.31050268384412877,0.3226001285764818,0.34151042822773353,0.31911127286818763,0.31734011517874694,0.29495018400637996,0.29323922411953485,0.26407856102851246,0.2762783660954052,0.2404341269305602,0.23223215499660538,0.2035384056524504,0.2369156689144846,0.21543930243710085,0.20103336831080157,0.2281054838888913,0.20036426553957842,0.20724592000327677,0.20748765638081748,0.21485638262480214,0.1880872341681798,0.16158153289887098,0.12846660895759715,0.10938435211810058,0.0905818003952222,0.08582081242272742,0.0951051101550369,0.07028609324630997,0.07327615598789587,0.04216818730759408,0.04575270557067873,0.056516231909089214,0.04694505869123665,0.010161721359886473,0.06310767456559416,0.04069180485828456,0.06673404242670457,0.031173489904752223,0.05782954035193772,0.06415617440518234,0.06391086994610395,0.0846084678457909,0.0574597030285833,0.09252477639093602,0.031588768009107586,0.04662070582369729,0.04819346819495451,0.036304644886826526,0.017830426581090825,0.006525664321471701,0.04366048754024554,0.05356468099345487,-0.011916821324610577,0.01230474519724477,0.016165601861389656,0.02717874614989303,0.03158404340578676,0.05689427438939964,0.061833643089130606,0.09455101352923359,0.07937578663266326,0.08509257015590425,0.11169715612479483,0.14542722733197977,0.17251990808432302,0.15857506989703793,0.1586166661930244,0.12448522924226292,0.14559733593482935,0.17379210303122677,0.16778676119044997,0.18948030038854788,0.19070940150502275,0.21273474252510166,0.21426994526494836,0.2159371448335558,0.2796304563012184,0.2264834490715103,0.24908575619497456,0.3061452542090845,0.4113993093039028,0.39285502604359546,0.39494417871366233,0.45203510716173173,0.43340197127042707,0.3940454016464605,0.40960038754220257,0.3768500589685607,0.38518307071930147,0.3932881975196414,0.3736099719497861,0.381137062771009,0.33327943299129736,0.3400527127181214,0.3119844509918179,0.379723436914642,0.47443048499662555,0.6579625069488706,0.7445357344638869,0.6721822633547324,0.11753447511928311,-0.5411367373684287,-0.5403459233371529,-0.22404976753817,0.16015016453235484,0.30276401513963125,0.3483046902193521,0.3518586373799076,0.36851056270623617,0.3432819428273484,0.3725269332932102,0.3531115585741045,0.3125979763239032,0.3129407880645416,0.3335469297060178,0.3469429305692177,0.28438060092935086,0.3178694823279697,0.3098698095709129,0.3016901171310615,0.2933643388212204,0.29868258377395174,0.29016044298909516,0.29534274913494213,0.28674214899619827,0.0,0.0,0.0,N
0.7445357344638869,0.6721822633547324,0.11753447511928311,-0.5411367373684287,-0.5403459233371529,-0.22404976753817,0.16015016453235484,0.30276401513963125,0.3483046902193521,0.3518586373799076,0.36851056270623617,0.3432819428273484,0.3725269332932102,0.3531115585741045,0.3125979763239032,0.3129407880645416,0.3335469297060178,0.3469429305692177,0.28438060092935086,0.3178694823279697,0.3098698095709129,0.3016901171310615,0.2933643388212204,0.29868258377395174,0.29016044298909516,0.29534274913494213,0.28674214899619827,0.2919005477251939,0.310843049222829,0.30919908846140765,0.3076272812793584,0.33366353940483884,0.2428711893003175,0.24851166713947395,0.22678194236664662,0.22584878899712105,0.24572595394027164,0.22451647789498577,0.21726248497829317,0.251489609184149,0.1896301929499719,0.17614783855715826,0.14226110169582895,0.1430068112499956,0.0958442470947349,0.055808811774493476,0.0641777448421397,0.07968190418442714,0.03353645925870004,0.028927228242064344,0.045220707696245935,0.06866209143200079,0.04422329584551848,0.0682104154963,0.07183711858325564,0.08262051864561643,0.06616779307047849,0.05687412499405775,0.05474015728774815,0.032250880911633445,0.06507364140258029,0.07066225968411066,0.0627740177039377,0.007013950902276876,0.04783666986370903,0.01327002338518014,0.0271318221426531,-0.013761971748679483,0.03504277603343126,0.008453622365841526,0.016531624318379637,0.02488211710416441,0.026625720818878366,0.056155982458646246,0.0584413713837616,0.05411733691149022,0.029424826726384332,0.025635253007681925,0.07026219704014462,0.08763648365469928,0.08463468899334325,0.09564831855634078,0.07252235204845524,0.09779928675111214,0.12332326151572165,0.1009379261972603,0.09942662608230897,0.09126841537541927,0.11085142811455405,0.09625955560320092,0.09563760505044758,0.09522032540106179,0.10187851306729961,0.1293613302449615,0.17078090408176871,0.16421797983742076,0.17157160280018044,0.22034578774255478,0.22110337953112463,0.2151041171217868,0.264243159609054,0.2240493340117141,0.23208266342478043,0.24705216168214214,0.32396946859676967,0.32523741593602823,0.38841089102679216,0.39652600525751736,0.39083029132114494,0.36441740608439016,0.31725789414768246,0.2905935293354493,0.2981491316419617,0.2917384911273021,0.29196232595760735,0.3262987374917301,0.27776868768829577,0.31142402430426575,0.2896461633056248,0.30869558763406085,0.3616487037228752,0.48973226772363,0.6241097573816276,0.6959422017808313,0.5882356162602191,0.08768875005536078,-0.5237259730439213,-0.5169118451554194,-0.19454868720518304,0.14073278650602805,0.2688664464247953,0.30684871170716094,0.3097650802103938,0.318941831777861,0.34818832988684356,0.31500855691306506,0.3295123270753962,0.33671567430581195,0.3297848781708507,0.3431575859697072,0.32872369345512925,0.3002809575584766,0.30601970101849807,0.31158264254709883,0.3307628639538784,0.31544231216868135,0.32756275046977357,0.0,0.0,0.0,N
0.6959422017808313,0.5882356162602191,0.08768875005536078,-0.5237259730439213,-0.5169118451554194,-0.19454868720518304,0.14073278650602805,0.2688664464247953,0.30684871170716094,0.3097650802103938,0.318941831777861,0.34818832988684356,0.31500855691306506,0.3295123270753962,0.33671567430581195,0.3297848781708507,0.3431575859697072,0.32872369345512925,0.3002809575584766,0.30601970101849807,0.31158264254709883,0.3307628639538784,0.31544231216868135,0.32756275046977357,0.33276057853146146,0.31730708386981266,0.288108415853516,0.3208575561675537,0.26424426374417537,0.2696257361753867,0.2751137513915642,0.21881873919440317,0.25209385225715264,0.2511374737525129,0.22972356408734945,0.21538251175150133,0.22876471473181587,0.20109454959535428,0.21492977055937293,0.24964449809081066,0.20206567538569747,0.20977846339856865,0.16960754677458656,0.15722645028105056,0.13824638048478483,0.10579312536104755,0.12178020050490745,0.10366491295720896,0.09272311479087718,0.09583593032841604,0.07173212708055617,0.10983798919663125,0.07945650183985749,0.03561883188313043,0.04023459080200743,0.03827289992997416,0.0366122563941038,0.04213096595697006,0.034191783779179384,0.0334303056775361,0.046724272739582864,0.025920523819963525,0.04668481808504144,-0.0010459458010643394,0.04781857280852699,0.028184403437324475,0.056989853807996885,0.024171308510542524,0.005393598085315791,0.03504838090510069,0.03058697632677835,0.040158524283580306,0.05000243480731452,0.025721391481653498,0.049858139926008085,-0.0014099594023080269,0.02324788007017175,0.027524270996889873,0.004536654299115334,0.02994843589881795,0.028088477560926934,0.04710464524127559,0.06635624560159603,0.05832350789522275,0.07115359033114636,0.09108378253427615,0.09747217647639836,0.13158598567692822,0.11775162424648637,0.1109928441840194,0.15257512496001024,0.1324288696069518,0.19500086803305072,0.16831052128428498,0.1761664564646587,0.17040541199628645,0.1785305062058851,0.1798921121969118,0.1744762360758067,0.21041987768464812,0.22579769432159294,0.2687447613481503,0.2223028198932465,0.28593899407988116,0.3495714116842451,0.3787840315244432,0.4079474834132347,0.4232786100470221,0.4247498981551331,0.343543299222132,0.3447192650789167,0.3388193800885504,0.3670815008360252,0.3744380034170343,0.3677290054863085,0.3331562268530474,0.36010217695899277,0.31782475913927,0.3438549097398002,0.4312662963941114,0.5456154999204971,0.666214628576111,0.6210385410668386,0.4925759147767605,-0.17323734514611014,-0.606033940872841,-0.45503947202216055,-0.07794267916105935,0.23639934474502736,0.3504714327589538,0.40191091135370266,0.39765535882683745,0.3721557114620502,0.37361860103658096,0.3539450121567144,0.3682166896132987,0.3889675058500658,0.3818506503421282,0.36754810280843975,0.3942553012553871,0.38634669201575966,0.39889274596409535,0.33562748076770305,0.3548000693815001,0.3670196987568328,0.3723187263519273,0.38448535829685804,0.0,0.0,0.0,N
0.6210385410668386,0.4925759147767605,-0.17323734514611014,-0.606033940872841,-0.45503947202216055,-0.07794267916105935,0.23639934474502736,0.3504714327589538,0.40191091135370266,0.39765535882683745,0.3721557114620502,0.37361860103658096,0.3539450121567144,0.3682166896132987,0.3889675058500658,0.3818506503421282,0.36754810280843975,0.3942553012553871,0.38634669201575966,0.39889274596409535,0.33562748076770305,0.3548000693815001,0.3670196987568328,0.3723187263519273,0.38448535829685804,0.34851752027635396,0.3676245789072928,0.36616426920449646,0.282250171830235,0.2947535026064281,0.3211480744676263,0.3133004360067236,0.3193793164686398,0.2774904084333735,0.27019348717293806,0.2287124190335356,0.2287253989825299,0.2220903244921054,0.22945236825916496,0.18890948990693313,0.1898930232705618,0.15674115239364156,0.14448910767290138,0.13250407506242382,0.11391020184109564,0.08183097276742816,0.06378351247478016,0.04601148513061824,0.11106202237724512,0.05257066662234273,0.08378175995893082,0.060239603597788016,0.07824754582188877,0.048379902816563916,0.046302804773526496,0.037620669822234304,0.04296841965949179,0.0898596297639255,0.047594297413123446,0.046867962223034645,0.0464048787088382,0.053080960242101065,0.046256520629311175,0.01904929204249787,0.019607510452457552,0.02041205584664171,-0.019813973595393136,0.0021080978342277222,0.01738778104158785,0.04665952089950881,-0.013261478591176918,0.050866479990639084,0.03955584079625292,0.007835943395898977,-0.00990059607490621,0.02761764122480819,0.017207335104042515,0.04829260006838761,0.03144757557230457,0.035459522966194354,0.012175234314667346,0.06477584585848818,0.04880412509608274,0.019288930316615382,0.03125887578862532,0.05719637671394394,0.07646253388519501,0.10281237153897524,0.07433327086232684,0.1354773555355737,0.12802733462514743,0.1070093382510122,0.14120654016680212,0.1343093738353482,0.14134208816054922,0.1760552091884066,0.19716782117311032,0.232186546944517,0.226070920871322,0.26823499597808315,0.24172643837961477,0.2221991458005476,0.25091159790746376,0.32096927017501703,0.3429302808978156,0.3580491393423715,0.37318443069793567,0.3951929499080622,0.39653541656829466,0.34279173242425603,0.2889647610517135,0.3382075452639709,0.3391545332991883,0.3468037389129386,0.35424190312158643,0.3407963491524591,0.3614598897602523,0.3542833216700035,0.38801363012555606,0.44884992633208914,0.5642624327376589,0.6722941830334623,0.6421969707468198,0.3913711211303354,-0.3622726662182086,-0.5594514809482305,-0.3377664848256655,0.10332473130769956,0.35115256598582617,0.3576255210330984,0.37044054357343664,0.38277564285181737,0.40156465968084154,0.4062241534542102,0.4243205689385251,0.4352664265834219,0.4735028603170607,0.4634073575727287,0.4462953503173233,0.4084492183995833,0.4324528965838949,0.4564325977999537,0.48042194967951457,0.46317924638031505,0.4666430082279134,0.4495668113740664,0.48076336891823046,0.0,0.0,0.0,N
0.6421969707468198,0.3913711211303354,-0.3622726662182086,-0.5594514809482305,-0.3377664848256655,0.10332473130769956,0.35115256598582617,0.3576255210330984,0.37044054357343664,0.38277564285181737,0.40156465968084154,0.4062241534542102,0.4243205689385251,0.4352664265834219,0.4735028603170607,0.4634073575727287,0.4462953503173233,0.4084492183995833,0.4324528965838949,0.4564325977999537,0.48042194967951457,0.46317924638031505,0.4666430082279134,0.4495668113740664,0.48076336891823046,0.43643557334100713,0.4197856955168067,0.4033158283239177,0.42831438456386334,0.44664281595179844,0.4239181164012977,0.42893767488942564,0.3997987649844097,0.4328098789250427,0.42479109528632447,0.4514102176083145,0.4576349296573405,0.5122498120817256,0.5258237939962044,0.5396212390847053,0.5742673562566732,0.588475079348815,0.5547121546313991,0.47983759542515314,0.42573837657140245,0.4267837061828096,0.3935215097470703,0.36031673276643295,0.3202593018245695,0.2664373419214874,0.29512000503825486,0.23430027744754892,0.2765482897361009,0.2773697486158604,0.2986342346124675,0.3884522576324766,0.5192655736743842,0.7185447315567692,1.0,0.964607541890508,0.28900578085160905,-0.6210144427029322,-0.41726239511978536,-0.007748484709753467,0.20859081964657433,0.19051956320356456,0.21322747497936534,0.22171892090608622,0.20227025208948918,0.21682397177761598,0.19662357604899292,0.21048831456571332,0.17590193239822113,0.16856048553432781,0.1816130478301267,0.18069248279859815,0.18646148096885354,0.20582414563724766,0.2181682802520448,0.2028806591407813,0.1874988589857909,0.1789229164105982,0.1771730886592611,0.18914758024642664,0.2079860260509554,0.14428101259175036,0.13562586866823695,0.133884470775152,0.13219306858891644,0.06865650728222726,0.08774422761757729,0.10004470297909833,0.13308628007769588,0.14560838654904731,0.13762283590845742,0.150413764940326,0.16335504534833137,0.14894095488215592,0.141574531482797,0.17565806838647732,0.13425862948299322,0.14120186635279497,0.10706866084287447,0.1350467615756885,0.08068507396422228,0.10220087113519084,0.10329387303860078,0.10460360066801537,0.11301137477728987,0.0872460999060771,0.04106685061852623,0.0570206841,0.03880456318715404,0.04832852897216319,0.03744095836164562,0.03365724735645879,0.009461869671297909,0.019885233356676992,0.009896228991020507,0.03452511788932724,0.0524983254930528,0.01566326273289183,0.027201599521680393,0.018323880326658225,0.03718082565497957,0.0012250685761420093,0.034274312810654115,-0.0012497356828282489,0.01847044931929645,0.010887256210380288,-0.0033643906909016225,-0.003649621502155434,-0.010606298034899363,-0.003598884075581124,0.05864568984317903,-0.002722105242733902,0.025541895928880634,0.019618864846827237,0.013903208649370839,-0.005362656815747001,0.023730875520056087,-0.00887712495152246,0.01375407471749041,0.0709892130985119,0.011494964174330801,0.014122057469893309,0.030719382824671473,0.0,0.0,0.0,N
1.0,0.964607541890508,0.28900578085160905,-0.6210144427029322,-0.41726239511978536,-0.007748484709753467,0.20859081964657433,0.19051956320356456,0.21322747497936534,0.22171892090608622,0.20227025208948918,0.21682397177761598,0.19662357604899292,0.21048831456571332,0.17590193239822113,0.16856048553432781,0.1816130478301267,0.18069248279859815,0.18646148096885354,0.20582414563724766,0.2181682802520448,0.2028806591407813,0.1874988589857909,0.1789229164105982,0.1771730886592611,0.18914758024642664,0.2079860260509554,0.14428101259175036,0.13562586866823695,0.133884470775152,0.13219306858891644,0.06865650728222726,0.08774422761757729,0.10004470297909833,0.13308628007769588,0.14560838654904731,0.13762283590845742,0.150413764940326,0.16335504534833137,0.14894095488215592,0.141574531482797,0.17565806838647732,0.13425862948299322,0.14120186635279497,0.10706866084287447,0.1350467615756885,0.08068507396422228,0.10220087113519084,0.10329387303860078,0.10460360066801537,0.11301137477728987,0.0872460999060771,0.04106685061852623,0.0570206841,0.03880456318715404,0.04832852897216319,0.03744095836164562,0.03365724735645879,0.009461869671297909,0.019885233356676992,0.009896228991020507,0.03452511788932724,0.0524983254930528,0.01566326273289183,0.027201599521680393,0.018323880326658225,0.03718082565497957,0.0012250685761420093,0.034274312810654115,-0.0012497356828282489,0.01847044931929645,0.010887256210380288,-0.0033643906909016225,-0.003649621502155434,-0.010606298034899363,-0.003598884075581124,0.05864568984317903,-0.002722105242733902,0.025541895928880634,0.019618864846827237,0.013903208649370839,-0.005362656815747001,0.023730875520056087,-0.00887712495152246,0.01375407471749041,0.0709892130985119,0.011494964174330801,0.014122057469893309,0.030719382824671473,-0.0006219243024923681,0.04391784884995524,0.026762482489866835,0.03045847756133258,0.027490731033289237,0.05225356454882764,0.0772315853308415,0.0886668231047442,0.05904323766767994,0.06402697376024698,0.06922241074411427,0.0539912916164246,0.059604590228808735,0.07918111728024,0.023293282824684774,0.0501514088766901,0.05656970934787891,0.05630245944074186,0.0974978609350795,0.05633278696911233,0.08413729859860841,0.11211823488991893,0.09899738176358745,0.09979975094138119,0.08700375653610262,0.10187573251351263,0.09625663331336227,0.12516953227430946,0.14733323505944732,0.11458707959903597,0.15074071428644273,0.13884374859864113,0.13391608543831546,0.1772192497190641,0.15867957530028967,0.17458776650028485,0.19741458030638243,0.21338758453742512,0.23624872748003886,0.3003754161384409,0.32320356422529867,0.3528655793944535,0.37558267631538395,0.39821083098518495,0.4138464577172275,0.3949474541152135,0.37587922551709807,0.41164172817907974,0.37838314994677485,0.3586148770122985,0.3454214591447886,0.31812796926865516,0.3317250139378967,0.3242612970187531,0.3369664920299638,0.42482633495412536,0.5327634067786331,0.6263346900147213,0.0,0.0,0.0,N
0.6091849263900485,0.47438067046604976,-0.025774035101467804,-0.5611548012056592,-0.48520806348846457,-0.16939554689106334,0.1662016398851659,0.30839732260097036,0.3397946970712639,0.35675310089468987,0.3937205957298643,0.38196083119232904,0.37655464222773116,0.36379253512584814,0.35059965905876,0.30262629292484294,0.32309780032760377,0.2951150914136028,0.3356580849362229,0.35533996751825,0.3129241406882446,0.3322644345190405,0.3377266997928004,0.3362212285915698,0.3346566243638954,0.29866675814115284,0.3177029816046793,0.3505171572837663,0.37649608484831115,0.3681459694972532,0.3323653433749637,0.33108163297733695,0.33679565846632326,0.32200658459570786,0.31424262722235397,0.3203938665146881,0.2785603925762874,0.2850540569003362,0.29172963858945855,0.2848347009018503,0.26437303221785713,0.2716200480553474,0.24466721378945888,0.2110295812023159,0.20509982062514476,0.15808691896369625,0.11813914967252984,0.16091936331229542,0.12820919565207,0.12318546950062373,0.11832637080249354,0.11362483711555406,0.08155784682514067,0.07026907092928748,0.08662872132576632,0.09623360725596639,0.07843778858801265,0.07450442098853542,0.029392481542823503,0.025637412517487013,0.04259188093915854,0.032093058106722534,0.01476632121137183,-0.00939963867650528,0.028372214533586484,-0.03702081419800773,-0.07489136070964925,0.0,0.0,0.0,0.0,0.0,0.0,0.0,0.0,0.0,0.0,0.0,0.0,0.0,0.0,0.0,0.0,0.0,0.0,0.0,0.0,0.0,0.0,0.0,0.0,0.0,0.0,0.0,0.0,0.0,0.0,0.0,0.0,0.0,0.0,0.0,0.0,0.0,0.0,0.0,0.0,0.0,0.0,0.0,0.0,0.0,0.0,0.0,0.0,0.0,0.0,0.0,0.0,0.0,0.0,0.0,0.0,0.0,0.0,0.0,0.0,0.0,0.0,0.0,0.0,0.0,0.0,0.0,0.0,0.0,0.0,0.0,0.0,0.0,0.0,0.0,0.0,0.0,0.0,0.0,0.0,0.0,0.0,0.0,N
0.22795027403016327,0.20300116276634836,0.3300026414637183,0.33778558619971044,0.39987616635907647,0.4403347234627345,0.4699897349328233,0.44543614196658127,0.5293456071074477,0.6566159606027628,0.610294649228238,0.618122780000303,0.6909130702570091,0.6333960754276321,0.5973794375043072,0.5828198947552002,0.6113637323718022,0.6070379192538202,0.5155589013028129,0.5321042281666449,0.5047683305704623,0.5311071176541723,0.4917486365108959,0.5276286845443249,0.6061403298508613,0.7380590700245111,0.9233111050473736,0.9015085387600386,0.8352632679475793,-0.08898134007072223,-0.9059983210098366,-0.7373223926394801,-0.19034076959403212,0.3120159165937915,0.5095291204182361,0.532444345063202,0.543543346797757,0.5103724152846244,0.5197840584826156,0.5827043641166693,0.5799016180683515,0.5765277301717701,0.5943466431119151,0.5141179471017898,0.5311400010186235,0.5044743189319544,0.46672002977542115,0.5155513415726074,0.49917598981104544,0.5369558049779751,0.5313247834755562,0.5148694398500024,0.509327365113354,0.47135597446891175,0.4986116063164871,0.47182290407088634,0.4886413562940163,0.4189444873178738,0.4254565848446033,0.4539745036487799,0.43944670431179766,0.37105071209381557,0.3355782572137807,0.3222028124447696,0.3743275072198562,0.3835061232144589,0.33890697265876996,0.30562031862416145,0.2836571281856025,0.2621805734062125,0.2520449418839827,0.25325694340378097,0.2007444260642256,0.1270503738715274,0.1297943685713067,0.16559388682397794,0.1476806886770861,0.09774837531130828,0.09172114405516123,0.09706003439271867,0.07037936029207731,0.06590935261347146,0.0944948226793072,0.10190265080368782,0.07728431246762948,0.042329574369664176,0.11634421897907123,0.08239954289930243,0.07064680214092679,0.0,0.0,0.0,0.0,0.0,0.0,0.0,0.0,0.0,0.0,0.0,0.0,0.0,0.0,0.0,0.0,0.0,0.0,0.0,0.0,0.0,0.0,0.0,0.0,0.0,0.0,0.0,0.0,0.0,0.0,0.0,0.0,0.0,0.0,0.0,0.0,0.0,0.0,0.0,0.0,0.0,0.0,0.0,0.0,0.0,0.0,0.0,0.0,0.0,0.0,0.0,0.0,0.0,0.0,0.0,0.0,0.0,0.0,0.0,0.0,0.0,N
0.9015085387600386,0.8352632679475793,-0.08898134007072223,-0.9059983210098366,-0.7373223926394801,-0.19034076959403212,0.3120159165937915,0.5095291204182361,0.532444345063202,0.543543346797757,0.5103724152846244,0.5197840584826156,0.5827043641166693,0.5799016180683515,0.5765277301717701,0.5943466431119151,0.5141179471017898,0.5311400010186235,0.5044743189319544,0.46672002977542115,0.5155513415726074,0.49917598981104544,0.5369558049779751,0.5313247834755562,0.5148694398500024,0.509327365113354,0.47135597446891175,0.4986116063164871,0.47182290407088634,0.4886413562940163,0.4189444873178738,0.4254565848446033,0.4539745036487799,0.43944670431179766,0.37105071209381557,0.3355782572137807,0.3222028124447696,0.3743275072198562,0.3835061232144589,0.33890697265876996,0.30562031862416145,0.2836571281856025,0.2621805734062125,0.2520449418839827,0.25325694340378097,0.2007444260642256,0.1270503738715274,0.1297943685713067,0.16559388682397794,0.1476806886770861,0.09774837531130828,0.09172114405516123,0.09706003439271867,0.07037936029207731,0.06590935261347146,0.0944948226793072,0.10190265080368782,0.07728431246762948,0.042329574369664176,0.11634421897907123,0.08239954289930243,0.07064680214092679,0.12446670543474582,0.07031427007241746,0.06003189831977119,0.08276763721743687,0.040899098364499474,0.07542135154750348,0.08871139003185569,0.004838363796718584,0.019027652020719998,0.033655403113739914,-0.027209795832088636,-0.0008816539760022188,-0.028366769033819,0.042177551612699885,0.06974748884792256,0.06518674941205208,0.0501849582181036,0.12235528261714146,0.12984650009953635,0.15942464840489173,0.1351611123864612,0.24143688562041546,0.2721666771081244,0.2707281276024323,0.25880498320228484,0.20384830181470603,0.14923171569360036,0.0,0.0,0.0,0.0,0.0,0.0,0.0,0.0,0.0,0.0,0.0,0.0,0.0,0.0,0.0,0.0,0.0,0.0,0.0,0.0,0.0,0.0,0.0,0.0,0.0,0.0,0.0,0.0,0.0,0.0,0.0,0.0,0.0,0.0,0.0,0.0,0.0,0.0,0.0,0.0,0.0,0.0,0.0,0.0,0.0,0.0,0.0,0.0,0.0,0.0,0.0,0.0,0.0,0.0,0.0,0.0,0.0,0.0,0.0,0.0,0.0,N
0.8961452163988902,0.34641980188803095,-0.7143500167128378,-0.8328623772470586,-0.3670741283192419,0.21667433428927402,0.45207748683934035,0.5127584699252782,0.5289530961129478,0.5115856781630365,0.5149629517117772,0.5174652260952151,0.5950866380269463,0.6285859325098161,0.6288740820365599,0.6285514499907628,0.62767645465483,0.6154581046436597,0.5811022701898771,0.6548132140689199,0.6197117524166628,0.6168422353413785,0.5377817754566753,0.5777998746521702,0.5416977371393638,0.5271228847073117,0.5557962622845875,0.5301272431725177,0.5802940268065064,0.5544692223190696,0.5069016086674646,0.5026834593730933,0.5201343781672613,0.4833401208126935,0.47907784605407333,0.44227455919188763,0.0,0.0,0.0,0.0,0.0,0.0,0.0,0.0,0.0,0.0,0.0,0.0,0.0,0.0,0.0,0.0,0.0,0.0,0.0,0.0,0.0,0.0,0.0,0.0,0.0,0.0,0.0,0.0,0.0,0.0,0.0,0.0,0.0,0.0,0.0,0.0,0.0,0.0,0.0,0.0,0.0,0.0,0.0,0.0,0.0,0.0,0.0,0.0,0.0,0.0,0.0,0.0,0.0,0.0,0.0,0.0,0.0,0.0,0.0,0.0,0.0,0.0,0.0,0.0,0.0,0.0,0.0,0.0,0.0,0.0,0.0,0.0,0.0,0.0,0.0,0.0,0.0,0.0,0.0,0.0,0.0,0.0,0.0,0.0,0.0,0.0,0.0,0.0,0.0,0.0,0.0,0.0,0.0,0.0,0.0,0.0,0.0,0.0,0.0,0.0,0.0,0.0,0.0,0.0,0.0,0.0,0.0,0.0,0.0,0.0,0.0,0.0,0.0,0.0,N
0.1206766583129989,0.1591194062367798,0.062196650526198785,0.10092928113618828,0.12043424009686125,0.11424892918065235,0.06945706258059041,0.03767263732711335,0.012431534491495715,0.025987959231058698,-0.01846565361866021,-0.024144436915752895,-0.055588904486356276,-0.03536939745457793,-0.0344719403873269,-0.02708291663567082,-0.013197776349162626,-0.012168653024891344,0.02763751311906829,0.04815248594718455,0.06874491603482671,0.10233012778672877,0.11665150402560544,0.14398277000558793,0.11334770119199856,0.08928414670862596,0.07179853485869726,0.1318807870149671,0.10820939086211571,0.09113250560090488,0.10001380989488086,0.12840418511223975,0.1117762438782782,0.12111675036968388,0.10480328712601948,0.06929059977694585,0.06620450779312698,0.03101494684452805,0.03470631515089189,0.03210731850952703,0.04257734326822181,-0.011320665884911218,0.044646353771540664,0.042699013787354835,0.008650264726706861,0.0005782706997310588,0.04429572552421029,0.030100526554257087,0.02897674109511202,0.021565090234505115,0.027224662625694056,0.02014284123904661,0.051943897820083906,0.012924868194982043,-0.019477994691611055,-0.013000100376827329,0.006547223337846972,0.019806969068667045,0.026781352920387913,0.027472491962919298,0.06705396721684513,0.08744985580900054,0.004771557963562432,0.03842505084108956,0.039990419476634405,0.05464011902616178,0.03720320897866133,0.032851671337405366,0.002867191782949002,0.050499170718013,0.033779748697548025,0.03659880306784553,0.039596675745164504,-0.008851901389279073,0.007407826175696225,0.017391977043943057,0.0017413160458275027,0.050798972991324604,0.09358093377869049,0.07200910112772738,0.06997278883409064,0.08747084034125767,0.09868940759593943,0.12298580304808386,0.1345452478431621,0.14627086064686315,0.17106508739863677,0.1766580448261906,0.18885676300564522,0.15603036382443042,0.12979639141744992,0.10369384109393825,0.12933882785502296,0.1486444962931315,0.16160111298040195,0.16819820126649107,0.22004915976113507,0.2461579233271581,0.24651126607184656,0.25981324376210335,0.2602358255264455,0.33810521877487043,0.35788834045105383,0.36473680840233286,0.4038004510343424,0.3976186503127699,0.32035345246669156,0.35266364869451017,0.33319290179247146,0.3458003567503887,0.3646410406540721,0.32514973913831446,0.34989889147066594,0.34205440729099246,0.3790137527662519,0.3703924631780213,0.4129436555770752,0.500169228520583,0.5610381617653807,0.6019539591206285,0.45508401318312736,0.055842073311171456,-0.4796739951272556,-0.4804012608688593,-0.2173816932188186,0.1287315723523481,0.2740566851036893,0.27027159186308025,0.29811457733908187,0.2737460731458678,0.30691758257089163,0.307333592516869,0.33311801968732985,0.33269079217834724,0.325454111986157,0.33080851765303343,0.3229813225932528,0.3149166986277354,0.3389164588954058,0.343390731645023,0.33482571921690146,0.33906516322231417,0.3109671916536769,0.3150906891170837,0.2933843626267646,0.3039508810912042,0.2758297383329627,0.26066753117610053,0.2778440502549585,0.25639458715134356,N
0.051943897820083906,0.012924868194982043,-0.019477994691611055,-0.013000100376827329,0.006547223337846972,0.019806969068667045,0.026781352920387913,0.027472491962919298,0.06705396721684513,0.08744985580900054,0.004771557963562432,0.03842505084108956,0.039990419476634405,0.05464011902616178,0.03720320897866133,0.032851671337405366,0.002867191782949002,0.050499170718013,0.033779748697548025,0.03659880306784553,0.039596675745164504,-0.008851901389279073,0.007407826175696225,0.017391977043943057,0.0017413160458275027,0.050798972991324604,0.09358093377869049,0.07200910112772738,0.06997278883409064,0.08747084034125767,0.09868940759593943,0.12298580304808386,0.1345452478431621,0.14627086064686315,0.17106508739863677,0.1766580448261906,0.18885676300564522,0.15603036382443042,0.12979639141744992,0.10369384109393825,0.12933882785502296,0.1486444962931315,0.16160111298040195,0.16819820126649107,0.22004915976113507,0.2461579233271581,0.24651126607184656,0.25981324376210335,0.2602358255264455,0.33810521877487043,0.35788834045105383,0.36473680840233286,0.4038004510343424,0.3976186503127699,0.32035345246669156,0.35266364869451017,0.33319290179247146,0.3458003567503887,0.3646410406540721,0.32514973913831446,0.34989889147066594,0.34205440729099246,0.3790137527662519,0.3703924631780213,0.4129436555770752,0.500169228520583,0.5610381617653807,0.6019539591206285,0.45508401318312736,0.055842073311171456,-0.4796739951272556,-0.4804012608688593,-0.2173816932188186,0.1287315723523481,0.2740566851036893,0.27027159186308025,0.29811457733908187,0.2737460731458678,0.30691758257089163,0.307333592516869,0.33311801968732985,0.33269079217834724,0.325454111986157,0.33080851765303343,0.3229813225932528,0.3149166986277354,0.3389164588954058,0.343390731645023,0.33482571921690146,0.33906516322231417,0.3109671916536769,0.3150906891170837,0.2933843626267646,0.3039508810912042,0.2758297383329627,0.26066753117610053,0.2778440502549585,0.25639458715134356,0.25441475239092265,0.21384333717872644,0.20567956881013486,0.22348458046537514,0.17047528121195296,0.15636619575704938,0.16180928826732857,0.1997211681195036,0.1926744399289685,0.1729431616447709,0.18570659866017006,0.1922530413459446,0.1796821931727023,0.17381130879507717,0.1488320611910931,0.1499191937724909,0.09963808303479992,0.08188049108271936,0.08374140070745005,0.05359687284850396,0.0882435141271172,0.07152584470937838,0.048615078748944274,0.03241664572922022,0.042288817466423316,0.03305884961148649,0.049896982086133045,0.02827083757834377,0.05206875367991668,0.018039449790500865,-0.002835309012473156,0.002348383477326138,0.040041617412381034,0.07152387334581745,0.032262089989852,0.05131541068350117,0.03188482816813712,0.012685872180395154,-0.012737684824669065,0.01368872026069473,-0.011286274580843645,-0.0037746229722546753,0.01686342712828749,0.011908730127174454,-0.005733260620693416,0.022014446553372456,0.011261508997297436,0.026538438375501835,0.04203249432998317,-0.00033462323048067067,0.054310393911199774,0.03818661535104318,N
0.18885676300564522,0.15603036382443042,0.12979639141744992,0.10369384109393825,0.12933882785502296,0.1486444962931315,0.16160111298040195,0.16819820126649107,0.22004915976113507,0.2461579233271581,0.24651126607184656,0.25981324376210335,0.2602358255264455,0.33810521877487043,0.35788834045105383,0.36473680840233286,0.4038004510343424,0.3976186503127699,0.32035345246669156,0.35266364869451017,0.33319290179247146,0.3458003567503887,0.3646410406540721,0.32514973913831446,0.34989889147066594,0.34205440729099246,0.3790137527662519,0.3703924631780213,0.4129436555770752,0.500169228520583,0.5610381617653807,0.6019539591206285,0.45508401318312736,0.055842073311171456,-0.4796739951272556,-0.4804012608688593,-0.2173816932188186,0.1287315723523481,0.2740566851036893,0.27027159186308025,0.29811457733908187,0.2737460731458678,0.30691758257089163,0.307333592516869,0.33311801968732985,0.33269079217834724,0.325454111986157,0.33080851765303343,0.3229813225932528,0.3149166986277354,0.3389164588954058,0.343390731645023,0.33482571921690146,0.33906516322231417,0.3109671916536769,0.3150906891170837,0.2933843626267646,0.3039508810912042,0.2758297383329627,0.26066753117610053,0.2778440502549585,0.25639458715134356,0.25441475239092265,0.21384333717872644,0.20567956881013486,0.22348458046537514,0.17047528121195296,0.15636619575704938,0.16180928826732857,0.1997211681195036,0.1926744399289685,0.1729431616447709,0.18570659866017006,0.1922530413459446,0.1796821931727023,0.17381130879507717,0.1488320611910931,0.1499191937724909,0.09963808303479992,0.08188049108271936,0.08374140070745005,0.05359687284850396,0.0882435141271172,0.07152584470937838,0.048615078748944274,0.03241664572922022,0.042288817466423316,0.03305884961148649,0.049896982086133045,0.02827083757834377,0.05206875367991668,0.018039449790500865,-0.002835309012473156,0.002348383477326138,0.040041617412381034,0.07152387334581745,0.032262089989852,0.05131541068350117,0.03188482816813712,0.012685872180395154,-0.012737684824669065,0.01368872026069473,-0.011286274580843645,-0.0037746229722546753,0.01686342712828749,0.011908730127174454,-0.005733260620693416,0.022014446553372456,0.011261508997297436,0.026538438375501835,0.04203249432998317,-0.00033462323048067067,0.054310393911199774,0.03818661535104318,0.0545424262777319,0.032392714925321565,0.023360719571641955,0.06616334571453708,0.08336184470055315,0.049141820325151984,0.07320325314688879,0.11037182821828367,0.10256669375918002,0.11431506888618556,0.08753503712653375,0.09965890400443028,0.11841608542940076,0.09862932820003949,0.12418249519862458,0.13053799177206538,0.08542302939582282,0.11789130206053781,0.15049734357912664,0.15741978157363956,0.1773673452614645,0.18451712267902576,0.1530453150260214,0.1474703966314136,0.1742323079237394,0.21395791034673037,0.23436702336616733,0.24189690910751246,0.34623302439240017,0.32795226073943573,0.3741741592190523,0.35581543613830724,0.3438365845878339,0.2736815250087681,0.2743850209054892,0.28784099053679035,N
0.3703924631780213,0.4129436555770752,0.500169228520583,0.5610381617653807,0.6019539591206285,0.45508401318312736,0.055842073311171456,-0.4796739951272556,-0.4804012608688593,-0.2173816932188186,0.1287315723523481,0.2740566851036893,0.27027159186308025,0.29811457733908187,0.2737460731458678,0.30691758257089163,0.307333592516869,0.33311801968732985,0.33269079217834724,0.325454111986157,0.33080851765303343,0.3229813225932528,0.3149166986277354,0.3389164588954058,0.343390731645023,0.33482571921690146,0.33906516322231417,0.3109671916536769,0.3150906891170837,0.2933843626267646,0.3039508810912042,0.2758297383329627,0.26066753117610053,0.2778440502549585,0.25639458715134356,0.25441475239092265,0.21384333717872644,0.20567956881013486,0.22348458046537514,0.17047528121195296,0.15636619575704938,0.16180928826732857,0.1997211681195036,0.1926744399289685,0.1729431616447709,0.18570659866017006,0.1922530413459446,0.1796821931727023,0.17381130879507717,0.1488320611910931,0.1499191937724909,0.09963808303479992,0.08188049108271936,0.08374140070745005,0.05359687284850396,0.0882435141271172,0.07152584470937838,0.048615078748944274,0.03241664572922022,0.042288817466423316,0.03305884961148649,0.049896982086133045,0.02827083757834377,0.05206875367991668,0.018039449790500865,-0.002835309012473156,0.002348383477326138,0.040041617412381034,0.07152387334581745,0.032262089989852,0.05131541068350117,0.03188482816813712,0.012685872180395154,-0.012737684824669065,0.01368872026069473,-0.011286274580843645,-0.0037746229722546753,0.01686342712828749,0.011908730127174454,-0.005733260620693416,0.022014446553372456,0.011261508997297436,0.026538438375501835,0.04203249432998317,-0.00033462323048067067,0.054310393911199774,0.03818661535104318,0.0545424262777319,0.032392714925321565,0.023360719571641955,0.06616334571453708,0.08336184470055315,0.049141820325151984,0.07320325314688879,0.11037182821828367,0.10256669375918002,0.11431506888618556,0.08753503712653375,0.09965890400443028,0.11841608542940076,0.09862932820003949,0.12418249519862458,0.13053799177206538,0.08542302939582282,0.11789130206053781,0.15049734357912664,0.15741978157363956,0.1773673452614645,0.18451712267902576,0.1530453150260214,0.1474703966314136,0.1742323079237394,0.21395791034673037,0.23436702336616733,0.24189690910751246,0.34623302439240017,0.32795226073943573,0.3741741592190523,0.35581543613830724,0.3438365845878339,0.2736815250087681,0.2743850209054892,0.28784099053679035,0.30111357809379896,0.3141716593791008,0.3398887754438022,0.3072467861740401,0.3259122434418299,0.29905142982267835,0.2653437919031911,0.30863887887026353,0.38372320502772045,0.5228187663834588,0.6613493592062671,0.5863152012823741,0.43317981569431235,-0.2433738927898922,-0.5528765058027424,-0.3469403064005648,0.01953428378833213,0.24330448573039287,0.28570392445707016,0.2887513999071434,0.3299334294177142,0.3576733784047732,0.3397522188417808,0.37301084249941596,0.3477897093246859,0.3286607202319348,0.29630392688028834,N
0.5863152012823741,0.43317981569431235,-0.2433738927898922,-0.5528765058027424,-0.3469403064005648,0.01953428378833213,0.24330448573039287,0.28570392445707016,0.2887513999071434,0.3299334294177142,0.3576733784047732,0.3397522188417808,0.37301084249941596,0.3477897093246859,0.3286607202319348,0.29630392688028834,0.3217409333401481,0.3146647269571425,0.3138283945363442,0.3128118517017524,0.31164653034359885,0.3168153837010624,0.30253437973964226,0.26883024398074135,0.2608997871313024,0.25940762166499254,0.2901886534139819,0.25646786841642666,0.2615144494215879,0.24081607622604012,0.27182700003463245,0.22550153490925534,0.22446296669681548,0.17838163526576156,0.15180080796664205,0.15763817697618465,0.11846747975219939,0.15045422780777779,0.11809300939859602,0.17626650387844103,0.16365561513398064,0.13189218419014634,0.132607233793794,0.12708793151598066,0.12824546515723892,0.0973657038127992,0.07962398565723845,0.04921122254635335,0.057754953114478966,0.07944544504137094,0.0949257626402249,0.1041978292216279,0.06209149560991486,0.06540397062079675,0.07541735904018988,0.06631960945056853,0.03811063498043386,0.0036961879766509637,0.027606513498554277,0.045310129960427374,0.05035318641783625,0.049187776192108165,-0.0033589424270061923,0.015320163524707222,0.021333813048415372,0.008227673442934189,0.008265817787247736,0.0020875947563283983,0.0155039095534985,0.0033417174538454214,-0.0021350788886245324,0.031337406471507526,0.02632081037266059,-0.004280191318901063,0.036329055965707076,0.01908562412635043,0.047237478113014535,0.056252266834219786,0.03967517168494598,0.02976960524807199,0.0652518671388239,0.0235109729192627,0.033605942812130245,0.04390928805554838,0.022152608082541343,0.05222282012739295,0.06958576627261874,0.08069096697689479,0.10489376558647683,0.0647528208697023,0.05705957314763069,0.07535577244592813,0.11963596890060059,0.0672857131128863,0.1054380570980454,0.11147761684890595,0.12411561637314918,0.1756096368821666,0.1368895038041289,0.15636683707186114,0.16304766829168044,0.18918661376700738,0.15733502262342663,0.17072968948320966,0.17773257249658134,0.17832945943096346,0.21122376184014874,0.22477480391575475,0.2576840494454677,0.3292925821183373,0.2911599765898216,0.33685768768736263,0.33730144402824114,0.2924669981054108,0.2862185262112774,0.2862632049555559,0.305478377712769,0.33092761490859235,0.34967295957681316,0.3036032022557048,0.30238560573208745,0.2814526087552197,0.33110918794326477,0.3416132649969698,0.41617292454192545,0.5031204933404639,0.647582498413378,0.5913879369933326,0.4119230096271896,-0.1812549083455915,-0.5622523732354103,-0.4020006509138294,-0.01668613409750905,0.2388244621094942,0.280695594930496,0.30257320001934046,0.31096233271393553,0.28655419385336717,0.26811619813890697,0.27505507127624085,0.2751515151244194,0.31362188116560336,0.2937132661438558,0.31226376094000013,0.3112359380715961,0.34229326067689303,0.3409420983667496,0.35238956122521525,0.3831225421766142,0.38800148893181974,N
