-673.0
-637.0
-547.0
-513.0
-537.0
-481.0
-321.0
-156.0
-271.0
-378.0
1527.0
1363.0
357.0
-88.0
-146.0
38.0
35.0
-263.0
-466.0
-562.0
-569.0
-521.0
-450.0
-452.0
-449.0
-458.0
-385.0
-112.0
-125.0
-187.0
-446.0
767.0
273.0
-23.0
-47.0
200.0
364.0
154.0
-94.0
-205.0
-213.0
-165.0
-140.0
-131.0
-186.0
-159.0
-129.0
-56.0
176.0
-24.0
-116.0
62.0
849.0
348.0
119.0
148.0
348.0
468.0
203.0
-40.0
-157.0
-190.0
-167.0
-99.0
-126.0
-126.0
-149.0
-131.0
-38.0
178.0
-16.0
-139.0
266.0
843.0
343.0
109.0
124.0
382.0
427.0
153.0
-117.0
-262.0
-338.0
-300.0
-262.0
-205.0
-215.0
-193.0
-182.0
-27.0
-118.0
-198.0
-461.0
578.0
163.0
-46.0
-104.0
71.0
237.0
-51.0
-377.0
-501.0
-494.0
-422.0
-337.0
-331.0
-352.0
-341.0
-267.0
-91.0
-102.0
-186.0
-586.0
1225.0
651.0
178.0
36.0
202.0
396.0
218.0
-54.0
-181.0
-229.0
-190.0
-91.0
-89.0
-122.0
-160.0
-155.0
-129.0
15.0
53.0
-46.0
-504.0
1685.0
1129.0
404.0
159.0
259.0
486.0
361.0
86.0
-105.0
-188.0
-159.0
-164.0
-206.0
-249.0
-268.0
-210.0
-143.0
-62.0
186.0
11.0
-82.0
11.0
846.0
447.0
218.0
169.0
391.0
464.0
202.0
-81.0
-274.0
-319.0
-317.0
-245.0
-222.0
-251.0
-277.0
-294.0
-260.0
-298.0
-388.0
-706.0
1602.0
860.0
73.0
-235.0
-190.0
29.0
-81.0
-314.0
-426.0
-440.0
-412.0
-293.0
-250.0
-245.0
-272.0
-246.0
-206.0
-82.0
-34.0
-111.0
-435.0
2038.0
1295.0
474.0
331.0
490.0
413.0
118.0
-81.0
-147.0
-136.0
-51.0
-5.0
-11.0
-21.0
-17.0
-9.0
-21.0
56.0
128.0
-137.0
-268.0
-13.0
576.0
108.0
-177.0
-225.0
-20.0
113.0
-117.0
-315.0
-369.0
-381.0
-265.0
-225.0
-220.0
-200.0
-157.0
-85.0
-47.0
121.0
165.0
17.0
-540.0
1555.0
1001.0
344.0
168.0
301.0
567.0
486.0
307.0
234.0
293.0
399.0
543.0
550.0
456.0
315.0
206.0
140.0
132.0
214.0
44.0
-84.0
2659.0
1883.0
689.0
195.0
154.0
406.0
382.0
123.0
-63.0
-152.0
-228.0
-261.0
-246.0
176.0
450.0
408.0
253.0
166.0
-289.0
-650.0
-881.0
23.0
-156.0
-374.0
-283.0
116.0
217.0
-106.0
-442.0
-697.0
-785.0
-864.0
-877.0
-991.0
-991.0
-932.0
-825.0
-647.0
-705.0
479.0
735.0
1.0
-331.0
-264.0
12.0
120.0
-104.0
-269.0
-341.0
-350.0
-295.0
-255.0
-235.0
-250.0
-73.0
84.0
91.0
-234.0
1814.0
1360.0
746.0
502.0
603.0
870.0
745.0
474.0
281.0
207.0
174.0
189.0
126.0
55.0
46.0
251.0
33.0
-59.0
383.0
1009.0
491.0
221.0
198.0
519.0
648.0
372.0
125.0
24.0
-8.0
1.0
12.0
-5.0
-56.0
-97.0
-89.0
-248.0
-460.0
2573.0
1377.0
129.0
-414.0
-454.0
-192.0
-176.0
-385.0
-529.0
-517.0
-479.0
-439.0
-408.0
-377.0
-305.0
-222.0
17.0
-117.0
-194.0
-78.0
747.0
289.0
39.0
39.0
281.0
425.0
94.0
-164.0
-275.0
-295.0
-265.0
-244.0
-204.0
-209.0
-163.0
-90.0
165.0
-6.0
-110.0
-235.0
728.0
373.0
118.0
63.0
313.0
148.0
-138.0
-326.0
-359.0
-341.0
-273.0
-255.0
-351.0
-276.0
-162.0
86.0
56.0
9.0
670.0
1199.0
530.0
143.0
-11.0
151.0
187.0
-174.0
-464.0
-627.0
-658.0
-674.0
-709.0
-748.0
-754.0
-757.0
-774.0
-682.0
-595.0
-696.0
-799.0
2184.0
1093.0
-29.0
-476.0
-513.0
-293.0
-328.0
-659.0
-814.0
-842.0
-762.0
-711.0
-701.0
-689.0
-660.0
-616.0
-550.0
-476.0
-206.0
-323.0
-394.0
-535.0
599.0
172.0
-50.0
-26.0
192.0
300.0
102.0
-177.0
-333.0
-368.0
-396.0
-325.0
-357.0
-382.0
-376.0
-367.0
-296.0
-33.0
-187.0
-293.0
-241.0
604.0
166.0
-62.0
-31.0
194.0
345.0
86.0
-154.0
-305.0
-315.0
-315.0
-277.0
-286.0
-310.0
-305.0
-327.0
-251.0
-67.0
-263.0
-380.0
705.0
1057.0
325.0
154.0
254.0
324.0
50.0
-180.0
-257.0
-281.0
-227.0
-179.0
-229.0
-287.0
-251.0
-201.0
-108.0
10.0
-47.0
-333.0
2333.0
1398.0
579.0
293.0
331.0
453.0
283.0
-45.0
-279.0
-371.0
-372.0
-352.0
-346.0
-389.0
-439.0
-365.0
-184.0
-332.0
-446.0
189.0
688.0
119.0
-117.0
-90.0
67.0
140.0
-66.0
-281.0
-469.0
-557.0
-614.0
-645.0
-686.0
-741.0
-711.0
-599.0
-440.0
-557.0
-691.0
1456.0
1124.0
147.0
-243.0
-98.0
183.0
348.0
158.0
10.0
-54.0
-48.0
20.0
49.0
99.0
113.0
260.0
530.0
689.0
712.0
309.0
2218.0
1765.0
1006.0
641.0
709.0
832.0
605.0
265.0
73.0
35.0
71.0
135.0
164.0
122.0
44.0
68.0
110.0
-94.0
-266.0
993.0
1068.0
242.0
-145.0
126.0
300.0
138.0
-26.0
-85.0
-104.0
-41.0
12.0
-26.0
-45.0
-36.0
-22.0
153.0
152.0
87.0
-320.0
1378.0
1021.0
608.0
529.0
744.0
1061.0
1007.0
813.0
610.0
480.0
369.0
302.0
169.0
79.0
-136.0
-352.0
-525.0
-565.0
-784.0
-992.0
1546.0
808.0
-276.0
-701.0
-731.0
-474.0
-498.0
-699.0
-846.0
-839.0
-784.0
-697.0
-636.0
-578.0
-561.0
-530.0
-477.0
-378.0
-165.0
-403.0
-534.0
-133.0
514.0
-88.0
-355.0
-309.0
-56.0
99.0
-96.0
-260.0
-299.0
-300.0
-259.0
-214.0
-217.0
-197.0
-216.0
-205.0
-197.0
-138.0
-70.0
-143.0
-380.0
2479.0
1335.0
386.0
-27.0
19.0
185.0
94.0
-208.0
-321.0
-325.0
-346.0
-279.0
-286.0
-268.0
-294.0
-238.0
-215.0
-143.0
27.0
-158.0
-272.0
752.0
220.0
-12.0
-17.0
211.0
401.0
161.0
-89.0
-198.0
-223.0
-229.0
-182.0
-193.0
-213.0
-224.0
-203.0
-213.0
-62.0
-105.0
-218.0
-617.0
865.0
371.0
91.0
45.0
234.0
401.0
224.0
-46.0
-188.0
-201.0
-191.0
-153.0
-163.0
-198.0
-185.0
-159.0
-80.0
-16.0
-122.0
-293.0
3003.0
1594.0
447.0
-77.0
-96.0
129.0
41.0
-199.0
-337.0
-370.0
-353.0
-258.0
-237.0
-247.0
-213.0
-180.0
-165.0
43.0
-42.0
-170.0
-561.0
782.0
271.0
-25.0
-20.0
159.0
431.0
299.0
153.0
46.0
35.0
-9.0
-38.0
-55.0
-95.0
-144.0
-123.0
-45.0
-280.0
-432.0
840.0
879.0
56.0
-350.0
-471.0
-355.0
-371.0
-612.0
-756.0
-744.0
-670.0
-610.0
-485.0
-386.0
-299.0
-251.0
-71.0
-48.0
-52.0
2520.0
1420.0
438.0
-4.0
-6.0
169.0
107.0
-135.0
-288.0
-308.0
-317.0
-331.0
-297.0
-296.0
-244.0
-183.0
-115.0
-229.0
-507.0
2670.0
1386.0
304.0
-150.0
-191.0
-11.0
-44.0
-243.0
-440.0
-482.0
-509.0
-497.0
-450.0
-376.0
-296.0
-212.0
-71.0
-298.0
-435.0
891.0
1255.0
395.0
30.0
-9.0
164.0
150.0
-122.0
-277.0
-335.0
-308.0
-221.0
-278.0
-311.0
-271.0
-219.0
-159.0
-42.0
-67.0
-199.0
3035.0
1738.0
513.0
-39.0
-44.0
172.0
59.0
-238.0
-417.0
-457.0
-469.0
-424.0
-384.0
-409.0
-421.0
-415.0
-203.0
-230.0
-330.0
-770.0
770.0
436.0
80.0
16.0
216.0
458.0
269.0
2.0
-97.0
-85.0
-19.0
54.0
78.0
72.0
34.0
25.0
128.0
16.0
-124.0
-531.0
523.0
300.0
-46.0
-138.0
-20.0
-230.0
-571.0
-840.0
-851.0
-766.0
-699.0
-705.0
-682.0
-634.0
-555.0
-392.0
-231.0
-221.0
-458.0
1955.0
1387.0
622.0
334.0
401.0
545.0
353.0
20.0
-307.0
-554.0
-677.0
-721.0
-674.0
-469.0
-203.0
-95.0
173.0
25.0
0.0
86.0
1051.0
565.0
318.0
292.0
526.0
564.0
212.0
-68.0
-379.0
-387.0
-219.0
-44.0
-7.0
-11.0
-66.0
123.0
-31.0
-169.0
-400.0
780.0
479.0
309.0
470.0
765.0
996.0
855.0
601.0
452.0
295.0
348.0
466.0
459.0
273.0
291.0
313.0
132.0
108.0
2426.0
1922.0
826.0
458.0
501.0
758.0
627.0
153.0
-153.0
-236.0
-203.0
-241.0
-231.0
-282.0
-152.0
49.0
-84.0
-163.0
3574.0
1962.0
818.0
362.0
281.0
469.0
325.0
-204.0
-425.0
-515.0
-613.0
-590.0
-498.0
-106.0
-273.0
-219.0
373.0
1104.0
704.0
554.0
633.0
863.0
912.0
532.0
139.0
-18.0
-148.0
-338.0
-432.0
-556.0
-614.0
-791.0
-1214.0
719.0
138.0
-552.0
-827.0
-769.0
-641.0
-772.0
-1005.0
-1101.0
-1019.0
-921.0
-873.0
-808.0
-711.0
-435.0
-513.0
-569.0
164.0
590.0
7.0
-276.0
-356.0
-204.0
-244.0
-502.0
-659.0
-720.0
-699.0
-668.0
-633.0
-664.0
-422.0
-584.0
-643.0
-474.0
456.0
-24.0
-204.0
-215.0
-8.0
72.0
-153.0
-364.0
-479.0
-551.0
-486.0
-411.0
-333.0
-214.0
66.0
-55.0
-120.0
-396.0
692.0
219.0
-71.0
-128.0
-12.0
89.0
-65.0
-220.0
-307.0
-345.0
-308.0
-272.0
-328.0
-382.0
-359.0
-271.0
-392.0
-540.0
2574.0
1283.0
-2.0
-52.0
2520.0
1420.0
438.0
-4.0
-6.0
169.0
107.0
-135.0
-288.0
-308.0
-317.0
-331.0
-297.0
-296.0
-244.0
-183.0
-115.0
-229.0
-507.0
2670.0
1386.0
304.0
-150.0
-191.0
-11.0
-44.0
-243.0
-440.0
-482.0
-509.0
-497.0
-450.0
-376.0
-296.0
-212.0
-71.0
-298.0
-435.0
891.0
1255.0
395.0
30.0
-9.0
164.0
150.0
-122.0
-277.0
-335.0
-308.0
-221.0
-278.0
-311.0
-271.0
-219.0
-159.0
-42.0
-67.0
-199.0
3035.0
1738.0
513.0
-39.0
-44.0
172.0
59.0
-238.0
-417.0
-457.0
-469.0
-424.0
-384.0
-409.0
-421.0
-415.0
-203.0
-230.0
-330.0
-770.0
770.0
436.0
80.0
16.0
216.0
458.0
269.0
2.0
-97.0
-85.0
-19.0
54.0
78.0
72.0
34.0
25.0
128.0
16.0
-124.0
-531.0
523.0
-533.0
-463.0
-415.0
-600.0
-724.0
-743.0
-821.0
-826.0
-747.0
-664.0
-663.0
-595.0
-438.0
-55.0
65.0
5.0
-305.0
1144.0
673.0
465.0
383.0
458.0
417.0
114.0
-307.0
-432.0
-452.0
-304.0
-132.0
34.0
116.0
62.0
-43.0
-36.0
-185.0
-311.0
1742.0
1419.0
424.0
-9.0
-12.0
189.0
216.0
148.0
123.0
202.0
323.0
414.0
435.0
309.0
148.0
66.0
134.0
324.0
151.0
76.0
350.0
1145.0
601.0
199.0
120.0
255.0
295.0
137.0
54.0
89.0
63.0
91.0
85.0
-27.0
-75.0
-62.0
-19.0
132.0
-11.0
-144.0
-292.0
768.0
244.0
-85.0
-143.0
99.0
261.0
90.0
-213.0
-396.0
-467.0
-368.0
-264.0
-219.0
-614.0
-783.0
-715.0
-732.0
-913.0
-860.0
-642.0
682.0
414.0
358.0
485.0
841.0
682.0
511.0
419.0
458.0
504.0
693.0
797.0
496.0
459.0
265.0
246.0
-126.0
-416.0
15.0
375.0
-206.0
-495.0
-507.0
-323.0
-288.0
-568.0
-731.0
-797.0
-706.0
-583.0
-466.0
-440.0
-425.0
-343.0
-212.0
-86.0
-167.0
-372.0
2945.0
1481.0
276.0
-247.0
-228.0
34.0
73.0
-77.0
-92.0
-10.0
33.0
88.0
130.0
113.0
9.0
-71.0
-164.0
-127.0
61.0
-130.0
-210.0
-143.0
661.0
149.0
-137.0
-137.0
70.0
209.0
-71.0
-324.0
-418.0
-393.0
-332.0
-311.0
-334.0
-363.0
-334.0
-396.0
-390.0
-411.0
-277.0
-401.0
-490.0
2199.0
1286.0
137.0
-375.0
-468.0
-318.0
-343.0
-550.0
-729.0
-783.0
-750.0
-688.0
-608.0
-576.0
-581.0
-548.0
-531.0
-493.0
-449.0
-292.0
-259.0
-302.0
-713.0
60.0
-26.0
-2.0
212.0
500.0
498.0
272.0
92.0
31.0
44.0
59.0
126.0
147.0
125.0
71.0
12.0
-20.0
4.0
-39.0
-138.0
-621.0
1723.0
1028.0
251.0
-50.0
29.0
183.0
95.0
-85.0
-202.0
-253.0
-207.0
-164.0
-171.0
-137.0
15.0
75.0
153.0
174.0
229.0
283.0
178.0
-162.0
2840.0
1624.0
611.0
148.0
133.0
329.0
189.0
-95.0
-240.0
-319.0
-355.0
-345.0
-278.0
-323.0
-321.0
-341.0
-291.0
-201.0
51.0
-126.0
-202.0
159.0
730.0
161.0
-67.0
81.0
365.0
608.0
349.0
86.0
-21.0
-48.0
-42.0
-15.0
-59.0
-86.0
-159.0
-199.0
-74.0
-217.0
-336.0
-712.0
470.0
99.0
-186.0
-279.0
-76.0
154.0
45.0
-140.0
-303.0
-411.0
-483.0
-463.0
-475.0
-418.0
-316.0
-231.0
8.0
120.0
192.0
-70.0
1341.0
889.0
612.0
560.0
752.0
868.0
622.0
363.0
146.0
61.0
43.0
41.0
12.0
-27.0
-29.0
89.0
304.0
238.0
240.0
2249.0
2017.0
885.0
317.0
142.0
234.0
135.0
-250.0
-503.0
-577.0
-576.0
-561.0
-500.0
-483.0
-519.0
-493.0
-221.0
-416.0
-557.0
-507.0
343.0
-158.0
-340.0
-272.0
5.0
116.0
-166.0
-391.0
-527.0
-560.0
-531.0
-476.0
-487.0
-475.0
-376.0
-238.0
-438.0
-683.0
767.0
672.0
-295.0
-684.0
-655.0
-374.0
-207.0
-309.0
-300.0
-211.0
-126.0
-28.0
43.0
100.0
116.0
114.0
157.0
202.0
157.0
68.0
3581.0
2296.0
1150.0
624.0
509.0
555.0
277.0
-188.0
-470.0
-609.0
-657.0
-496.0
-330.0
-374.0
-421.0
-415.0
-459.0
-561.0
2436.0
1170.0
-44.0
-622.0
-726.0
-615.0
-597.0
-764.0
-860.0
-833.0
-818.0
-755.0
-666.0
-617.0
-618.0
-574.0
-411.0
-393.0
-455.0
-906.0
417.0
-40.0
-320.0
-343.0
-100.0
156.0
56.0
-116.0
-211.0
-207.0
-179.0
-177.0
-177.0
-164.0
-134.0
-123.0
39.0
-17.0
-101.0
-482.0
831.0
441.0
201.0
187.0
337.0
518.0
343.0
114.0
-18.0
8.0
11.0
47.0
47.0
58.0
35.0
49.0
48.0
183.0
132.0
30.0
-518.0
1602.0
1001.0
343.0
105.0
262.0
451.0
298.0
-19.0
-159.0
-205.0
-174.0
-83.0
-74.0
-105.0
-87.0
-136.0
-144.0
29.0
102.0
-5.0
-465.0
1604.0
970.0
279.0
6.0
35.0
170.0
-24.0
-303.0
-439.0
-439.0
-384.0
-264.0
-203.0
-162.0
-179.0
-190.0
-133.0
-31.0
-95.0
2392.0
1662.0
543.0
101.0
-6.0
147.0
25.0
-313.0
-556.0
-623.0
-626.0
-581.0
-551.0
-519.0
-467.0
-403.0
-319.0
-296.0
-368.0
-804.0
1168.0
646.0
127.0
-32.0
86.0
243.0
81.0
-225.0
-430.0
-488.0
-467.0
-421.0
-378.0
-315.0
-324.0
-312.0
-18.0
-152.0
-227.0
-43.0
752.0
253.0
7.0
80.0
334.0
498.0
273.0
70.0
-51.0
-72.0
-20.0
33.0
21.0
-26.0
-32.0
91.0
171.0
70.0
-228.0
2887.0
1677.0
627.0
190.0
217.0
384.0
296.0
38.0
-136.0
-152.0
-156.0
-56.0
8.0
-11.0
-34.0
-26.0
-17.0
-156.0
-530.0
2171.0
1132.0
204.0
-231.0
-299.0
-261.0
-484.0
-783.0
-1008.0
-1058.0
-1066.0
-961.0
-996.0
-1065.0
-957.0
-656.0
-532.0
-378.0
1558.0
1555.0
749.0
458.0
595.0
466.0
-3.0
-310.0
-540.0
-687.0
-695.0
-588.0
-545.0
-380.0
-113.0
-12.0
-17.0
-372.0
1161.0
863.0
613.0
574.0
827.0
1065.0
881.0
576.0
424.0
483.0
549.0
607.0
620.0
586.0
513.0
656.0
504.0
351.0
62.0
1142.0
658.0
381.0
273.0
497.0
645.0
351.0
56.0
-80.0
-112.0
-67.0
-33.0
-99.0
-118.0
-66.0
196.0
10.0
-75.0
86.0
861.0
368.0
95.0
95.0
376.0
461.0
154.0
-106.0
-157.0
-161.0
-81.0
2.0
-19.0
-100.0
-39.0
32.0
-80.0
-226.0
3089.0
1756.0
515.0
-52.0
-82.0
95.0
-20.0
-320.0
-494.0
-500.0
-412.0
-292.0
-236.0
-266.0
-205.0
62.0
-69.0
-42.0
375.0
1100.0
519.0
150.0
39.0
172.0
142.0
-245.0
-538.0
-602.0
-550.0
-380.0
-397.0
-239.0
-132.0
-301.0
-392.0
2104.0
1588.0
387.0
-166.0
-166.0
110.0
63.0
-227.0
-397.0
-361.0
-301.0
-219.0
-186.0
-164.0
-125.0
-239.0
-528.0
2311.0
1277.0
292.0
-126.0
-55.0
104.0
-76.0
-403.0
-535.0
-584.0
-494.0
-385.0
-343.0
-229.0
-163.0
-238.0
-523.0
2536.0
1369.0
309.0
-102.0
-53.0
106.0
-54.0
-406.0
-599.0
-552.0
-444.0
-347.0
-357.0
-378.0
-205.0
-173.0
-163.0
-602.0
1159.0
694.0
377.0
269.0
445.0
554.0
356.0
93.0
-65.0
-94.0
-91.0
-171.0
-249.0
-400.0
-472.0
-604.0
-654.0
-880.0
-1026.0
1812.0
902.0
-121.0
-436.0
-434.0
-250.0
-286.0
-635.0
-844.0
-928.0
-965.0
-837.0
-730.0
-624.0
-547.0
-517.0
-368.0
-172.0
-192.0
-96.0
2686.0
1999.0
-561.0
2436.0
1170.0
-44.0
-622.0
-726.0
-615.0
-597.0
-764.0
-860.0
-833.0
-818.0
-755.0
-666.0
-617.0
-618.0
-574.0
-411.0
-393.0
-455.0
-906.0
417.0
-40.0
-320.0
-343.0
-100.0
156.0
56.0
-116.0
-211.0
-207.0
-179.0
-177.0
-177.0
-164.0
-134.0
-123.0
39.0
-17.0
-101.0
-482.0
831.0
441.0
201.0
187.0
337.0
518.0
343.0
114.0
-18.0
8.0
11.0
47.0
47.0
58.0
35.0
49.0
48.0
183.0
132.0
30.0
-518.0
1602.0
1001.0
343.0
105.0
262.0
451.0
298.0
-19.0
-159.0
-205.0
-174.0
-83.0
-74.0
-105.0
-87.0
-136.0
-144.0
29.0
102.0
-5.0
-465.0
1604.0
970.0
279.0
6.0
35.0
170.0
-24.0
-303.0
-439.0
-439.0
-384.0
-264.0
-203.0
-162.0
-179.0
-190.0
-133.0
-31.0
-95.0
2392.0
1662.0
543.0
101.0
-6.0
147.0
25.0
-313.0
-556.0
-623.0
-626.0
-581.0
-551.0
-519.0
-467.0
-403.0
-319.0
-296.0
-368.0
-804.0
1168.0
646.0
127.0
-32.0
86.0
243.0
81.0
-225.0
-430.0
-488.0
-467.0
-421.0
-378.0
-315.0
-324.0
-312.0
-18.0
-152.0
-227.0
-43.0
752.0
253.0
7.0
80.0
334.0
498.0
273.0
70.0
-51.0
-72.0
-20.0
33.0
21.0
-26.0
-32.0
91.0
171.0
70.0
-228.0
2887.0
1677.0
627.0
190.0
217.0
384.0
296.0
38.0
-136.0
-152.0
-156.0
-56.0
8.0
-11.0
-34.0
-26.0
-17.0
-156.0
-530.0
2171.0
1132.0
204.0
-231.0
-299.0
-261.0
-484.0
-783.0
-1008.0
-1058.0
-1066.0
-961.0
-996.0
-1065.0
-957.0
-656.0
-532.0
-378.0
1558.0
1555.0
749.0
458.0
595.0
466.0
-3.0
-310.0
-540.0
-687.0
-695.0
-588.0
-545.0
-380.0
-113.0
-12.0
-17.0
-372.0
1161.0
863.0
613.0
574.0
827.0
1065.0
881.0
576.0
424.0
483.0
549.0
607.0
620.0
586.0
513.0
656.0
504.0
351.0
62.0
1142.0
658.0
381.0
273.0
497.0
645.0
351.0
56.0
-80.0
-112.0
-67.0
-33.0
-99.0
-118.0
-66.0
196.0
10.0
-75.0
86.0
861.0
368.0
95.0
95.0
376.0
461.0
154.0
-106.0
-157.0
-161.0
-81.0
2.0
-19.0
-100.0
-39.0
32.0
-80.0
-226.0
3089.0
1756.0
515.0
-52.0
-82.0
95.0
-20.0
-320.0
-494.0
-500.0
-412.0
-292.0
-236.0
-266.0
-205.0
62.0
-69.0
-42.0
375.0
1100.0
519.0
150.0
39.0
172.0
142.0
-245.0
-538.0
-602.0
916.0
486.0
347.0
46.0
-529.0
-941.0
-1141.0
-1223.0
-1194.0
-1158.0
-1159.0
-1097.0
-1051.0
-949.0
-852.0
-820.0
-1265.0
571.0
191.0
-285.0
-471.0
-380.0
-171.0
-346.0
-565.0
-667.0
-686.0
-620.0
-564.0
-593.0
-617.0
-641.0
-590.0
-447.0
-414.0
-426.0
-749.0
530.0
204.0
6.0
28.0
312.0
520.0
371.0
210.0
108.0
112.0
121.0
130.0
98.0
45.0
-16.0
-71.0
7.0
86.0
-76.0
-206.0
2905.0
1673.0
490.0
-24.0
-52.0
130.0
60.0
-190.0
-354.0
-357.0
-301.0
-283.0
-270.0
-321.0
-287.0
-291.0
-247.0
-51.0
-144.0
-265.0
-467.0
695.0
271.0
63.0
49.0
337.0
500.0
238.0
-8.0
-169.0
-232.0
-192.0
-171.0
-167.0
-152.0
-158.0
-135.0
-115.0
-232.0
-580.0
1416.0
845.0
164.0
-121.0
-29.0
-253.0
-494.0
-615.0
-635.0
-590.0
-515.0
-531.0
-520.0
-472.0
-392.0
-232.0
-271.0
-532.0
2470.0
1291.0
361.0
-65.0
-7.0
238.0
135.0
-140.0
-284.0
-321.0
-306.0
-286.0
-267.0
-312.0
-300.0
-236.0
-94.0
60.0
-53.0
-188.0
2733.0
1763.0
588.0
135.0
98.0
298.0
174.0
-173.0
-349.0
-467.0
-492.0
-427.0
-364.0
-309.0
-295.0
-255.0
-228.0
-130.0
-274.0
-381.0
1145.0
1123.0
180.0
-210.0
-314.0
-151.0
-88.0
-414.0
-659.0
-773.0
-754.0
-693.0
-598.0
-603.0
-552.0
-532.0
-496.0
-289.0
-233.0
-288.0
-742.0
1269.0
692.0
204.0
76.0
247.0
445.0
262.0
12.0
-118.0
-153.0
-203.0
-168.0
-145.0
-209.0
-214.0
-197.0
-180.0
-100.0
-10.0
-106.0
-185.0
2936.0
1908.0
702.0
2420759.0
3388987.0
3655337.0
3592240.0
3384137.0
3121039.0
2847637.0
2581376.0
2332414.0
2103885.0
1896063.0
1707836.0
1537491.0
1383849.0
1245475.0
1120938.0
1008864.0
907977.0
817194.0
735394.0
661821.0
595609.0
536205.0
482520.0
434099.0
390422.0
352552.0
316955.0
285121.0
256673.0
231252.0
208378.0
187425.0
168474.0
151533.0
136328.0
122679.0
110434.0
99379.0
89438.0
80493.0
72407.0
65205.0
58730.0
52746.0
47202.0
45390.0
39967.0
35117.0
31213.0
28100.0
25510.0
22911.0
20347.0
18195.0
16329.0
14704.0
13272.0
11928.0
10694.0
9602.0
8629.0
7757.0
7147.0
6332.0
5567.0
4737.0
5421.0
4546.0
3925.0
3556.0
3447.0
3387.0
2931.0
2414.0
2031.0
1781.0
1650.0
1520.0
1391.0
1231.0
1106.0
988.0
1078.0
876.0
687.0
361.0
1237.0
747.0
444.0
328.0
500.0
640.0
360.0
37.0
-147.0
-258.0
-296.0
-329.0
-384.0
-426.0
-413.0
-201.0
-360.0
-495.0
-527.0
448.0
13.0
-150.0
-146.0
100.0
322.0
152.0
-52.0
-148.0
-170.0
-153.0
-107.0
-108.0
-162.0
-178.0
-157.0
-146.0
141.0
-38.0
-129.0
-109.0
810.0
346.0
89.0
68.0
352.0
519.0
269.0
-18.0
-173.0
-229.0
-225.0
-182.0
-184.0
-194.0
-140.0
-122.0
-13.0
122.0
-12.0
-114.0
1823.0
1648.0
673.0
223.0
179.0
420.0
415.0
104.0
-117.0
-228.0
-285.0
-306.0
-284.0
-291.0
-304.0
-281.0
-194.0
36.0
-154.0
-245.0
718.0
1112.0
417.0
87.0
103.0
351.0
405.0
75.0
-194.0
-332.0
-338.0
-346.0
-338.0
-336.0
-372.0
-354.0
-147.0
-217.0
-313.0
-592.0
541.0
306.0
34.0
26.0
293.0
542.0
330.0
8.0
-139.0
-137.0
-104.0
-51.0
-112.0
-117.0
17.0
-91.0
-205.0
2102.0
1605.0
556.0
83.0
9.0
198.0
154.0
-171.0
-342.0
-430.0
-444.0
-414.0
-393.0
-417.0
-377.0
-256.0
-416.0
-528.0
1651.0
1127.0
63.0
-477.0
-609.0
-498.0
-461.0
-693.0
-811.0
-850.0
-811.0
-619.0
-494.0
-429.0
-371.0
-83.0
-206.0
-331.0
-362.0
550.0
119.0
-144.0
-234.0
-32.0
200.0
91.0
-62.0
-131.0
-106.0
-146.0
-118.0
-131.0
-116.0
-24.0
-100.0
-278.0
3068.0
1718.0
544.0
0.0
-36.0
174.0
84.0
-171.0
-333.0
-379.0
-412.0
-391.0
-427.0
-307.0
-187.0
-288.0
-373.0
1101.0
1357.0
461.0
96.0
120.0
389.0
438.0
206.0
36.0
12.0
-11.0
-53.0
-5.0
-50.0
-31.0
176.0
67.0
-34.0
-301.0
775.0
427.0
197.0
179.0
363.0
522.0
277.0
-50.0
-205.0
-250.0
-225.0
-196.0
-234.0
-157.0
-22.0
-188.0
-267.0
805.0
999.0
248.0
-116.0
-200.0
-40.0
-24.0
-303.0
-514.0
-611.0
-586.0
-547.0
-474.0
-476.0
-490.0
-487.0
-528.0
-631.0
-1139.0
643.0
174.0
-212.0
-292.0
-97.0
137.0
-3.0
-212.0
-294.0
-256.0
-216.0
-168.0
-164.0
-162.0
-112.0
4.0
90.0
-10.0
-153.0
2895.0
1861.0
609.0
68.0
46.0
246.0
188.0
-93.0
-269.0
-273.0
-260.0
-197.0
-218.0
-254.0
-229.0
-215.0
-91.0
5.0
-136.0
-253.0
1951.0
1552.0
492.0
8.0
5.0
210.0
162.0
-128.0
-345.0
-379.0
-354.0
-280.0
-312.0
-329.0
-314.0
-273.0
-197.0
-320.0
-412.0
-621.0
390.0
23.0
-207.0
-242.0
-70.0
52.0
-168.0
-409.0
-552.0
-592.0
-574.0
-526.0
-554.0
-573.0
-415.0
-256.0
-391.0
-454.0
447.0
883.0
246.0
-40.0
-24.0
245.0
327.0
96.0
-112.0
-152.0
-176.0
-132.0
-86.0
-123.0
-110.0
-89.0
70.0
180.0
-26.0
-163.0
245.0
894.0
374.0
143.0
157.0
406.0
488.0
211.0
-39.0
-108.0
-122.0
-75.0
-32.0
-43.0
-13.0
34.0
133.0
235.0
57.0
-73.0
1206.0
1304.0
456.0
-16.0
9.0
170.0
156.0
-162.0
-384.0
-452.0
-458.0
-448.0
-375.0
-405.0
-437.0
-410.0
-320.0
-311.0
-383.0
-885.0
927.0
556.0
6.0
-138.0
27.0
241.0
64.0
-209.0
-302.0
-342.0
-310.0
-255.0
-246.0
-262.0
-271.0
-196.0
-94.0
-71.0
-209.0
-575.0
1947.0
1150.0
326.0
38.0
83.0
305.0
132.0
-139.0
-243.0
-300.0
-333.0
-273.0
-278.0
-343.0
-314.0
-207.0
-39.0
-227.0
-372.0
-206.0
561.0
134.0
-51.0
62.0
335.0
490.0
219.0
-12.0
-78.0
-80.0
-34.0
27.0
36.0
29.0
47.0
73.0
181.0
218.0
38.0
-190.0
2882.0
1645.0
514.0
-10.0
-109.0
53.0
14.0
-292.0
-457.0
-505.0
-504.0
-423.0
-390.0
-394.0
-425.0
-401.0
-305.0
-391.0
-483.0
-739.0
309.0
-24.0
-213.0
-230.0
18.0
223.0
80.0
-170.0
-321.0
-346.0
-305.0
-275.0
-245.0
-290.0
-273.0
-154.0
-33.0
-70.0
-166.0
-448.0
768.0
401.0
191.0
211.0
446.0
615.0
428.0
122.0
-64.0
-116.0
-116.0
-103.0
-134.0
-186.0
-193.0
-161.0
-105.0
-124.0
-200.0
-660.0
1373.0
959.0
315.0
129.0
267.0
449.0
333.0
-6.0
-189.0
-190.0
-192.0
-111.0
-88.0
-81.0
-88.0
-11.0
78.0
-99.0
-192.0
1463.0
1387.0
424.0
-3.0
-80.0
101.0
66.0
-251.0
-463.0
-544.0
-557.0
-546.0
-507.0
-524.0
-527.0
-499.0
-392.0
-210.0
-365.0
-461.0
1018.0
1147.0
301.0
-81.0
-108.0
98.0
80.0
-181.0
-359.0
-380.0
-343.0
-279.0
-226.0
-201.0
-195.0
-162.0
-124.0
-3.0
44.0
-72.0
-280.0
3022.0
1723.0
555.0
19.0
13.0
214.0
103.0
-205.0
-371.0
-405.0
-367.0
-303.0
-263.0
-257.0
-236.0
-245.0
-207.0
-90.0
-37.0
-176.0
-304.0
2498.0
1622.0
476.0
5.0
-29.0
180.0
98.0
-215.0
-366.0
-415.0
-401.0
-349.0
-337.0
-340.0
-302.0
-255.0
-186.0
-49.0
-78.0
-162.0
-581.0
1312.0
983.0
391.0
160.0
229.0
418.0
261.0
-38.0
-239.0
-316.0
-332.0
277.0
-50.0
-205.0
-250.0
-225.0
-196.0
-234.0
-157.0
-22.0
-188.0
-267.0
805.0
999.0
248.0
-116.0
-200.0
-40.0
-24.0
-303.0
-514.0
-611.0
-586.0
-547.0
-474.0
-476.0
-490.0
-487.0
-528.0
-631.0
-1139.0
643.0
174.0
-212.0
-292.0
-97.0
137.0
-3.0
-212.0
-294.0
-256.0
-216.0
-168.0
-164.0
-162.0
-112.0
4.0
90.0
-10.0
-153.0
2895.0
1861.0
609.0
68.0
46.0
246.0
188.0
-93.0
-269.0
-273.0
-260.0
-197.0
-218.0
-254.0
-229.0
-215.0
-91.0
5.0
-136.0
-253.0
1951.0
1552.0
492.0
8.0
5.0
210.0
162.0
-128.0
-345.0
-379.0
-354.0
-280.0
-312.0
-329.0
-314.0
-273.0
-197.0
-320.0
-412.0
-621.0
390.0
23.0
-207.0
-242.0
-70.0
52.0
-168.0
-409.0
-552.0
-592.0
-574.0
-526.0
-554.0
-573.0
-415.0
-256.0
-391.0
-454.0
447.0
883.0
246.0
-40.0
-24.0
245.0
327.0
96.0
-112.0
-152.0
-176.0
-132.0
-86.0
-123.0
-110.0
-89.0
70.0
180.0
-26.0
-163.0
245.0
894.0
374.0
143.0
157.0
406.0
488.0
211.0
-39.0
-108.0
-122.0
-75.0
-32.0
-43.0
-13.0
34.0
133.0
235.0
57.0
-73.0
1206.0
1304.0
456.0
-16.0
9.0
170.0
156.0
-162.0
-384.0
-452.0
-458.0
-448.0
-375.0
-405.0
-437.0
-410.0
-320.0
-311.0
-383.0
-885.0
927.0
556.0
6.0
-138.0
27.0
241.0
64.0
-209.0
-302.0
-342.0
-310.0
-255.0
-246.0
-262.0
-271.0
-196.0
-94.0
-71.0
-209.0
-575.0
1947.0
1150.0
326.0
38.0
83.0
305.0
132.0
-139.0
-243.0
-300.0
-333.0
-273.0
-278.0
-343.0
-314.0
-207.0
-39.0
-227.0
-372.0
-206.0
561.0
134.0
-51.0
62.0
335.0
490.0
219.0
-12.0
-78.0
-80.0
-34.0
27.0
36.0
29.0
47.0
73.0
181.0
218.0
38.0
-190.0
2882.0
1645.0
514.0
-10.0
-109.0
53.0
14.0
-292.0
-457.0
-505.0
-504.0
-423.0
-390.0
-394.0
-425.0
-401.0
-305.0
-391.0
-483.0
-739.0
309.0
-24.0
-213.0
-230.0
18.0
223.0
80.0
-170.0
-321.0
-346.0
-305.0
-275.0
-245.0
-290.0
-273.0
-154.0
-33.0
-70.0
-166.0
-448.0
768.0
401.0
191.0
211.0
446.0
615.0
428.0
122.0
-64.0
-116.0
-116.0
-103.0
-134.0
-186.0
-193.0
-161.0
-105.0
-124.0
-200.0
-660.0
1373.0
959.0
315.0
129.0
267.0
449.0
333.0
-6.0
-189.0
-190.0
-192.0
-111.0
-88.0
-314.0
-321.0
-329.0
-323.0
-240.0
-269.0
-378.0
-681.0
1842.0
997.0
137.0
-241.0
-209.0
6.0
-52.0
-289.0
-435.0
-456.0
-417.0
-338.0
-311.0
-327.0
-313.0
-328.0
-268.0
-160.0
-141.0
-221.0
-578.0
1639.0
1082.0
329.0
52.0
130.0
307.0
186.0
-107.0
-245.0
-274.0
-265.0
-254.0
-227.0
-252.0
-225.0
-219.0
-121.0
10.0
-75.0
-174.0
-412.0
734.0
318.0
81.0
60.0
284.0
513.0
274.0
13.0
-114.0
-167.0
-178.0
-149.0
-188.0
-206.0
-194.0
-148.0
-76.0
43.0
41.0
-69.0
-463.0
1638.0
1113.0
456.0
184.0
258.0
439.0
268.0
-32.0
-214.0
-311.0
-300.0
-313.0
-351.0
-388.0
-418.0
-409.0
-333.0
-208.0
-337.0
-442.0
791.0
935.0
175.0
-195.0
-259.0
-62.0
-35.0
-305.0
-492.0
-578.0
-541.0
-502.0
-483.0
-510.0
-467.0
-412.0
-284.0
-295.0
-368.0
-647.0
2243.0
1202.0
246.0
-168.0
-107.0
91.0
24.0
-202.0
-321.0
-344.0
-319.0
-280.0
-250.0
-277.0
-244.0
-234.0
-232.0
-155.0
-138.0
-245.0
-423.0
2844.0
1565.0
423.0
-49.0
-64.0
112.0
40.0
-226.0
-389.0
-382.0
-364.0
-314.0
-303.0
-291.0
-293.0
-270.0
-204.0
-166.0
-199.0
-295.0
-714.0
1190.0
784.0
156.0
-110.0
-29.0
132.0
-26.0
-297.0
-417.0
-495.0
-456.0
-415.0
-417.0
-434.0
-443.0
-385.0
-300.0
-227.0
-366.0
-487.0
2119.0
1379.0
252.0
-257.0
-333.0
-151.0
-194.0
-404.0
-552.0
-569.0
-552.0
-466.0
-452.0
-431.0
-394.0
-357.0
-337.0
-192.0
-88.0
-185.0
-288.0
2670.0
1693.0
590.0
79.0
75.0
275.0
184.0
-198.0
-346.0
-435.0
-414.0
-382.0
-411.0
-404.0
-386.0
-253.0
-109.0
-98.0
-186.0
-664.0
1187.0
893.0
379.0
230.0
385.0
603.0
457.0
77.0
-92.0
-150.0
-193.0
-205.0
-238.0
-263.0
-254.0
-259.0
-146.0
-27.0
-246.0
-341.0
470.0
826.0
186.0
-89.0
-65.0
169.0
244.0
32.0
-145.0
-137.0
-156.0
-102.0
-75.0
-118.0
-160.0
-138.0
12.0
122.0
-107.0
-258.0
747.0
1150.0
432.0
116.0
117.0
370.0
431.0
174.0
-19.0
-79.0
-146.0
-179.0
-232.0
-329.0
-385.0
-348.0
-246.0
-322.0
-424.0
-728.0
464.0
146.0
-59.0
-63.0
199.0
413.0
263.0
31.0
-23.0
-41.0
-20.0
30.0
78.0
99.0
114.0
134.0
-17.0
-186.0
2763.0
1613.0
393.0
-155.0
-240.0
-95.0
-220.0
-530.0
-662.0
-679.0
-640.0
-593.0
-558.0
-556.0
-636.0
-685.0
-1078.0
1041.0
597.0
-52.0
-284.0
-158.0
97.0
25.0
-200.0
-295.0
-265.0
-144.0
-40.0
-38.0
-21.0
21.0
-1.0
-72.0
-380.0
984.0
600.0
334.0
299.0
556.0
738.0
516.0
184.0
40.0
0.0
40.0
67.0
89.0
110.0
216.0
183.0
86.0
-344.0
1749.0
1232.0
472.0
158.0
192.0
296.0
102.0
-289.0
-506.0
-551.0
-499.0
-435.0
-399.0
-364.0
-378.0
-396.0
-362.0
-401.0
-748.0
442.0
119.0
-104.0
-147.0
41.0
196.0
-14.0
-269.0
-391.0
-410.0
-345.0
-265.0
-280.0
-318.0
-338.0
-284.0
-183.0
-116.0
-229.0
-377.0
2749.0
1650.0
483.0
-30.0
-11.0
215.0
143.0
-148.0
-306.0
-317.0
-298.0
-229.0
-202.0
-243.0
-228.0
-235.0
-226.0
-110.0
-155.0
-252.0
-538.0
895.0
485.0
154.0
141.0
388.0
573.0
343.0
32.0
-127.0
-162.0
-128.0
-91.0
-117.0
-161.0
-132.0
-133.0
-142.0
-27.0
135.0
-44.0
-155.0
-11.0
802.0
399.0
225.0
240.0
510.0
670.0
374.0
82.0
-47.0
-70.0
-7.0
-4.0
-12.0
-109.0
-137.0
-170.0
-145.0
-107.0
-142.0
-221.0
-666.0
1134.0
835.0
216.0
-27.0
64.0
240.0
58.0
-247.0
-403.0
-472.0
-452.0
-386.0
-331.0
-372.0
-441.0
-436.0
-409.0
-265.0
-112.0
-264.0
-368.0
653.0
1072.0
365.0
37.0
6.0
227.0
318.0
31.0
-215.0
-293.0
-287.0
-214.0
-189.0
-205.0
-187.0
-169.0
-143.0
-105.0
-17.0
-61.0
-151.0
-462.0
2007.0
1296.0
488.0
163.0
246.0
482.0
360.0
25.0
-183.0
-191.0
-163.0
-126.0
-134.0
-135.0
-189.0
-110.0
-73.0
26.0
25.0
-72.0
-519.0
1477.0
1010.0
341.0
46.0
172.0
350.0
187.0
-162.0
-363.0
-390.0
-359.0
-278.0
-280.0
-296.0
-280.0
-244.0
-218.0
-85.0
-65.0
-168.0
-410.0
2124.0
1367.0
507.0
137.0
208.0
427.0
320.0
-45.0
-250.0
-303.0
-296.0
-219.0
-257.0
-297.0
-322.0
-251.0
-145.0
-253.0
-318.0
-469.0
471.0
83.0
-130.0
-97.0
151.0
292.0
-10.0
-299.0
-450.0
-495.0
-431.0
-364.0
-312.0
-356.0
-381.0
-318.0
-335.0
-426.0
-776.0
1427.0
850.0
149.0
-150.0
-71.0
172.0
64.0
-176.0
-334.0
-369.0
-338.0
-290.0
-241.0
-218.0
-219.0
-136.0
-128.0
-182.0
-507.0
1634.0
1150.0
476.0
238.0
287.0
463.0
313.0
-19.0
-217.0
-247.0
-138.0
-119.0
-399.0
-566.0
-560.0
-490.0
-396.0
-278.0
-259.0
-229.0
-154.0
-13.0
-30.0
-74.0
-371.0
870.0
422.0
156.0
124.0
346.0
524.0
285.0
-22.0
-137.0
-167.0
-133.0
-86.0
-57.0
-109.0
-101.0
-82.0
-54.0
-47.0
-37.0
49.0
166.0
9.0
-99.0
-13.0
876.0
404.0
121.0
128.0
377.0
496.0
207.0
-82.0
-177.0
-213.0
-149.0
-110.0
-138.0
-161.0
-125.0
-126.0
-99.0
-97.0
-109.0
-74.0
22.0
64.0
-14.0
-175.0
2971.0
1751.0
616.0
77.0
75.0
269.0
151.0
-168.0
-349.0
-386.0
-389.0
-310.0
-276.0
-299.0
-282.0
-262.0
-267.0
-224.0
-232.0
-190.0
-90.0
-72.0
-165.0
-347.0
2787.0
1609.0
456.0
-27.0
-42.0
161.0
93.0
-212.0
-398.0
-465.0
-437.0
-331.0
-299.0
-322.0
-354.0
-351.0
-287.0
-273.0
-237.0
-143.0
-133.0
-218.0
-496.0
1572.0
1090.0
385.0
89.0
179.0
401.0
241.0
-116.0
-347.0
-426.0
-457.0
-381.0
-346.0
-393.0
-424.0
-444.0
-468.0
-464.0
-387.0
-392.0
-454.0
-886.0
1055.0
704.0
72.0
-116.0
45.0
309.0
196.0
-111.0
-273.0
-293.0
-293.0
-245.0
-233.0
-263.0
-205.0
-211.0
-173.0
-126.0
-15.0
-83.0
-141.0
-512.0
1560.0
1162.0
517.0
251.0
389.0
619.0
485.0
138.0
-57.0
-119.0
-143.0
-110.0
-127.0
-160.0
-155.0
-165.0
-159.0
-158.0
-55.0
-7.0
-130.0
-233.0
2394.0
1697.0
571.0
69.0
45.0
289.0
291.0
-31.0
-263.0
-325.0
-319.0
-260.0
-255.0
-282.0
-283.0
-268.0
-282.0
-313.0
-198.0
-87.0
-261.0
-337.0
748.0
1120.0
358.0
117.0
297.0
426.0
122.0
-236.0
-362.0
-367.0
-303.0
-249.0
-241.0
-229.0
-227.0
-194.0
-178.0
14.0
179.0
1.0
-68.0
680.0
1084.0
486.0
119.0
59.0
298.0
386.0
69.0
-223.0
-323.0
-374.0
-357.0
-348.0
-386.0
-416.0
-420.0
-514.0
-426.0
-318.0
-407.0
-535.0
1825.0
1270.0
196.0
-281.0
-337.0
-87.0
-104.0
-416.0
-617.0
-672.0
-664.0
-574.0
-495.0
-470.0
-457.0
-396.0
-373.0
-223.0
-74.0
-223.0
-280.0
105.0
772.0
250.0
3.0
10.0
300.0
439.0
130.0
-91.0
-186.0
-185.0
-154.0
-82.0
-113.0
-119.0
-135.0
-156.0
-101.0
10.0
31.0
-86.0
-255.0
2921.0
1737.0
618.0
102.0
93.0
292.0
197.0
-163.0
-355.0
-387.0
-390.0
-357.0
-315.0
-327.0
-291.0
-254.0
-219.0
-125.0
-150.0
-237.0
-639.0
964.0
790.0
313.0
82.0
266.0
489.0
299.0
-23.0
-208.0
-264.0
-269.0
-241.0
-248.0
-317.0
-371.0
-387.0
-393.0
-284.0
-361.0
-463.0
-738.0
261.0
-3.0
-220.0
-255.0
-18.0
211.0
33.0
-227.0
-357.0
-400.0
-369.0
-292.0
-278.0
-320.0
-304.0
-266.0
-217.0
-120.0
-27.0
-161.0
-248.0
1954.0
1601.0
545.0
92.0
82.0
340.0
390.0
91.0
-107.0
-177.0
-169.0
-129.0
-81.0
-93.0
-94.0
-115.0
-111.0
-68.0
63.0
3.0
-118.0
-429.0
2029.0
1262.0
407.0
68.0
138.0
408.0
330.0
29.0
-160.0
-196.0
-178.0
-147.0
-122.0
-160.0
-144.0
-129.0
-81.0
50.0
94.0
-28.0
-147.0
1977.0
1647.0
565.0
90.0
19.0
224.0
212.0
-130.0
-352.0
-439.0
-446.0
-484.0
-528.0
-549.0
-536.0
-458.0
-305.0
-428.0
-466.0
-413.0
290.0
-20.0
-218.0
-177.0
25.0
149.0
-131.0
-417.0
-512.0
-516.0
-464.0
-393.0
-417.0
-422.0
-419.0
-322.0
-176.0
-288.0
-347.0
54.0
732.0
299.0
53.0
87.0
351.0
530.0
271.0
-9.0
-111.0
-121.0
-105.0
-88.0
-147.0
-153.0
-133.0
-1.0
132.0
-44.0
-194.0
168.0
852.0
345.0
95.0
124.0
390.0
528.0
232.0
-35.0
-134.0
-123.0
-74.0
-38.0
-73.0
-61.0
0.0
44.0
161.0
100.0
-16.0
-317.0
706.0
365.0
128.0
96.0
278.0
467.0
218.0
-87.0
-229.0
-249.0
-245.0
-194.0
-200.0
-264.0
-322.0
-232.0
-125.0
-246.0
-335.0
1400.0
1183.0
224.0
-172.0
-254.0
-69.0
-69.0
-342.0
-563.0
-639.0
-593.0
1120.0
358.0
117.0
297.0
426.0
122.0
-236.0
-362.0
-367.0
-303.0
-249.0
-241.0
-229.0
-227.0
-194.0
-178.0
14.0
179.0
1.0
-68.0
680.0
1084.0
486.0
119.0
59.0
298.0
386.0
69.0
-223.0
-323.0
-374.0
-357.0
-348.0
-386.0
-416.0
-420.0
-514.0
-426.0
-318.0
-407.0
-535.0
1825.0
1270.0
196.0
-281.0
-337.0
-87.0
-104.0
-416.0
-617.0
-672.0
-664.0
-574.0
-495.0
-470.0
-457.0
-396.0
-373.0
-223.0
-74.0
-223.0
-280.0
105.0
772.0
250.0
3.0
10.0
300.0
439.0
130.0
-91.0
-186.0
-185.0
-154.0
-82.0
-113.0
-119.0
-135.0
-156.0
-101.0
10.0
31.0
-86.0
-255.0
2921.0
1737.0
618.0
102.0
93.0
292.0
197.0
-163.0
-355.0
-387.0
-390.0
-357.0
-315.0
-327.0
-291.0
-254.0
-507.0
-441.0
-465.0
-472.0
-364.0
-226.0
-345.0
-415.0
868.0
1139.0
304.0
-95.0
-111.0
129.0
207.0
-48.0
-251.0
-302.0
-260.0
-180.0
-115.0
-132.0
-104.0
-87.0
-26.0
82.0
-3.0
-122.0
-401.0
795.0
388.0
142.0
69.0
294.0
542.0
339.0
62.0
-38.0
-23.0
-38.0
-9.0
2.0
-57.0
-20.0
-5.0
97.0
181.0
4.0
-172.0
1709.0
1554.0
501.0
18.0
-118.0
64.0
48.0
-278.0
-479.0
-539.0
-524.0
-458.0
-393.0
-381.0
-397.0
-372.0
-344.0
-354.0
-416.0
-848.0
844.0
574.0
-13.0
-265.0
-135.0
73.0
-88.0
-385.0
-521.0
-536.0
-502.0
-452.0
-394.0
-401.0
-382.0
-291.0
-166.0
-187.0
-271.0
-608.0
1519.0
1124.0
435.0
161.0
265.0
489.0
349.0
38.0
-198.0
-254.0
-249.0
-205.0
-207.0
-161.0
-137.0
-32.0
117.0
-84.0
-201.0
811.0
1198.0
439.0
84.0
127.0
395.0
494.0
191.0
-70.0
-111.0
-69.0
-61.0
-34.0
-78.0
-83.0
-83.0
-17.0
146.0
2.0
-111.0
-168.0
814.0
461.0
239.0
229.0
467.0
605.0
330.0
9.0
-122.0
-129.0
-97.0
-96.0
-118.0
-176.0
-199.0
-121.0
-104.0
-213.0
-342.0
2219.0
1409.0
312.0
-207.0
-264.0
-102.0
-192.0
-528.0
-696.0
-773.0
-746.0
-612.0
-526.0
-472.0
-428.0
-234.0
-53.0
-187.0
-297.0
903.0
1276.0
546.0
201.0
153.0
322.0
309.0
-45.0
-316.0
-420.0
-462.0
-401.0
-428.0
-442.0
-326.0
-200.0
-188.0
-246.0
-600.0
759.0
363.0
90.0
70.0
297.0
508.0
263.0
-47.0
-163.0
-185.0
-153.0
-124.0
-76.0
-27.0
19.0
-139.0
1534.0
1549.0
537.0
90.0
35.0
234.0
240.0
-97.0
-304.0
-370.0
-354.0
-281.0
-236.0
-275.0
-165.0
5.0
-141.0
-270.0
662.0
1094.0
403.0
63.0
47.0
248.0
275.0
-63.0
-305.0
-351.0
-323.0
-247.0
-217.0
-272.0
-256.0
-137.0
-68.0
-178.0
-259.0
2466.0
1693.0
524.0
13.0
-13.0
168.0
137.0
-191.0
-364.0
-419.0
-344.0
-248.0
-240.0
-260.0
-264.0
-218.0
-150.0
-313.0
-397.0
1456.0
1277.0
300.0
-172.0
-242.0
-75.0
-166.0
-458.0
-654.0
-687.0
-651.0
-562.0
-469.0
-423.0
-457.0
-428.0
-386.0
-419.0
-478.0
-880.0
674.0
271.0
-81.0
-144.0
64.0
275.0
142.0
-150.0
-242.0
-240.0
-194.0
-130.0
-132.0
-145.0
-109.0
-90.0
49.0
166.0
-7.0
-139.0
883.0
1313.0
517.0
332.0
414.0
463.0
132.0
-119.0
-216.0
-236.0
-218.0
-187.0
-230.0
-239.0
-199.0
-211.0
-85.0
82.0
-91.0
-200.0
156.0
867.0
398.0
198.0
258.0
509.0
554.0
247.0
-57.0
-184.0
-191.0
-135.0
-145.0
-237.0
-282.0
-298.0
-319.0
-332.0
-133.0
-218.0
-276.0
-433.0
604.0
252.0
20.0
-7.0
212.0
344.0
112.0
-198.0
-324.0
-320.0
-276.0
-233.0
-262.0
-293.0
-337.0
-327.0
-199.0
-328.0
-389.0
-489.0
407.0
14.0
-219.0
-211.0
22.0
175.0
-64.0
-305.0
-428.0
-459.0
-377.0
-286.0
-267.0
-284.0
-229.0
-214.0
-123.0
-82.0
-193.0
-424.0
2713.0
1548.0
515.0
57.0
55.0
281.0
216.0
-52.0
-230.0
-238.0
-219.0
-144.0
-173.0
-178.0
-156.0
-156.0
-100.0
-38.0
-60.0
-164.0
-585.0
425.0
194.0
121.0
339.0
619.0
550.0
181.0
-48.0
-87.0
-63.0
-15.0
-77.0
-92.0
-72.0
-88.0
-82.0
30.0
130.0
-29.0
-162.0
1133.0
1401.0
572.0
149.0
87.0
302.0
289.0
-84.0
-368.0
-471.0
-446.0
-355.0
-285.0
-286.0
-296.0
-271.0
-248.0
-164.0
-158.0
-245.0
-521.0
1985.0
1139.0
226.0
-182.0
-172.0
-22.0
-167.0
-458.0
-675.0
-681.0
-649.0
-556.0
-490.0
-514.0
-462.0
-423.0
-435.0
-338.0
-139.0
-262.0
-282.0
-371.0
744.0
352.0
120.0
133.0
419.0
572.0
333.0
42.0
-99.0
-118.0
-92.0
-47.0
-109.0
-131.0
-71.0
-63.0
-30.0
-7.0
79.0
138.0
16.0
-108.0
2252.0
1807.0
745.0
235.0
149.0
361.0
297.0
-74.0
-337.0
-393.0
-392.0
-300.0
-276.0
-282.0
-320.0
-292.0
-298.0
-269.0
-260.0
-382.0
-513.0
2071.0
1215.0
136.0
-398.0
-485.0
-263.0
-271.0
-544.0
-722.0
-751.0
-708.0
-642.0
-545.0
-556.0
-559.0
-498.0
-444.0
-408.0
-312.0
-200.0
-306.0
-383.0
2240.0
1694.0
559.0
83.0
-4.0
224.0
249.0
-27.0
-215.0
-266.0
-258.0
-201.0
-180.0
-193.0
-184.0
-154.0
-120.0
-100.0
-30.0
74.0
78.0
-15.0
-348.0
2322.0
1419.0
494.0
54.0
18.0
213.0
55.0
-257.0
-472.0
-456.0
-458.0
-394.0
-373.0
-341.0
-270.0
-215.0
-224.0
-197.0
-138.0
-155.0
-240.0
-620.0
1240.0
844.0
219.0
-75.0
15.0
270.0
172.0
-114.0
-305.0
-369.0
-372.0
-376.0
-401.0
-412.0
-422.0
-374.0
-358.0
-297.0
-201.0
-256.0
-351.0
-741.0
1290.0
864.0
170.0
-95.0
19.0
-139.0
1534.0
1549.0
537.0
90.0
35.0
234.0
240.0
-97.0
-304.0
-370.0
-354.0
-281.0
-236.0
-275.0
-165.0
5.0
-141.0
-270.0
662.0
1094.0
403.0
63.0
47.0
248.0
275.0
-63.0
-305.0
-351.0
-323.0
-247.0
-217.0
-272.0
-256.0
-137.0
-68.0
-178.0
-259.0
2466.0
1693.0
524.0
13.0
-13.0
168.0
137.0
-191.0
-364.0
-419.0
-344.0
-248.0
-240.0
-260.0
-264.0
-218.0
-150.0
-313.0
-397.0
1456.0
1277.0
300.0
-172.0
-242.0
-75.0
-166.0
-458.0
-654.0
-687.0
-651.0
-562.0
-469.0
-423.0
-457.0
-428.0
-386.0
-419.0
-478.0
-880.0
674.0
271.0
-81.0
-144.0
64.0
275.0
142.0
-150.0
-242.0
-240.0
-194.0
-130.0
-132.0
-145.0
-109.0
-90.0
49.0
166.0
-7.0
-139.0
883.0
1313.0
517.0
332.0
414.0
463.0
132.0
-119.0
-216.0
-236.0
-218.0
-187.0
-230.0
-239.0
-199.0
-211.0
-85.0
82.0
-91.0
-200.0
156.0
867.0
398.0
198.0
258.0
509.0
554.0
247.0
-57.0
-184.0
-191.0
-135.0
-145.0
-237.0
-282.0
-298.0
-319.0
-332.0
-133.0
-218.0
-276.0
-433.0
604.0
252.0
20.0
-7.0
212.0
344.0
112.0
-198.0
-324.0
-320.0
-276.0
-233.0
-262.0
-293.0
-337.0
-327.0
-199.0
-328.0
-389.0
-489.0
407.0
14.0
-219.0
-211.0
22.0
175.0
-64.0
-305.0
-428.0
-459.0
-377.0
-286.0
-267.0
-284.0
-229.0
-214.0
-123.0
-82.0
-193.0
-424.0
2713.0
1548.0
515.0
57.0
55.0
281.0
216.0
-52.0
-230.0
-238.0
-219.0
-144.0
-173.0
-178.0
-156.0
-156.0
-100.0
-38.0
-60.0
-164.0
-585.0
425.0
194.0
121.0
339.0
619.0
550.0
181.0
-48.0
-87.0
-63.0
-15.0
-77.0
-92.0
-72.0
-88.0
-82.0
30.0
130.0
-29.0
-162.0
1133.0
1401.0
572.0
149.0
87.0
302.0
289.0
-84.0
-368.0
-471.0
-446.0
-355.0
-285.0
-286.0
-296.0
-271.0
-248.0
-164.0
-158.0
-245.0
-521.0
1985.0
1139.0
226.0
-182.0
-172.0
-22.0
-167.0
-458.0
-675.0
-681.0
-649.0
-556.0
-490.0
-514.0
-462.0
-423.0
-435.0
-338.0
-139.0
-262.0
-282.0
-371.0
744.0
352.0
120.0
133.0
419.0
572.0
333.0
42.0
-99.0
-118.0
-92.0
-47.0
-109.0
-131.0
-71.0
-63.0
-30.0
-7.0
79.0
138.0
16.0
-108.0
2252.0
1807.0
745.0
235.0
149.0
361.0
297.0
-74.0
-337.0
-393.0
-392.0
-300.0
-276.0
-282.0
10.0
176.0
-32.0
-201.0
-226.0
-265.0
-225.0
-248.0
-281.0
-292.0
-279.0
-166.0
-204.0
-130.0
-32.0
-96.0
-205.0
-469.0
1126.0
559.0
221.0
142.0
375.0
590.0
423.0
104.0
-80.0
-134.0
-152.0
-185.0
-185.0
-202.0
-208.0
-241.0
-217.0
-157.0
-35.0
-82.0
-177.0
-605.0
921.0
739.0
266.0
107.0
258.0
500.0
401.0
97.0
-98.0
-194.0
-241.0
-213.0
-270.0
-309.0
-363.0
-395.0
-322.0
-194.0
-342.0
-415.0
309.0
798.0
249.0
1.0
9.0
304.0
448.0
192.0
-12.0
-133.0
-124.0
-125.0
-145.0
-188.0
-207.0
-225.0
-225.0
-121.0
-18.0
-209.0
-322.0
717.0
1017.0
332.0
13.0
47.0
307.0
404.0
118.0
-131.0
-215.0
-207.0
-202.0
-223.0
-263.0
-262.0
-246.0
-254.0
-206.0
-78.0
-127.0
-250.0
1421.0
1431.0
526.0
91.0
43.0
273.0
291.0
18.0
-245.0
-336.0
-370.0
-344.0
-303.0
-352.0
-324.0
-317.0
-249.0
-168.0
-20.0
-89.0
-185.0
-467.0
796.0
564.0
306.0
190.0
419.0
682.0
532.0
227.0
21.0
-68.0
-86.0
-109.0
-132.0
-165.0
-190.0
-207.0
-144.0
-4.0
-193.0
-328.0
316.0
803.0
258.0
-32.0
-7.0
257.0
393.0
137.0
-143.0
-244.0
-314.0
-343.0
-319.0
-343.0
-372.0
-362.0
-326.0
-275.0
-172.0
-154.0
-215.0
-587.0
1662.0
1039.0
336.0
56.0
156.0
405.0
320.0
7.0
-188.0
-273.0
-300.0
-322.0
-313.0
-350.0
-382.0
-380.0
-377.0
-321.0
-142.0
-177.0
-296.0
-508.0
719.0
339.0
178.0
241.0
537.0
865.0
730.0
451.0
249.0
163.0
40.0
-53.0
-191.0
-324.0
-397.0
-402.0
-348.0
-381.0
-482.0
-869.0
989.0
613.0
19.0
-197.0
-90.0
159.0
103.0
-129.0
-277.0
-350.0
-340.0
-306.0
-326.0
-351.0
-390.0
-386.0
-280.0
-130.0
-173.0
-318.0
-714.0
828.0
436.0
74.0
-31.0
112.0
403.0
323.0
62.0
-90.0
-117.0
-95.0
-85.0
-119.0
-144.0
-168.0
-162.0
-149.0
12.0
127.0
-83.0
-224.0
387.0
947.0
353.0
93.0
62.0
341.0
463.0
160.0
-132.0
-264.0
-280.0
-249.0
-203.0
-225.0
-196.0
-190.0
-169.0
-178.0
-129.0
-24.0
-33.0
-132.0
-400.0
2445.0
1441.0
475.0
34.0
56.0
258.0
215.0
-77.0
-288.0
-352.0
-358.0
-384.0
-416.0
-453.0
-580.0
-496.0
-443.0
-330.0
-142.0
-299.0
-443.0
-456.0
425.0
2.0
-233.0
-227.0
22.0
206.0
-42.0
-189.0
-295.0
-327.0
-330.0
-347.0
-275.0
-233.0
-227.0
-237.0
-140.0
-56.0
-208.0
-280.0
169.0
935.0
423.0
122.0
127.0
265.0
393.0
144.0
-138.0
-237.0
-174.0
-63.0
-56.0
-57.0
-136.0
-128.0
-77.0
-31.0
92.0
108.0
43.0
-77.0
3024.0
1786.0
581.0
35.0
-22.0
120.0
146.0
-176.0
-408.0
-502.0
-537.0
-438.0
-280.0
-150.0
-109.0
-63.0
-28.0
108.0
213.0
-50.0
-193.0
869.0
1090.0
272.0
-73.0
-79.0
162.0
230.0
-33.0
-299.0
-357.0
-382.0
-368.0
-364.0
-341.0
-336.0
-322.0
-190.0
-206.0
-358.0
-577.0
2089.0
1187.0
339.0
16.0
95.0
387.0
307.0
56.0
-97.0
-113.0
-89.0
-54.0
-74.0
-88.0
-80.0
115.0
-90.0
-249.0
-210.0
550.0
89.0
-160.0
-188.0
181.0
118.0
-179.0
-272.0
-297.0
-250.0
-197.0
-159.0
-182.0
-105.0
49.0
-138.0
-229.0
1225.0
1191.0
381.0
-13.0
-29.0
158.0
243.0
29.0
-148.0
-242.0
-293.0
-259.0
-257.0
-263.0
-378.0
-341.0
-163.0
-353.0
-436.0
-287.0
460.0
0.0
-244.0
-247.0
-20.0
162.0
9.0
-160.0
-247.0
-259.0
-288.0
-284.0
-249.0
-231.0
-218.0
-138.0
-81.0
-236.0
-301.0
2253.0
1584.0
390.0
-203.0
-198.0
-17.0
-41.0
-292.0
-510.0
-607.0
-548.0
-438.0
-397.0
-313.0
-188.0
-62.0
338.0
194.0
261.0
750.0
1350.0
755.0
438.0
413.0
559.0
574.0
253.0
-61.0
-166.0
-86.0
-5.0
115.0
182.0
302.0
495.0
471.0
352.0
148.0
858.0
584.0
354.0
359.0
526.0
617.0
301.0
-37.0
-226.0
-313.0
-181.0
-184.0
-200.0
-44.0
-326.0
-468.0
-197.0
280.0
-76.0
-290.0
-268.0
6.0
134.0
-136.0
-336.0
-425.0
-451.0
-465.0
-471.0
-412.0
-233.0
-278.0
-369.0
-624.0
376.0
113.0
-48.0
8.0
231.0
361.0
197.0
-32.0
-99.0
-77.0
-54.0
-36.0
-27.0
67.0
107.0
-15.0
-361.0
2055.0
1310.0
501.0
153.0
176.0
412.0
339.0
69.0
-54.0
-91.0
-119.0
-128.0
-152.0
-209.0
-4.0
-76.0
-231.0
-663.0
749.0
378.0
53.0
18.0
244.0
444.0
281.0
2.0
-110.0
-99.0
-88.0
-76.0
-87.0
-189.0
-110.0
-19.0
-142.0
-292.0
2519.0
1675.0
520.0
21.0
11.0
175.0
88.0
-173.0
-314.0
-321.0
-363.0
-374.0
-378.0
-387.0
-363.0
-204.0
-278.0
-371.0
-686.0
477.0
163.0
-92.0
-111.0
173.0
100.0
-141.0
-291.0
-312.0
-288.0
-241.0
-210.0
-213.0
-231.0
-232.0
-2.0
-151.0
-278.0
-483.0
688.0
265.0
55.0
82.0
297.0
444.0
271.0
4.0
-66.0
-57.0
-16.0
-40.0
-88.0
-131.0
-153.0
-143.0
15.0
98.0
-87.0
-235.0
822.0
1131.0
352.0
8.0
48.0
266.0
328.0
40.0
-156.0
-185.0
-215.0
-190.0
-227.0
-248.0
-204.0
-194.0
-105.0
99.0
-92.0
-203.0
-351.0
733.0
366.0
177.0
144.0
394.0
521.0
301.0
0.0
-162.0
-140.0
-152.0
-155.0
-214.0
-206.0
-189.0
-123.0
70.0
-75.0
-164.0
-302.0
737.0
335.0
101.0
62.0
279.0
380.0
141.0
-121.0
-262.0
-282.0
-275.0
-254.0
-263.0
-270.0
-298.0
-217.0
-172.0
-289.0
-423.0
2244.0
1546.0
450.0
-31.0
-41.0
51.0
-184.0
-324.0
-362.0
-341.0
-293.0
-356.0
-378.0
-373.0
-326.0
-228.0
-241.0
-373.0
-727.0
1741.0
1030.0
251.0
-28.0
86.0
323.0
262.0
-3.0
-158.0
-195.0
-178.0
-132.0
-135.0
-166.0
-148.0
19.0
72.0
-114.0
-252.0
1115.0
1297.0
462.0
70.0
46.0
251.0
259.0
-34.0
-277.0
-369.0
-412.0
-366.0
-347.0
-339.0
-343.0
-252.0
-200.0
-305.0
-395.0
2117.0
1377.0
252.0
-226.0
-344.0
-185.0
-223.0
-477.0
-633.0
-634.0
-593.0
-535.0
-499.0
-460.0
-423.0
-279.0
-250.0
-331.0
-773.0
1323.0
873.0
213.0
-37.0
75.0
258.0
77.0
-205.0
-349.0
-348.0
-340.0
-279.0
-315.0
-319.0
-292.0
-111.0
-17.0
-144.0
-264.0
2435.0
1779.0
636.0
139.0
150.0
395.0
311.0
-4.0
-206.0
-188.0
181.0
118.0
-179.0
-272.0
-297.0
-250.0
-197.0
-159.0
-182.0
-105.0
49.0
-138.0
-229.0
1225.0
1191.0
381.0
-13.0
-29.0
158.0
243.0
29.0
-148.0
-242.0
-293.0
-259.0
-257.0
-263.0
-378.0
-341.0
-163.0
-353.0
-436.0
-287.0
460.0
0.0
-244.0
-247.0
-20.0
162.0
9.0
-160.0
-247.0
-259.0
-288.0
-284.0
-249.0
-231.0
-218.0
-138.0
-81.0
-236.0
-301.0
2253.0
1584.0
390.0
-203.0
-198.0
-17.0
-41.0
-292.0
-510.0
-607.0
-548.0
-438.0
-397.0
-313.0
-188.0
-62.0
338.0
194.0
261.0
750.0
1350.0
755.0
438.0
413.0
559.0
574.0
253.0
-61.0
-166.0
-86.0
-5.0
115.0
182.0
302.0
495.0
471.0
352.0
148.0
858.0
584.0
354.0
359.0
526.0
617.0
301.0
-37.0
-226.0
