-0.006801907897130619,-0.005941440080652233,0.021012253117990067,-0.003950192267071271,-0.008009446364289716,-0.0015616930814007532,0.004997644571264699,0.016876271140633548,0.008075907792579592,0.0254120942282249,0.027283447656133532,0.024098388879115508,0.02626520228274262,0.03379006562969887,0.020674060029298325,0.018129021360715782,0.015758737609052324,0.01876988531071731,0.016766083012017027,0.0305568138026615,0.028941546287228642,0.027528533875472744,0.0419258852694167,0.046133627004640354,0.034955548249184065,0.03440116589578343,0.044474856732074255,0.039175860212504396,0.04451312407195512,0.04488745564223297,0.05590539808235443,0.061967311721227505,0.07867923575360004,0.08523994807935933,0.08685279852957246,0.08351971767009438,0.11685014632656104,0.10883026722017082,0.12187249158912651,0.1143688252108607,0.11752456741695186,0.1261374942365505,0.1454067802069134,0.16492798998141098,0.18469794731045605,0.18910967210809643,0.17295724692958664,0.2090487047638963,0.2349653941114959,0.23509655581857747,0.26144316575549464,0.272387149131331,0.27311806152858703,0.29482906192137565,0.3010990338423703,0.33352028266101,0.34006573307307403,0.35192253122047545,0.34306519919627326,0.35507940933200244,0.37233819491301307,0.37401182076213674,0.3808766345350041,0.38770214850078355,0.4100599428073574,0.42191171456809196,0.42842306898946975,0.4295565086539284,0.45127735935591934,0.4311319169943316,0.44709103384899357,0.4783045382961859,0.4779150579296613,0.49788169706444363,0.5173472675236626,0.5466580501147932,0.6117607181053872,0.6917902738835011,0.8230895847537888,0.8547623087125532,0.8803546623853438,0.7489619145089963,0.4136947933564684,0.04610199114095731,-0.291490722773213,-0.484747878876957,-0.4869192258936578,-0.344826336676696,-0.16245545047318066,-0.022956075766350073,0.16737147645439096,0.3566012701936274,0.4251936227474301,0.4408428187624998,0.4608390307864799,0.4800583103672596,0.5141783771194605,0.5320656127769072,0.5285887935088973,0.5246190004840223,0.5254216927304913,0.5206567269850959,0.5103833190071069,0.4842560951412172,0.4631330882083545,0.4626689166834991,0.44650595272147287,0.43029418578723155,0.4348823658814386,0.39270020942080974,0.3818030642434391,0.3918274325733546,0.36559897003001746,0.36556421360157526,0.3449470179064194,0.3401852987894209,0.3669112750984738,0.3419365965110163,0.33810087011226225,0.32422213199500854,0.33672963759883406,0.32883513220510996,0.32656258036362373,0.32472834405567125,0.30774516631870324,0.317235090268639,0.3064017381825469,0.31166303520959154,0.31742544383552956,0.3236968474273568,0.33048354222484955,0.33779020598354714,0.35082085710674976,0.343571866653897,0.33684678916938865,0.3150405098799891,0.3197571534987058,0.31458437355392116,0.335922127704854,0.29534496711753455,0.31246548596622276,0.2884530929505313,0.27530443334132276,0.252200807227391,0.2347290896336653,0.21767092231915178,0.2218117387247673,0.1847199948892696,0.1791888574949872,0.15318673605295322,0.12229405398104563,0.09168848263251865,0.097753040283187,0.07285042545701804,0.03255873696032508,0.023661667740124584,0.014927851967672403,0.0011307708332444165,-0.002152196850256378,-0.01575062938208326,-0.034488935275430066,-0.027185061406340916,-0.009462615791254144,-0.038550568389548234,-0.026049184378893607,-0.013579893269756466,-0.016756684572728508,-0.035589278512125705,-0.03367885196892773,-0.0006281661700141504,-0.014453664964346654,-0.0023429336264211794,-0.005904031772939768,-0.009533872721721147,-0.008030795038509064,-0.001393224636610401,0.005180182430724912,-0.014313069795299446,0.0025413789386272132,0.0037374011870684593,-0.005520219482118028,-0.004423738991665296,-0.0033708472362858673,0.013246151471870443,0.00902534239642422,0.020378647486842608,0.02130602678022031,0.02221428987871661,0.012706167592470043,0.0031882519220566455,0.035273029730044765,0.015347152235478705,0.016228872387348877,0.02231948428586545,0.018020200886876732,0.0033351027452247738,-0.016530826619781086,3.433109395681271e-05,0.02703115476593269,-0.0031477214197883838,0.0031209865947079115,0.004235042198606285,0.005401130765403919,0.006624923427915323,0.01831405044424468,-0.006334814772309853,0.02110072932356223,0.022611907989479995,-0.0017952630385084233,0.010297035701765723,0.006884946782082171,0.013979457271117863,-0.02042337616925984,0.012903218255153113,0.015148229940428368,0.007123424272395569,0.009640490895734632,0.017506118510645603,0.0,0.0,0.0,0.0,0.0,0.0,0.0,0.0,0.0,0.0,0.0,0.0,0.0,0.0,0.0,0.0,0.0,0.0,0.0,0.0,0.0,0.0,0.0,0.0,0.0,0.0,0.0,0.0,0.0,0.0,0.0,0.0,0.0,0.0,0.0,0.0,0.0,0.0,0.0,0.0,0.0,0.0,0.0,0.0,0.0,0.0,0.0,0.0,0.0,0.0,0.0,0.0,0.0,0.0,0.0,0.0,0.0,0.0,0.0,0.0,0.0,0.0,0.0,0.0,0.0,0.0,0.0,0.0,0.0,0.0,0.0,0.0,0.0,0.0,0.0,0.0,0.0,0.0,0.0,0.0,0.0,0.0,N
0.4311319169943316,0.44709103384899357,0.4783045382961859,0.4779150579296613,0.49788169706444363,0.5173472675236626,0.5466580501147932,0.6117607181053872,0.6917902738835011,0.8230895847537888,0.8547623087125532,0.8803546623853438,0.7489619145089963,0.4136947933564684,0.04610199114095731,-0.291490722773213,-0.484747878876957,-0.4869192258936578,-0.344826336676696,-0.16245545047318066,-0.022956075766350073,0.16737147645439096,0.3566012701936274,0.4251936227474301,0.4408428187624998,0.4608390307864799,0.4800583103672596,0.5141783771194605,0.5320656127769072,0.5285887935088973,0.5246190004840223,0.5254216927304913,0.5206567269850959,0.5103833190071069,0.4842560951412172,0.4631330882083545,0.4626689166834991,0.44650595272147287,0.43029418578723155,0.4348823658814386,0.39270020942080974,0.3818030642434391,0.3918274325733546,0.36559897003001746,0.36556421360157526,0.3449470179064194,0.3401852987894209,0.3669112750984738,0.3419365965110163,0.33810087011226225,0.32422213199500854,0.33672963759883406,0.32883513220510996,0.32656258036362373,0.32472834405567125,0.30774516631870324,0.317235090268639,0.3064017381825469,0.31166303520959154,0.31742544383552956,0.3236968474273568,0.33048354222484955,0.33779020598354714,0.35082085710674976,0.343571866653897,0.33684678916938865,0.3150405098799891,0.3197571534987058,0.31458437355392116,0.335922127704854,0.29534496711753455,0.31246548596622276,0.2884530929505313,0.27530443334132276,0.252200807227391,0.2347290896336653,0.21767092231915178,0.2218117387247673,0.1847199948892696,0.1791888574949872,0.15318673605295322,0.12229405398104563,0.09168848263251865,0.097753040283187,0.07285042545701804,0.03255873696032508,0.023661667740124584,0.014927851967672403,0.0011307708332444165,-0.002152196850256378,-0.01575062938208326,-0.034488935275430066,-0.027185061406340916,-0.009462615791254144,-0.038550568389548234,-0.026049184378893607,-0.013579893269756466,-0.016756684572728508,-0.035589278512125705,-0.03367885196892773,-0.0006281661700141504,-0.014453664964346654,-0.0023429336264211794,-0.005904031772939768,-0.009533872721721147,-0.008030795038509064,-0.001393224636610401,0.005180182430724912,-0.014313069795299446,0.0025413789386272132,0.0037374011870684593,-0.005520219482118028,-0.004423738991665296,-0.0033708472362858673,0.013246151471870443,0.00902534239642422,0.020378647486842608,0.02130602678022031,0.02221428987871661,0.012706167592470043,0.0031882519220566455,0.035273029730044765,0.015347152235478705,0.016228872387348877,0.02231948428586545,0.018020200886876732,0.0033351027452247738,-0.016530826619781086,3.433109395681271e-05,0.02703115476593269,-0.0031477214197883838,0.0031209865947079115,0.004235042198606285,0.005401130765403919,0.006624923427915323,0.01831405044424468,-0.006334814772309853,0.02110072932356223,0.022611907989479995,-0.0017952630385084233,0.010297035701765723,0.006884946782082171,0.013979457271117863,-0.02042337616925984,0.012903218255153113,0.015148229940428368,0.007123424272395569,0.009640490895734632,0.017506118510645603,0.020325954549402423,0.018107545044629938,0.026461313595595386,0.04019362100195401,0.028105730429434494,0.03701360005773616,0.035718151555830545,0.06583402444129283,0.054553832200562806,0.053893692721279134,0.06906051353267409,0.06365298817174261,0.06888237472404428,0.10555762687925435,0.09046749260574033,0.0808270048514714,0.09224279970318007,0.1143161437852161,0.12624585637698724,0.12803415743906915,0.1352856148991708,0.1688051495796855,0.1505781376309697,0.17422188233819835,0.16692115600076352,0.15987972111807966,0.16349653332189457,0.17256676964893508,0.18188478965326155,0.20704806231697281,0.20124123041255892,0.21646676971616077,0.21110827461927645,0.21636216009615936,0.23221782718685938,0.22745763672779573,0.24887768444832728,0.25485604667661016,0.27138246520351045,0.28283746301588714,0.28400219231921664,0.30606334258996226,0.32819625263890845,0.34517771015654164,0.34138087572114173,0.3635891008080981,0.38056913400634573,0.392291864352146,0.4039272711015619,0.3946384067239756,0.4164002069690181,0.4171657730848523,0.4333030064316253,0.4491677918859013,0.4387118616782692,0.45389959818243386,0.4894822664926029,0.4986009176812192,0.5488160028497707,0.6192685979821378,0.73070497950596,0.8466574037856982,0.9150514944645004,0.8942106280294388,0.7268506265136981,0.4493007160758135,0.10308748168665924,-0.24425977285911243,-0.5096092800078428,0.0,0.0,0.0,0.0,0.0,0.0,0.0,0.0,0.0,0.0,0.0,0.0,0.0,0.0,0.0,0.0,0.0,0.0,0.0,0.0,0.0,0.0,0.0,0.0,0.0,0.0,0.0,0.0,0.0,0.0,0.0,0.0,0.0,0.0,0.0,0.0,0.0,0.0,0.0,0.0,0.0,0.0,0.0,0.0,0.0,0.0,0.0,0.0,0.0,0.0,0.0,0.0,0.0,0.0,0.0,0.0,0.0,0.0,0.0,0.0,0.0,0.0,0.0,0.0,0.0,0.0,0.0,0.0,0.0,0.0,0.0,0.0,0.0,0.0,0.0,0.0,0.0,0.0,0.0,0.0,0.0,0.0,N
0.8942106280294388,0.7268506265136981,0.4493007160758135,0.10308748168665924,-0.24425977285911243,-0.5096092800078428,-0.5213891854144321,-0.3264209306019922,-0.12750621708517051,0.0598200139667732,0.2720448651299201,0.3948263409816015,0.40743896105331373,0.4295820835125842,0.4613301888262853,0.4663486580925698,0.49151645480619377,0.5056953147365465,0.5245534536599892,0.5013446420906482,0.5037418752157595,0.4797928009934989,0.4711604238511567,0.446691446335414,0.46364709730385184,0.4284575732581396,0.4087815374940834,0.40986359423396224,0.4057403453995375,0.391250315856486,0.3664309948342293,0.36252387370344,0.3639596740905708,0.3603682980681779,0.3465788209759185,0.3486244747047898,0.34052682759696695,0.3275116632650817,0.33560703494951477,0.32842744154667,0.33199762070343686,0.3099287511438368,0.32464921984774997,0.3189630236454516,0.3136874321031933,0.314035140775693,0.29921231145314997,0.3160364456011915,0.3281076595763404,0.3146274687493066,0.3276096508691061,0.30464456310703353,0.3237477373538654,0.30690339031341163,0.3217219257840027,0.3213903656066402,0.2955010744709987,0.29085573383511343,0.2918426308659868,0.288049591517424,0.2430580172027172,0.2400707095930506,0.21666144923631453,0.18321671924345534,0.18652887087647518,0.15896749187340245,0.14732308476828884,0.10476748207923586,0.0832906479528838,0.0776710989782738,0.03587799770196193,0.030703951886330513,0.025720535528867456,0.00010214830371652866,0.0006359711334760811,-0.009106704617544426,-0.0031426739792308656,-0.012698790564719063,-0.001388699581984793,-0.026442715032390585,-0.025468178484989498,-0.029687794629397184,-0.007909931892612741,-0.022558013539636428,-0.021632863951560975,-0.015545081283853002,-0.0199042016353755,-0.02951431206038275,-0.018373636452086815,-0.012487525498771176,-0.006653626000426068,-0.01647237070400623,-0.00033263654180752244,-0.010239610749399745,0.0214243915439681,0.0062482360079168745,0.01185047315426107,0.007030754009672703,0.0021966148722317685,0.01295654995171989,-0.017894860441759527,-0.01753827414406013,0.008832455038630798,0.009216201846924243,0.009626692841231676,0.01007264317359677,0.020964705993542446,0.011105539563602076,0.011709614108439683,0.0123833998012478,0.007934301332620172,0.013973633738038341,0.02530870011959044,0.01594276144930904,0.006687889744971606,0.002753098114133213,0.024950345421315398,0.0004737015870583648,0.022948889875269947,0.03517283228267047,0.011148294454361087,0.01849574134977237,0.02601671394290011,0.018115639925448505,0.0312067475602692,0.03409126468088194,0.047580193741785785,0.040474436086439344,0.03878557887752127,0.05292202770911472,0.056885042789106485,0.04547959197713165,0.0707212824278002,0.0754046395228563,0.08033873101970765,0.06992529619426237,0.10137957554537742,0.10189163330863607,0.1130728742621214,0.12452426307103294,0.12584619903619879,0.13264342416449038,0.13971607896989696,0.1626676130111739,0.17029183967743625,0.1469847382161491,0.14995533933218314,0.1844020081520007,0.16710547791234848,0.17607634486955542,0.18530450844312657,0.17397998073631435,0.19930674331190457,0.19886506732692996,0.21945508177961265,0.22986102536076244,0.21967001174766707,0.23047793596720445,0.23106569177958977,0.2422229512100756,0.2535322725626251,0.28578096141927567,0.28174015971862626,0.2881994418039027,0.3155400218592304,0.3273327354822802,0.3235537920289153,0.356187694846039,0.3471925028748014,0.3537503138201426,0.38103155876977135,0.402998941666997,0.39881425436280654,0.4100491904991392,0.4210625259264733,0.4422159515766935,0.4370601154798091,0.47316331589550537,0.4828658460806259,0.4869225155884534,0.521688698839455,0.5923113772486901,0.6883319445913079,0.8044898261510437,0.8939130610281351,0.9305296381355761,0.8258511600353947,0.5954044379508622,0.2391091746530348,-0.13389704973431515,-0.4352818228951758,-0.5506950469664517,-0.4177552029665895,-0.20287215076532902,0.005598832493947526,0.202537631569728,0.356819137898979,0.42171425103409405,0.4337079754793243,0.460489165560496,0.4553226596231798,0.49629482713843964,0.5054599689998902,0.5088897659364444,0.5118493991152832,0.5144005121892863,0.4905972242369791,0.4821039921854587,0.44736693092815305,0.46445258534437894,0.44499348538370337,0.441046651500503,0.426651983199652,0.4278571054074836,0.4134965860702269,0.3940107983723571,0.39024003414636244,0.3814146706469658,0.0,0.0,0.0,0.0,0.0,0.0,0.0,0.0,0.0,0.0,0.0,0.0,0.0,0.0,0.0,0.0,0.0,0.0,0.0,0.0,0.0,0.0,0.0,0.0,0.0,0.0,0.0,0.0,0.0,0.0,0.0,0.0,0.0,0.0,0.0,0.0,0.0,0.0,0.0,0.0,0.0,0.0,0.0,0.0,0.0,0.0,0.0,0.0,0.0,0.0,0.0,0.0,0.0,0.0,0.0,0.0,0.0,0.0,0.0,0.0,0.0,0.0,0.0,0.0,0.0,0.0,0.0,0.0,0.0,0.0,0.0,0.0,0.0,0.0,0.0,0.0,0.0,0.0,0.0,0.0,0.0,0.0,N
0.8258511600353947,0.5954044379508622,0.2391091746530348,-0.13389704973431515,-0.4352818228951758,-0.5506950469664517,-0.4177552029665895,-0.20287215076532902,0.005598832493947526,0.202537631569728,0.356819137898979,0.42171425103409405,0.4337079754793243,0.460489165560496,0.4553226596231798,0.49629482713843964,0.5054599689998902,0.5088897659364444,0.5118493991152832,0.5144005121892863,0.4905972242369791,0.4821039921854587,0.44736693092815305,0.46445258534437894,0.44499348538370337,0.441046651500503,0.426651983199652,0.4278571054074836,0.4134965860702269,0.3940107983723571,0.39024003414636244,0.3814146706469658,0.38317008538702113,0.35912981815131206,0.3405284027253276,0.353397584179994,0.3405515158966769,0.33321946638183975,0.3314230429915362,0.3299811939190163,0.32371121024231536,0.3126297261989705,0.33315870892876975,0.31769870111343596,0.31827142014699655,0.33488706427525633,0.33114728892861744,0.3590689572151797,0.3406424498698054,0.3590871373121939,0.3363899017201722,0.3141586703417298,0.33399968847534783,0.3074928039893629,0.3074469797832924,0.30264977998319925,0.2826912037421349,0.27876768148802406,0.25966231340711243,0.2721717018293137,0.2486693033325971,0.2359490610768001,0.223592751155055,0.2167839491116036,0.17909716800315853,0.15212073294876272,0.13063313599237342,0.11981409470522678,0.09883770816552037,0.052078469446450074,0.015920308087388008,0.02154590016988732,0.022122946191884943,0.007225990380118982,-0.017967554456988426,-0.022275346313608068,-0.016121280790011197,-0.035932102655927646,-0.0349171361118649,-0.018292222463295284,-0.027676837346062435,-0.02667382265280019,-0.015290342434896314,-0.014334998992473591,-0.01340898365029317,-0.007313118973683675,-0.0168519190018855,-0.0004172862421760421,-0.010017397448018285,-0.004042514552191473,0.0019071284450939054,-0.012969311482961937,-0.012261763178612195,0.009235118207650597,-0.005684074392824686,-0.005003939849374283,0.0008795461700723476,-0.008831102759071962,0.0022775462610635493,0.013408841362922948,0.01416810542216242,0.009763573466646495,0.015805395814656033,0.006295729442830885,0.02284956215196405,0.0030619889547671385,0.014552817252933736,0.026122970894250187,0.011774294027888328,0.02872438923571285,0.014567959722269038,-0.004683552816824961,0.0021822135397221287,0.009167141930530401,0.011077076845039094,-0.007684169193965607,0.004900070802050507,0.028033290901091114,0.030516974539862515,0.03316239564333359,0.03077571022424197,0.049368866876177364,0.0369387643321027,0.04550191579008074,0.054260746837748626,0.042417455553164556,0.05158588549631306,0.050565765223296956,0.060166496015508684,0.05958928180174087,0.04883899794019291,0.08513114556284399,0.07485218270800392,0.08041793372240613,0.09663093884073812,0.09748936394613202,0.11420181548721456,0.13636846794201898,0.14318693864855772,0.1450601214953337,0.14718920137068478,0.15997563092781308,0.15221218235014014,0.15510274472859328,0.1790464738313013,0.16162784699606525,0.16525427989963815,0.17951847716293398,0.17840933793905212,0.2035277736398382,0.19765493538648563,0.21799280410169725,0.2125215180585929,0.22803899381023432,0.2489301685164325,0.2543778460765575,0.2703725233283823,0.2916974668276188,0.29233061900547586,0.3086603805914883,0.3094607808109638,0.31551423624202396,0.3163956577660562,0.3276833440206249,0.34935103246859034,0.35536585682873434,0.3665021416539216,0.39833144160226097,0.4040115620354924,0.4043112265092799,0.41999713852147696,0.43542702855550236,0.44015752017455434,0.46535100433046134,0.4797557544017907,0.48332367540491794,0.5020092389048052,0.5669654929135091,0.6625340378076462,0.7938576113982552,0.8724577636476947,0.9294749157361155,0.845216327656171,0.5988034802698975,0.26297150353618404,-0.1051504457998965,-0.4172285674579592,-0.5329091412105507,-0.431421650622158,-0.22196977952564606,-0.013716226697070361,0.24022718818071953,0.36830823971659915,0.40701322400237083,0.45003751930882757,0.45064765607290563,0.4661277758533789,0.4965488432505523,0.5159745268984927,0.5192699849489376,0.522101767942877,0.4985258855476019,0.5006106329036394,0.4712009581471826,0.4675611538016378,0.4637372673380731,0.4285720153563156,0.4349256570792901,0.4256314822330515,0.41113351576650176,0.3966726614056598,0.37708578107802243,0.3836147048060809,0.364283488135874,0.36073214371840717,0.35218694600158423,0.34387733109994945,0.3410309741933165,0.0,0.0,0.0,0.0,0.0,0.0,0.0,0.0,0.0,0.0,0.0,0.0,0.0,0.0,0.0,0.0,0.0,0.0,0.0,0.0,0.0,0.0,0.0,0.0,0.0,0.0,0.0,0.0,0.0,0.0,0.0,0.0,0.0,0.0,0.0,0.0,0.0,0.0,0.0,0.0,0.0,0.0,0.0,0.0,0.0,0.0,0.0,0.0,0.0,0.0,0.0,0.0,0.0,0.0,0.0,0.0,0.0,0.0,0.0,0.0,0.0,0.0,0.0,0.0,0.0,0.0,0.0,0.0,0.0,0.0,0.0,0.0,0.0,0.0,0.0,0.0,0.0,0.0,0.0,0.0,0.0,0.0,N
0.845216327656171,0.5988034802698975,0.26297150353618404,-0.1051504457998965,-0.4172285674579592,-0.5329091412105507,-0.431421650622158,-0.22196977952564606,-0.013716226697070361,0.24022718818071953,0.36830823971659915,0.40701322400237083,0.45003751930882757,0.45064765607290563,0.4661277758533789,0.4965488432505523,0.5159745268984927,0.5192699849489376,0.522101767942877,0.4985258855476019,0.5006106329036394,0.4712009581471826,0.4675611538016378,0.4637372673380731,0.4285720153563156,0.4349256570792901,0.4256314822330515,0.41113351576650176,0.3966726614056598,0.37708578107802243,0.3836147048060809,0.364283488135874,0.36073214371840717,0.35218694600158423,0.34387733109994945,0.3410309741933165,0.3384718449439004,0.33622320092451674,0.32390462121781277,0.32233996218326155,0.33154748839534304,0.2995339220740093,0.31993213353497835,0.3355446965256781,0.3359815227221142,0.31605183914228147,0.31737213048580626,0.33994935666934584,0.3525829323560745,0.3344725585933268,0.33763007643037946,0.3204477793752254,0.32453216183302275,0.31867421305342875,0.30286925801812203,0.29271400753413057,0.29860266499672106,0.27371704651093326,0.27005634341244444,0.2564024894041521,0.23274202630006693,0.20946220003269583,0.1969490928244145,0.1847837673247117,0.17814928063402724,0.1354188283447189,0.11378358354670381,0.09241914625368187,0.07650551288879355,0.04521725245208956,0.04014046820171686,0.019645148262012586,0.01491498297157681,-0.005278352342392233,-0.009751340141950626,-0.01932989210039916,-0.023633035120894718,-0.02267994589778814,-0.026889542118037176,-0.03107560767732426,-0.019647385833887185,-0.034222091383423164,-0.02279719744148438,-0.011381822007017315,0.0052230410476188,-0.009390465400618296,-0.00841433554242875,-0.007451588259960204,-0.0013004708115969725,-0.01596448094766893,-0.004633089957174931,-0.01411212768191453,-0.013192087838065792,0.003332911182964485,0.009464045845283821,0.010408434341274087,0.01137314754308793,0.007163218149762887,0.018588587321957336,-0.011555735577836708,0.020755950899559148,0.011510723379334812,0.02312733280202042,0.008803618179623315,0.041360143393336164,0.016783664080222648,0.007894493302667569,-0.0009040219082836797,0.005997384398778057,0.007801112599041243,0.014915491473602622,0.006542852405165695,0.024297368984637132,0.010974313844699086,0.013388699440622995,0.01594356657045057,0.01864486828514144,0.02149847791782235,0.019309182511806904,0.012082654683490847,0.02582943583071595,0.02934908321786177,0.048651948682317515,0.04733632053039578,0.035809181397911165,0.04008025643549072,0.0653551194859677,0.033623254943345796,0.04370758465206943,0.0488030565071004,0.05931532358566609,0.05964482962235275,0.06019668710248724,0.08697868948366347,0.09838541938890757,0.11522294133345883,0.11668888338168582,0.13399022813796752,0.161926423303964,0.14328631597547753,0.1352797910565714,0.1431060863650119,0.15636078412319493,0.13343279263025415,0.1471320858217803,0.15584612302902331,0.1595695724465776,0.17910029530030924,0.18322542431350503,0.1875401342972205,0.18163371860803104,0.19670247742561417,0.20673087904086562,0.20650638049418055,0.23762434276080427,0.2376592329746455,0.2430031983918616,0.25884123957961475,0.269553169827188,0.2803214804795535,0.2859253289848907,0.29674545038039174,0.3231611500766037,0.333942305233048,0.3342641286617976,0.3553051287907577,0.35542823981058624,0.3866124945647878,0.3864133013152903,0.39640399657098274,0.40614605411953064,0.4156009518595594,0.4143261508284808,0.43348497858272067,0.4366257811968183,0.48611360556438243,0.5402914541406817,0.640715787860504,0.7665284494157056,0.8916670848537325,0.9328545838595933,0.8588193084375907,0.6330839632536357,0.31798582712105955,-0.07094992415586848,-0.3933758711306936,-0.5245408333105817,-0.42287214854248817,-0.21838009445477047,-0.004627824363372053,0.22886211583417085,0.3417388209849573,0.40168996424437536,0.4243915794189908,0.4411206710619633,0.4519461633757245,0.4465327888284078,0.47175394387751846,0.4704609310071831,0.47912056911029993,0.4665844149239795,0.44851056717173204,0.44055479165499334,0.43756663936047635,0.4135894862390485,0.4050764371940411,0.39646859852663696,0.3670040580903613,0.36353183124687855,0.35488420235548707,0.3514995826401026,0.363814608903629,0.33985224366539607,0.3316534916811236,0.33924772779059575,0.31585373097689284,0.30830645916294686,0.32703233954473315,0.0,0.0,0.0,0.0,0.0,0.0,0.0,0.0,0.0,0.0,0.0,0.0,0.0,0.0,0.0,0.0,0.0,0.0,0.0,0.0,0.0,0.0,0.0,0.0,0.0,0.0,0.0,0.0,0.0,0.0,0.0,0.0,0.0,0.0,0.0,0.0,0.0,0.0,0.0,0.0,0.0,0.0,0.0,0.0,0.0,0.0,0.0,0.0,0.0,0.0,0.0,0.0,0.0,0.0,0.0,0.0,0.0,0.0,0.0,0.0,0.0,0.0,0.0,0.0,0.0,0.0,0.0,0.0,0.0,0.0,0.0,0.0,0.0,0.0,0.0,0.0,0.0,0.0,0.0,0.0,0.0,0.0,N
0.8588193084375907,0.6330839632536357,0.31798582712105955,-0.07094992415586848,-0.3933758711306936,-0.5245408333105817,-0.42287214854248817,-0.21838009445477047,-0.004627824363372053,0.22886211583417085,0.3417388209849573,0.40168996424437536,0.4243915794189908,0.4411206710619633,0.4519461633757245,0.4465327888284078,0.47175394387751846,0.4704609310071831,0.47912056911029993,0.4665844149239795,0.44851056717173204,0.44055479165499334,0.43756663936047635,0.4135894862390485,0.4050764371940411,0.39646859852663696,0.3670040580903613,0.36353183124687855,0.35488420235548707,0.3514995826401026,0.363814608903629,0.33985224366539607,0.3316534916811236,0.33924772779059575,0.31585373097689284,0.30830645916294686,0.32703233954473315,0.3044413618038555,0.30816770016248424,0.3070251383920185,0.3010318778181867,0.2902045846410253,0.3057643782940119,0.30091603120562516,0.28607371070264115,0.3080570309899818,0.330468286856468,0.31170723974029435,0.3193928531131265,0.35873061512477117,0.36211051404416533,0.3659406057966045,0.375421177361984,0.3593437345588678,0.32810585062370723,0.30770628127069555,0.2981371763574145,0.26298219575173765,0.24903939768320377,0.24589460175018438,0.2171274170267038,0.22513509135774024,0.1918869741834504,0.18497909510174226,0.15238368376980352,0.12008694093142211,0.10887331234649548,0.07191373348908432,0.06119746371065002,0.050698506811910835,0.029993539802681407,0.025065937658544268,0.009888994732665751,-0.00515716849317387,-0.03049645324405503,-0.008939360962919096,-0.02892130176285748,-0.0020430722916319993,-0.03754045816126208,-0.015805356011144234,-0.014863832625074534,-0.024323571165009075,-0.02338885659786105,-0.006864642347698448,-0.031965576682872934,0.005325129298909945,-0.004213414454611114,-0.008571339591720826,0.002653677989895616,0.003457825211512225,-0.0009567658811566844,-0.0001869874660511169,0.005768373040704163,0.006508559855850221,0.007235767550678079,0.01835315121915117,0.0034548921871498228,0.009350969062345614,0.010037440261345263,0.021118261969683878,0.021790388727393313,0.027657620941497544,0.01271570554330323,0.034176140223559685,0.029627518588639212,0.04067812467364717,0.015318219197605239,0.03156268612570447,0.03220051312977548,0.03283443298482223,0.017861059070452746,0.013284785117883838,0.013903957160206716,0.009315861741115278,0.020323674277347898,0.0053186068206737165,-0.004494327278905568,0.011687872604634221,0.01745771033821994,0.012814582807717408,-0.0022422003895592366,0.003492564663620374,0.004013371173334808,0.004520653275669559,0.005013831974382539,0.0158942918009087,0.0059554476937494225,-0.003999434225335787,0.001631889322702357,-0.00835689602608082,-0.0027601960094160963,0.00802043301631454,0.013583696913350018,-0.001672731623707543,0.009060668966919946,-0.0010242960219759476,0.00448002244659886,0.009971440063043442,-0.00015224988235535718,0.010516626698206088,0.005571855439666292,0.021421072310434216,0.04766294783039623,0.006283135562944932,0.0013018080482436137,0.011915272839456714,-0.003484141281178406,-0.0032882760602412275,0.007302420159865097,0.0022838391610762944,0.02326474606435952,0.002633040196580222,0.013203317328609687,0.013368312625740614,0.013530625891396147,0.003288817825549468,-0.0017536531975971491,0.01400665475206944,0.019364412612470773,0.003918193550141446,0.014477397629741817,0.009434523211945428,0.030397885317985013,0.009754897421571367,0.004716654578309702,0.015283279349129333,-0.00015307381208699353,0.015618541376109199,0.010588231362272637,0.000358934353383395,0.01093552174620815,0.005910946357181294,-0.0043129560856261205,0.0010676067220685907,0.016851871488017693,0.01703509732005301,0.017220403590422602,0.0070058591685293655,0.02799937747647536,0.012587982532160886,0.012781398862448183,0.018177371268626313,0.023574573710461736,0.0029676169989777163,0.01356688311987634,-0.007040101285074645,0.00875894922826966,0.008954148407826915,0.014349469123372564,0.01974387414658147,0.014735261436311178,0.004524409428463604,0.004714009013576925,0.0049017631327836104,0.005087337288114484,0.015672358603728124,0.005450484243322986,0.005627209794465027,0.01100105213399701,0.005968513871769311,0.000931007939730175,0.011490910492730206,0.00644165544133491,-0.003815436234668987,-0.008879075763771968,-0.008749598038965646,-0.008627487506515779,0.0018905817955407087,0.007203790113121463,-0.008288691760764851,0.0022241877336003787,-0.002862614531366027,0.0024587570469463095,0.007789478561226276,0.0027307138103775264,0.008089546038741159,0.018668079509730675,0.008464405777142537,0.0,0.0,0.0,0.0,0.0,0.0,0.0,0.0,0.0,0.0,0.0,0.0,0.0,0.0,0.0,0.0,0.0,0.0,0.0,0.0,0.0,0.0,0.0,0.0,0.0,0.0,0.0,0.0,0.0,0.0,0.0,0.0,0.0,0.0,0.0,0.0,0.0,0.0,0.0,0.0,0.0,0.0,0.0,0.0,0.0,0.0,0.0,0.0,0.0,0.0,0.0,0.0,0.0,0.0,0.0,0.0,0.0,0.0,0.0,0.0,0.0,0.0,0.0,0.0,0.0,0.0,0.0,0.0,0.0,0.0,0.0,0.0,0.0,0.0,0.0,0.0,0.0,0.0,0.0,0.0,0.0,0.0,N
0.8164097876681532,0.6168022806119987,0.2965582430481366,-0.06638930908926599,-0.36810387732989863,-0.504642656219087,-0.4344397872194711,-0.261509276574557,-0.08982385874806578,0.07548744342151922,0.2709120848860696,0.39251033039250327,0.41955697917486084,0.4301437361594934,0.4555512708986103,0.4854501577019667,0.4939057139265478,0.4861867880713804,0.5143686966961668,0.51090148492082,0.5018505012002596,0.4664696018927355,0.46202503008606693,0.4625648074725158,0.4525366317501372,0.42678787392389184,0.4009676145774686,0.4063257795516017,0.3856934077359332,0.37551738156969816,0.3602327243703759,0.35547854026136794,0.3300831946132085,0.34129015751674924,0.3319194012064913,0.3384070666446391,0.3243737322797867,0.32625218744179924,0.3180616828062196,0.33623175457331406,0.31317048732550073,0.3009071249922742,0.3098614011269184,0.30364260715784736,0.3030694089266582,0.313355974865497,0.30850899966663486,0.2989405627007708,0.3158651730554921,0.3384859144608556,0.3252003190591658,0.3124191225452308,0.341752427677735,0.3351859346139007,0.3343264752546613,0.32876927491655983,0.3185098734147067,0.2983411736523659,0.2994614374417362,0.2802535319725446,0.28751570924034947,0.290029923990974,0.2773806656535821,0.25475395270413254,0.2377364028461996,0.22110938775170697,0.1840501112141492,0.18374956746215748,0.1577749899679578,0.12690858250348622,0.10673076690025715,0.07641437898857073,0.05673966546866616,0.06848649096888774,0.0440175543062334,0.014514080109208717,0.0007550867876043609,0.0027155479189236225,-0.00043353895665093286,-0.019119203745732883,-0.011758504514017857,-0.025183565115864694,-0.017808510234684327,-0.0364619542282208,-0.029151951401783366,-0.027098981222577,-0.014711816133178105,-0.028406584827664078,-0.016181136264560584,-0.02484948902079714,0.0027957368440760283,-0.02166352386124221,-0.02021357221164249,-0.0032555333602677003,0.008409401698155967,0.004382337375514951,0.00026930136404581964,0.0012743133133548228,-0.018604566866288884,-0.0021533965886353186,0.019426652053398698,-0.0006683676568428286,-0.010423631325313683,-0.0046331886522856264,0.011507914776002024,-0.00880287099754176,0.022857666232682577,0.007677824588037785,0.023679552127593595,0.013658938819032355,0.034833803672653374,0.01959806383274085,0.01996830278040994,0.02554908922079611,0.03114588508299268,0.010760052288759994,0.02160868607798037,0.006486980449897073,-0.00859408959212966,-0.002824574545113546,0.02380231927055611,0.014082730148882963,0.020033531747180235,0.02605861745797815,0.026963766637091657,0.017554628347248375,0.029043668290644736,0.014628368414259787,0.026324933690693608,0.017330627706741732,0.024058471472078603,0.02050948255757962,0.027493495831008186,0.029413292154412955,0.03667648024972198,0.012881584183157133,0.02044581288250154,0.028168435689126622,0.036054578108169644,0.002501280278815756,0.041935194031510865,0.029537277678600822,0.04332700940985799,0.03649988615734532,0.04546707726562605,0.05462963892511555,0.04838839999084282,0.06835483988983108,0.06252232092861276,0.07250173881801164,0.07229076680611457,0.07229366709061633,0.0881153334808493,0.10935533299045189,0.11521080592545166,0.11088331114256976,0.10677482450996938,0.1340907397411449,0.13041804149697728,0.137362905294083,0.14452092390415378,0.13628601021888329,0.13345830598364747,0.14123429231735604,0.14920680385097373,0.1521689621094753,0.1657171148457032,0.17944188364033056,0.18293306148845634,0.19698550256859157,0.1955842088046943,0.19952213478245504,0.19838529877368996,0.18175872143954133,0.2172413274967331,0.20599935477328718,0.2364337052475695,0.24611545200249232,0.2506293819345174,0.25515706523190296,0.25447683280505384,0.279772691237351,0.29461446487687876,0.3093795167975105,0.30843877167343664,0.3281715379359804,0.33734267197147466,0.3463233338323359,0.3550810107266772,0.3635814582459428,0.387391635772938,0.3796647679975164,0.38717001782984334,0.3994637261360553,0.4269042701940861,0.4902500160941823,0.6102571954052395,0.7140617132675817,0.8068113195176315,0.8052333115702265,0.6884628695692662,0.4720380989503948,0.11948373218019105,-0.2548490595665815,-0.5314087094683487,-0.4397906411441981,-0.22443810786751653,-0.020531728425876198,0.18759799891207818,0.29079869282058135,0.33074583288255344,0.33871145855650653,0.3823729070300903,0.3941800022313973,0.4210025036643623,0.40568833862347514,0.4315101421584432,0.4205077358476576,0.0,0.0,0.0,0.0,0.0,0.0,0.0,0.0,0.0,0.0,0.0,0.0,0.0,0.0,0.0,0.0,0.0,0.0,0.0,0.0,0.0,0.0,0.0,0.0,0.0,0.0,0.0,0.0,0.0,0.0,0.0,0.0,0.0,0.0,0.0,0.0,0.0,0.0,0.0,0.0,0.0,0.0,0.0,0.0,0.0,0.0,0.0,0.0,0.0,0.0,0.0,0.0,0.0,0.0,0.0,0.0,0.0,0.0,0.0,0.0,0.0,0.0,0.0,0.0,0.0,0.0,0.0,0.0,0.0,0.0,0.0,0.0,0.0,0.0,0.0,0.0,0.0,0.0,0.0,0.0,0.0,0.0,N
0.8052333115702265,0.6884628695692662,0.4720380989503948,0.11948373218019105,-0.2548490595665815,-0.5314087094683487,-0.4397906411441981,-0.22443810786751653,-0.020531728425876198,0.18759799891207818,0.29079869282058135,0.33074583288255344,0.33871145855650653,0.3823729070300903,0.3941800022313973,0.4210025036643623,0.40568833862347514,0.4315101421584432,0.4205077358476576,0.43514559648653517,0.413062264760492,0.3907129738709241,0.40975188477337515,0.3870073712871987,0.3641295920436449,0.3619627983752205,0.35974147644269866,0.357502274854747,0.3240740851198207,0.3323038725444348,0.2782032178386402,0.3022287142702957,0.3159918692104153,0.2935145956721024,0.2816311296257182,0.29076728801034335,0.27413655588922164,0.27856883966764767,0.2884807582824758,0.2674835655644755,0.2884079273155305,0.2888573522174324,0.30005178209082684,0.2907977976839379,0.2767094170753246,0.2890021835509727,0.2912773469986501,0.2835416637535092,0.2918053990913255,0.3004694560557824,0.2887322855980958,0.30340374617333365,0.2976743773966454,0.2871451186501099,0.2822144278784473,0.28807833423531287,0.27872549740939223,0.2541481020250582,0.245542897472027,0.2424974178757309,0.23979896271258652,0.21663063977550592,0.20418428851730472,0.17643974151741082,0.14898375495758323,0.12700021668993,0.10527028351684095,0.08377547030509432,0.07809974476646576,0.051816725080662394,0.0257105626488562,0.0257661428540656,0.025958291871778637,0.005462700112240915,-0.020138120347459515,-0.00925671941637651,-0.019122602126093544,-0.023748505072302178,-0.012748327399907148,-0.012140663604133203,-0.016736938696271707,-0.031749410455515215,-0.02078080212810635,-0.03064670981384214,-0.024944866388769936,-0.029682010077165012,-0.008450592555335116,-0.00805613475617805,-0.012891438020638388,0.0030534477740845303,-0.007024205479200615,-0.0015102590419049566,-0.0012018236615796343,0.004310091781663439,0.015032606450016757,0.0049678526278553745,0.020931790353126065,0.01612247964602169,0.0009487995879721559,0.006623520909895984,0.027952458140411814,-0.0026705240951267737,0.01358007716143783,0.014299233538429254,0.020297737811332702,0.010778366735691996,0.016953726233079044,0.018026437678514987,0.024404996071220042,0.03089482708181091,0.032301234355923955,0.013027380934116714,0.019888185136435428,0.03208559029488946,0.018419454169619064,0.02570437007488869,0.02273994324561629,0.030335581049586544,0.012089653434679107,0.025218253849359166,0.017716560918918833,0.02079551622492832,0.034460014373323015,0.022307894534155197,0.02075072649400923,0.04539599623810994,0.059841155343332626,0.03288442147204307,0.06854953278309475,0.04721736119795034,0.046906172378333486,0.0728200929825579,0.08335407754883,0.10451562636602348,0.094698913101492,0.10071447095747652,0.10696044285599186,0.11863844040858496,0.14094954042458846,0.13228528893188746,0.12905142319274066,0.13644706065013174,0.14406769429351318,0.14150813487703434,0.13916644507825976,0.16304295923049475,0.15072043372180013,0.15940365023128988,0.17868372698477708,0.17734701292793678,0.17618889424252604,0.1908028773097658,0.2003746361081037,0.21009385592895932,0.2043452479286849,0.21432141038359823,0.22440498225453215,0.2501834892880978,0.2448314184203344,0.26034087391379734,0.27068783989187406,0.28105295716641276,0.29661551311006223,0.3017494175687984,0.33803802103122055,0.3326413177984623,0.3323404524874014,0.34750795505002463,0.35210774227775415,0.35650894488053875,0.38148091916055904,0.3905803151550824,0.3993718061514974,0.41301612640467356,0.42106903411403407,0.44429018079120064,0.4670301611443217,0.567255223609133,0.6616984964409411,0.7763111259938402,0.8382220818854796,0.8161643967016525,0.6164549951320818,0.3222404852705447,-0.05614950998076071,-0.3991661245471573,-0.5508482066922173,-0.36039767696315295,-0.15545548735093723,0.05883321799201377,0.23573011866080926,0.33369759314993974,0.36320677195801937,0.3815360546849419,0.39395209424202365,0.4109206289257794,0.4377044342067807,0.4327552933632092,0.43773869019862266,0.4319060279544511,0.43091347263697555,0.4400130445913935,0.4176456720062944,0.3898629928561761,0.39831753608359194,0.37543902694122483,0.3784790326653984,0.36586837505333875,0.3480459141618259,0.340649673771236,0.3229089859740725,0.3208604172037154,0.31893097482484084,0.2859430827036239,0.3103404105572149,0.28812845496489725,0.28174293889899643,0.2912062279039025,0.0,0.0,0.0,0.0,0.0,0.0,0.0,0.0,0.0,0.0,0.0,0.0,0.0,0.0,0.0,0.0,0.0,0.0,0.0,0.0,0.0,0.0,0.0,0.0,0.0,0.0,0.0,0.0,0.0,0.0,0.0,0.0,0.0,0.0,0.0,0.0,0.0,0.0,0.0,0.0,0.0,0.0,0.0,0.0,0.0,0.0,0.0,0.0,0.0,0.0,0.0,0.0,0.0,0.0,0.0,0.0,0.0,0.0,0.0,0.0,0.0,0.0,0.0,0.0,0.0,0.0,0.0,0.0,0.0,0.0,0.0,0.0,0.0,0.0,0.0,0.0,0.0,0.0,0.0,0.0,0.0,0.0,N
0.8161643967016525,0.6164549951320818,0.3222404852705447,-0.05614950998076071,-0.3991661245471573,-0.5508482066922173,-0.36039767696315295,-0.15545548735093723,0.05883321799201377,0.23573011866080926,0.33369759314993974,0.36320677195801937,0.3815360546849419,0.39395209424202365,0.4109206289257794,0.4377044342067807,0.4327552933632092,0.43773869019862266,0.4319060279544511,0.43091347263697555,0.4400130445913935,0.4176456720062944,0.3898629928561761,0.39831753608359194,0.37543902694122483,0.3784790326653984,0.36586837505333875,0.3480459141618259,0.340649673771236,0.3229089859740725,0.3208604172037154,0.31893097482484084,0.2859430827036239,0.3103404105572149,0.28812845496489725,0.28174293889899643,0.2912062279039025,0.28533332041648085,0.29014868256264603,0.2900674092779369,0.29550811008183775,0.2908829788294282,0.29700968329353916,0.272292520046447,0.28955614805238894,0.29680003124168125,0.2836301302876733,0.30206283864921907,0.28969128419414314,0.3037299249819264,0.31297488850260974,0.31222574892396754,0.2858785294083884,0.30674457410253536,0.2864030127308014,0.28205924712791675,0.24689738580411408,0.27972793280659813,0.26611944201130444,0.2580708467495993,0.22956485377356337,0.21699479626670412,0.1943409428025997,0.1823914145700923,0.129119458136706,0.1281252139461001,0.09617441261860495,0.07485597771980211,0.07975338661585178,0.03803286028000635,0.03289001288273638,0.027897427924361725,0.007431496717024599,-0.00772457745597041,-0.0175916007306892,-0.022189645408339367,-0.026738105653530794,-0.03125327454908796,-0.02014592586138297,-0.014230815754007713,-0.01871780733118201,-0.018011439507742436,-0.001715466072300854,-0.027044839577848128,-0.015988529905833816,-0.0049547851183254395,-0.014747355170634472,-0.014159588658768997,0.017614580689060674,-0.007838290069339088,-0.007298960788498938,-0.006768301060298857,0.014562450513901473,-0.0005121976607325676,0.005224037449089462,-0.004630387643055018,-0.0040651257581153085,0.001724651776955116,0.0023431667566780894,0.008198604614203403,-0.006707812391454897,-0.00596298620864532,3.788086721542981e-05,0.0009001530244004627,-0.003368819607278028,-0.002359705267829551,0.003935161709655655,0.010322678098616084,0.0012077348657382686,0.013005102019035347,0.009315640611242184,0.016152063455244073,0.017919092261949567,0.01462434717836508,0.011476351821507424,0.0084825636211858,0.010851375690922012,0.03419312486236318,0.03170617692461744,0.034603622683244274,0.032490449889144866,0.03057445247152208,0.04446524803827277,0.05336534986672943,0.036477048907984394,0.0666202444648714,0.07098684762177185,0.08078829767127893,0.0856277344479741,0.1063138522377807,0.09604200733681759,0.11202688578137661,0.11786481821922207,0.12396051275293471,0.13031610203006072,0.12653111276463908,0.14901335767944401,0.14575313472866677,0.17396085117461607,0.16082135887713433,0.16874445959407253,0.15611928966705288,0.18015300995936212,0.17322816716651768,0.17694726159389285,0.21210795514413835,0.2162911359360494,0.21549351366166458,0.22010773736092762,0.21972140634432694,0.2351269777764945,0.24550786569125668,0.2508502807494378,0.2615411922034771,0.2775643289234666,0.29890211207353695,0.27872663740692893,0.3210373050650024,0.3373953781334766,0.3433803758209799,0.3389671511628346,0.3709377778817292,0.40805773888252056,0.39828669011928935,0.41960707389421426,0.409572528308287,0.4253574339329792,0.43051624829863,0.4406112328031256,0.45559951706669544,0.45983304845698975,0.4688674547369035,0.4826530853076744,0.5479468828225118,0.6074835153597643,0.7028137795073288,0.8598824552391101,0.9121940650376623,0.8908865684611879,0.7230735027881298,0.4398838121735228,0.062040839273943944,-0.28571441136365633,-0.48904323152746754,-0.49599168692226,-0.31697130093146936,-0.12357726275789611,0.11026308715717227,0.2962123007720332,0.37713833712237843,0.39992753549183,0.43226832173421065,0.45343023995264675,0.4686856382360146,0.4833045975219904,0.49215286918911616,0.490093788092946,0.5031941867175184,0.46910156496491223,0.4606867264685369,0.4832052195028449,0.44309142066469365,0.4340130408818245,0.43521372818449783,0.41553297440682585,0.40622001209994063,0.38651206549538475,0.3876542583793574,0.37327687212659805,0.34861619436432767,0.35011260472823713,0.3413908368564413,0.3380838044787483,0.33501874210889565,0.34782516610348463,0.3297190009397457,0.3223313140820979,0.3308845729416534,0.0,0.0,0.0,0.0,0.0,0.0,0.0,0.0,0.0,0.0,0.0,0.0,0.0,0.0,0.0,0.0,0.0,0.0,0.0,0.0,0.0,0.0,0.0,0.0,0.0,0.0,0.0,0.0,0.0,0.0,0.0,0.0,0.0,0.0,0.0,0.0,0.0,0.0,0.0,0.0,0.0,0.0,0.0,0.0,0.0,0.0,0.0,0.0,0.0,0.0,0.0,0.0,0.0,0.0,0.0,0.0,0.0,0.0,0.0,0.0,0.0,0.0,0.0,0.0,0.0,0.0,0.0,0.0,0.0,0.0,0.0,0.0,0.0,0.0,0.0,0.0,0.0,0.0,0.0,0.0,0.0,0.0,N
0.8908865684611879,0.7230735027881298,0.4398838121735228,0.062040839273943944,-0.28571441136365633,-0.48904323152746754,-0.49599168692226,-0.31697130093146936,-0.12357726275789611,0.11026308715717227,0.2962123007720332,0.37713833712237843,0.39992753549183,0.43226832173421065,0.45343023995264675,0.4686856382360146,0.4833045975219904,0.49215286918911616,0.490093788092946,0.5031941867175184,0.46910156496491223,0.4606867264685369,0.4832052195028449,0.44309142066469365,0.4340130408818245,0.43521372818449783,0.41553297440682585,0.40622001209994063,0.38651206549538475,0.3876542583793574,0.37327687212659805,0.34861619436432767,0.35011260472823713,0.3413908368564413,0.3380838044787483,0.33501874210889565,0.34782516610348463,0.3297190009397457,0.3223313140820979,0.3308845729416534,0.32419268181465205,0.32827881429465783,0.32235558542258,0.332442906434502,0.3273481530683911,0.33308796256787115,0.3392703839774988,0.3303008078365461,0.33219087285613874,0.32934262171958956,0.3425633876141492,0.30424197490094035,0.3288002324156578,0.31221677903430994,0.30649838159589415,0.2856353498734372,0.31723433632654874,0.29726779407752224,0.27773638204112133,0.27943331440030866,0.25033651373953286,0.23724137372063311,0.2297311126026911,0.21218676937244815,0.17939022049202613,0.13132327455517157,0.12517776692471758,0.09852203584127495,0.08774266190058269,0.06681381630253981,0.04611618299203799,0.025628125713944024,0.005327777632209777,-0.01480685622984154,-0.003591839094944508,0.0025452626143757547,-0.01201880403780492,-0.026500353255421934,-0.02011455745602704,0.007121956214500567,-0.012418438357892131,-0.042343541587605074,-0.025456001875507363,-0.018976292426395026,-0.012509558273753621,-0.021664107030646786,-0.0048361341819132455,-0.024439638431657855,-0.018064325479917164,-0.016915454439567473,-0.005387630723319129,0.011322174962402414,-0.008389447722211545,-0.0021061044184102935,-0.00102847894840031,0.010451882534777078,0.016737573190750348,-0.00817085221120808,0.013746938719742462,0.01488424877219482,0.016051194113067317,-0.0035501280357392484,-0.0023057839226341085,0.004187573745948068,0.0003335113130452557,0.0017415325766569738,0.018820146601754458,0.009967923090928974,0.011598233628114416,0.002913476237440432,0.015125921606585631,0.0014329298737717983,0.024252639922518603,0.021179349900375292,0.002621139608295459,0.004990948277841742,0.03349574364204848,0.02052856556260468,0.023306119993802176,0.015829121199557625,0.018907104502433113,0.022143567686554424,0.03594588626241169,0.029113380498882943,0.032857107721075335,0.047182021294363295,0.05128893803669578,0.055584397248745525,0.05487170259007994,0.064757852060167,0.08524659010354659,0.06433140672078119,0.0852311853817472,0.11674264045890981,0.11726007403786379,0.11799110740760559,0.12933880329487452,0.14090166220898603,0.13707654489976742,0.13346556600156512,0.13006717556958586,0.14768312859309327,0.13950161987434084,0.14192599484748636,0.1549519499802863,0.16817248597957948,0.1815818149233981,0.184771321896401,0.1985374424670028,0.19166575769229138,0.1797497935313876,0.2043870829419824,0.21875737801978,0.21244636038337184,0.22184755545370444,0.22614250269973377,0.24091858381094028,0.25055609137146057,0.26543907869987066,0.28554836020334623,0.2900594508317825,0.29975438231704726,0.299006784635452,0.3033947473842268,0.3128918859302636,0.3378722847976609,0.3262965472654267,0.34574642775699443,0.37018417403457005,0.3735703051282209,0.35586845447450277,0.38465329750957755,0.3818699244941272,0.4046873221246104,0.421855685634844,0.474937089738638,0.5482805761511855,0.6782427425569477,0.7711526186007123,0.8269537178920445,0.7675708022953415,0.6033413810194294,0.31859416009176444,-0.08674219197068725,-0.4567108076576089,-0.5209247315100691,-0.3366161836671261,-0.1065957022515528,0.08598099365717582,0.24118420061884618,0.3174758407645028,0.35653251935173447,0.3792252819970392,0.3752174332614878,0.4017832914308732,0.4173764304598592,0.4220563599104261,0.43668447472428856,0.43531112197211586,0.40758744449861894,0.4055743253785592,0.40331571376740016,0.3696525378835067,0.377443570676109,0.3799228963258983,0.356327677123071,0.35350608559447394,0.3610935889083795,0.33231693524433004,0.3036169563614707,0.3010308363033266,0.30898629650486775,0.3119095532468823,0.28382329174773263,0.318371478183864,0.2907549508654513,0.28941367192961853,0.2779623161674144,0.0,0.0,0.0,0.0,0.0,0.0,0.0,0.0,0.0,0.0,0.0,0.0,0.0,0.0,0.0,0.0,0.0,0.0,0.0,0.0,0.0,0.0,0.0,0.0,0.0,0.0,0.0,0.0,0.0,0.0,0.0,0.0,0.0,0.0,0.0,0.0,0.0,0.0,0.0,0.0,0.0,0.0,0.0,0.0,0.0,0.0,0.0,0.0,0.0,0.0,0.0,0.0,0.0,0.0,0.0,0.0,0.0,0.0,0.0,0.0,0.0,0.0,0.0,0.0,0.0,0.0,0.0,0.0,0.0,0.0,0.0,0.0,0.0,0.0,0.0,0.0,0.0,0.0,0.0,0.0,0.0,0.0,N
0.7675708022953415,0.6033413810194294,0.31859416009176444,-0.08674219197068725,-0.4567108076576089,-0.5209247315100691,-0.3366161836671261,-0.1065957022515528,0.08598099365717582,0.24118420061884618,0.3174758407645028,0.35653251935173447,0.3792252819970392,0.3752174332614878,0.4017832914308732,0.4173764304598592,0.4220563599104261,0.43668447472428856,0.43531112197211586,0.40758744449861894,0.4055743253785592,0.40331571376740016,0.3696525378835067,0.377443570676109,0.3799228963258983,0.356327677123071,0.35350608559447394,0.3610935889083795,0.33231693524433004,0.3036169563614707,0.3010308363033266,0.30898629650486775,0.3119095532468823,0.28382329174773263,0.318371478183864,0.2907549508654513,0.28941367192961853,0.2779623161674144,0.2980290072836033,0.2924216109274067,0.30796636391244364,0.3134731449622027,0.3037552582957117,0.320433378355519,0.3115087856293905,0.3185990336166911,0.3261091945526692,0.29243778235004597,0.3008055139468912,0.31480880358651353,0.3032435545501236,0.32332097818793304,0.30222594299558825,0.30236752056610894,0.30813837538072447,0.3091306531485329,0.29493495888675536,0.296748296483121,0.2521483199720739,0.2391380124143117,0.2369002278849699,0.2090136455727068,0.18146767695070182,0.16464770922749133,0.13253127081492505,0.1111049975410236,0.07954592498820816,0.07944244999957265,0.05876469651009534,0.04349728722458024,0.01801660650057517,0.013507758798437262,-0.0012561582901695224,0.004909802073285534,-0.014824189919704899,-0.008469120382696031,-0.012451449244219863,-0.016387894277126603,-0.03589895569394683,-0.0033876878097073614,-0.01248451956826738,-0.02159373838087958,-0.02032440402226822,-0.029489483254841714,-0.017890081367909295,-0.016736418935531593,-0.02603105858120888,-0.014569014575812377,-0.01875573809078032,-0.012583379455505727,-0.0012482655970932602,-0.005548507218014465,0.0005268411537362415,0.011783293705519877,-0.008179596402338535,0.003056533317979971,0.014292947237461776,0.004732880575370141,0.010790420806420913,0.016869701086210005,0.012575793683701006,0.0031166657157672174,0.00930320061672867,0.010338321713803111,0.006228878080092075,0.0073836532280319375,0.02421139952566869,0.015110901768065104,0.016495719675361946,0.007568413693002365,0.009139406311604792,0.016014116852360663,0.01779692587395815,0.014494119995444602,0.016513882982181417,0.023862339997986606,0.020942554440848145,0.028564421855355963,0.02592978854955413,0.0338483025331511,0.03152153764313891,0.018954870736883744,0.011756500260478695,0.020333536820191504,0.018686080781486612,0.03282406149686149,0.06275234956105114,0.04086274159735085,0.05037551936598771,0.054887919807631504,0.06480586557460051,0.059329046486783756,0.08006874512040285,0.0958220444898431,0.1013905925931227,0.11237953057992431,0.1235895203850807,0.14022264817671518,0.13107343071704708,0.13254859350618714,0.1238432829569035,0.12575992726277058,0.13309537007358932,0.13024384010858095,0.15360883126483332,0.15117630410721475,0.17495131246587126,0.16771729991452256,0.18667868271070348,0.1746171910850718,0.18353447624977748,0.17181344115252428,0.20705692544354062,0.21123910387264122,0.22075496334539121,0.2147875108516473,0.24013155945758194,0.24996297311332225,0.24946634576591517,0.2542270076784855,0.27982904178242884,0.29504632228485705,0.2998572826405033,0.3046408672034324,0.31457352797582444,0.3140262214936364,0.33937826207990274,0.3541934910099461,0.35844100412608093,0.35208812630316605,0.37670833473481374,0.38545646406098505,0.39389738216562803,0.4019910504539551,0.40969546084426794,0.4169665952996155,0.46016533876404453,0.5548465190867383,0.6541507465045253,0.7684267807418275,0.8508091870491453,0.7972177648228866,0.6387938791157883,0.3130570337132722,-0.04483872508071022,-0.4089617706222826,-0.5505374870352892,-0.3551742545157424,-0.15051256276348132,0.06870439626602316,0.2401348194596309,0.32744152550957906,0.34109507002325234,0.3747802604479555,0.3817533859879067,0.4088867371245129,0.42503579959017496,0.4250589800109669,0.42461653209585115,0.42896459812794613,0.40695024584940803,0.40543329416147783,0.3880556381666197,0.3964720417829026,0.38391844653718554,0.37644271451272254,0.3532818506112895,0.3664848804376937,0.34327522961616835,0.340899317983337,0.3333859599521278,0.331169216897181,0.31347552487050656,0.2907356224708604,0.29418265318126047,0.3030383761518956,0.29652307961968843,0.32146844648081324,0.0,0.0,0.0,0.0,0.0,0.0,0.0,0.0,0.0,0.0,0.0,0.0,0.0,0.0,0.0,0.0,0.0,0.0,0.0,0.0,0.0,0.0,0.0,0.0,0.0,0.0,0.0,0.0,0.0,0.0,0.0,0.0,0.0,0.0,0.0,0.0,0.0,0.0,0.0,0.0,0.0,0.0,0.0,0.0,0.0,0.0,0.0,0.0,0.0,0.0,0.0,0.0,0.0,0.0,0.0,0.0,0.0,0.0,0.0,0.0,0.0,0.0,0.0,0.0,0.0,0.0,0.0,0.0,0.0,0.0,0.0,0.0,0.0,0.0,0.0,0.0,0.0,0.0,0.0,0.0,0.0,0.0,N
0.7972177648228866,0.6387938791157883,0.3130570337132722,-0.04483872508071022,-0.4089617706222826,-0.5505374870352892,-0.3551742545157424,-0.15051256276348132,0.06870439626602316,0.2401348194596309,0.32744152550957906,0.34109507002325234,0.3747802604479555,0.3817533859879067,0.4088867371245129,0.42503579959017496,0.4250589800109669,0.42461653209585115,0.42896459812794613,0.40695024584940803,0.40543329416147783,0.3880556381666197,0.3964720417829026,0.38391844653718554,0.37644271451272254,0.3532818506112895,0.3664848804376937,0.34327522961616835,0.340899317983337,0.3333859599521278,0.331169216897181,0.31347552487050656,0.2907356224708604,0.29418265318126047,0.3030383761518956,0.29652307961968843,0.32146844648081324,0.2946798503792531,0.29419184264638193,0.2836156537739442,0.2889729600801314,0.2946760752810925,0.28513586822817605,0.2967716650470713,0.30879044246393733,0.3107996794775517,0.30280729726542277,0.31082462833402036,0.2984495743676671,0.29689139277867643,0.31135288340413136,0.3002264240349055,0.2947167386140595,0.31042407075611866,0.2797313014443678,0.28584855844041757,0.28195974421257874,0.2576542834446718,0.2649321078074565,0.2569729924563131,0.2389653185407998,0.2421011476728712,0.2039534714593983,0.18691790457283494,0.15457017367431522,0.13809798068658247,0.10107534483037946,0.07468850468767782,0.05371624200542313,0.04333895121898078,0.038334772051562875,0.012677655269738554,0.01835625594829236,0.013741290595241734,-0.006389664604373602,-0.016053143779136563,-0.03087301856326626,-0.009260711822133824,-0.013644574793781,-0.023236189901079216,-0.006843857201351046,-0.011288565295954314,-0.015777742768680447,-0.02032171805150443,-0.03013031375630994,-0.02960744966987882,-0.02915914852654459,-0.018384648091035103,-0.0128853813363268,-0.012658055497412338,-0.01769815369805742,-0.007195984284868661,-0.012350104934568468,0.008455513211231731,-0.00718178903854492,0.003159120418779735,0.013483173842823439,0.01339826689401695,0.008115207013336958,0.0080457277158974,0.02360152194077716,0.018385304809171166,0.008009604089381754,0.0028858625577154865,0.008224489876986823,0.013632902084282273,0.029522446356125817,0.0038924849188705195,0.019968052088902104,0.036150329148860676,0.026443376737541036,0.02726299152775277,0.02301490732070468,0.04491365919189335,0.04615877116020309,0.01635649413452426,0.02312774421196705,0.04047548052868023,0.03720155351661981,0.044519528015999656,0.0468338452700207,0.03374971698971549,0.04168105830613563,0.0290267196196721,0.058205204234858574,0.046007064489422704,0.049649374462807164,0.05353507528252823,0.07847381128753185,0.07246105622478359,0.08231075971615512,0.08202260616163298,0.102806792127594,0.08745622195436503,0.11398910565057677,0.12519739624148565,0.1366863797234238,0.1536587299747987,0.15531147211476062,0.13644384216522518,0.17507018863829465,0.161968427469879,0.16474936347098296,0.15740511643198332,0.155534926920213,0.17473724847742275,0.17339883325053973,0.1879204556823244,0.2078930856321255,0.21250476722606987,0.23295243577957328,0.21721607503666798,0.22249535835411316,0.2227729839607454,0.21803550293596785,0.26027828314898094,0.2558677964582624,0.2515960260986105,0.28905268290036923,0.2954043722733745,0.30183611567348195,0.3083254991418555,0.33565257180096747,0.3369829312946622,0.3486963860514724,0.35516112893055674,0.3875525468983891,0.383426375937308,0.41556223396918157,0.42151200208173367,0.4324433587300094,0.42751194415432564,0.45868513929481003,0.46350634009149144,0.47313452423719343,0.4823194004347368,0.5170142701071512,0.5199541340329165,0.6003031860142568,0.7163942211840463,0.8161550470282855,0.8995198197165855,0.8884037186612468,0.7151194118064147,0.41079399332160327,0.058560912433984876,-0.26364942866470703,-0.5299168512420183,-0.49065342805448803,-0.3539082795192976,-0.12484518442456645,0.07178285922229136,0.26206351260506183,0.37326520974927213,0.3794640119521316,0.41076390614895203,0.4308352038598903,0.4657580795712334,0.47919863680758756,0.5076345532197651,0.5043252214178461,0.4849394126248051,0.48594734869939704,0.47620391695218095,0.455767533349803,0.42989522590479584,0.4350477021848559,0.4036636589721156,0.3930034513815174,0.3927125063585766,0.36642932050419286,0.3610063159042815,0.36088216571249476,0.3400917519199619,0.32467808276170046,0.31987849375208166,0.3153257178186476,0.29544989543099986,0.0,0.0,0.0,0.0,0.0,0.0,0.0,0.0,0.0,0.0,0.0,0.0,0.0,0.0,0.0,0.0,0.0,0.0,0.0,0.0,0.0,0.0,0.0,0.0,0.0,0.0,0.0,0.0,0.0,0.0,0.0,0.0,0.0,0.0,0.0,0.0,0.0,0.0,0.0,0.0,0.0,0.0,0.0,0.0,0.0,0.0,0.0,0.0,0.0,0.0,0.0,0.0,0.0,0.0,0.0,0.0,0.0,0.0,0.0,0.0,0.0,0.0,0.0,0.0,0.0,0.0,0.0,0.0,0.0,0.0,0.0,0.0,0.0,0.0,0.0,0.0,0.0,0.0,0.0,0.0,0.0,0.0,N
0.8884037186612468,0.7151194118064147,0.41079399332160327,0.058560912433984876,-0.26364942866470703,-0.5299168512420183,-0.49065342805448803,-0.3539082795192976,-0.12484518442456645,0.07178285922229136,0.26206351260506183,0.37326520974927213,0.3794640119521316,0.41076390614895203,0.4308352038598903,0.4657580795712334,0.47919863680758756,0.5076345532197651,0.5043252214178461,0.4849394126248051,0.48594734869939704,0.47620391695218095,0.455767533349803,0.42989522590479584,0.4350477021848559,0.4036636589721156,0.3930034513815174,0.3927125063585766,0.36642932050419286,0.3610063159042815,0.36088216571249476,0.3400917519199619,0.32467808276170046,0.31987849375208166,0.3153257178186476,0.29544989543099986,0.30189051415033985,0.30347168137178776,0.2950209603652515,0.28176638317317554,0.28973847899508937,0.2877554444784178,0.2914429651674359,0.28001833637089457,0.2899083199029075,0.3003273537657177,0.2800864402890254,0.2968139484097243,0.29331301306118573,0.2851991880236429,0.2932875535777356,0.29678381948438953,0.2800932221322345,0.28483043771099165,0.27979483902766755,0.27539231926085406,0.2768263795494761,0.2840981510053906,0.28160440141214177,0.2745444503244056,0.26291521620937913,0.2571142309429514,0.24153274649757173,0.21096271540547837,0.17059686866612028,0.15683284085819996,0.11244953839758545,0.08424494484537504,0.06700655086025775,0.03471745361431173,0.018571338967049565,0.023756753863357287,0.008653214802180544,0.02005700161171475,0.0007444895446470658,0.0027128079435625205,-0.010457799684420658,-0.0023732004796199924,0.000949815122956492,0.02550461279706342,0.01406866441983262,0.044645134047596347,0.044408316494685074,0.05495413079013686,0.05546635713574663,0.07713843161737259,0.07834961007248344,0.09029266556299363,0.11815501407540918,0.13591766174007772,0.15916896843605038,0.17229065606123922,0.17006563679965747,0.19408489897128342,0.21832567071677916,0.21676420975231195,0.24139057814777104,0.25057587897350597,0.2651019251326362,0.26934232519058426,0.28407631366144886,0.3144787991512877,0.3293163184262879,0.3441627734478863,0.36418843346498414,0.3737578746507284,0.3936408036944005,0.4081981070376071,0.44339664744170926,0.4367843645645143,0.44552982158644105,0.45398549484948136,0.4881095775702929,0.49584309705598323,0.5083405291133195,0.525547911940753,0.5266047697722029,0.5686628950841041,0.6360575444124382,0.7651310616334289,0.9038057282225581,1.0,0.975622848429928,0.7785832103038747,0.44000103334667745,0.022198330759952305,-0.3760981328015493,-0.5937497868890699,-0.5423962346478391,-0.3156554302848423,-0.06950571715043294,0.1753303683731768,0.35132795535765854,0.4533732130085027,0.4711495608259511,0.503559005819086,0.5298783587433361,0.5345829056245727,0.5489542206861188,0.5574622676475238,0.5445742654572334,0.5259606041451851,0.5328919300664042,0.5082193776598761,0.4988112782143704,0.4787195190051646,0.49480739616774905,0.4795139647996414,0.46929566727081223,0.4589986038576349,0.43826553529267404,0.42794288570830513,0.4124679364509252,0.40228079447986115,0.3818145390873989,0.37710818268562574,0.3829928702211032,0.37869488190306405,0.3590415621728051,0.35006432039004365,0.35698879844479964,0.34863193644718854,0.3354168340871076,0.3485688201566585,0.35169863651264033,0.3500232266915247,0.3539587688020727,0.353115718575025,0.35790673420916513,0.3631397291282683,0.34801784802602403,0.3489533436176644,0.3295428256125779,0.32099406880456693,0.3077042626840604,0.3104759432294454,0.29810017724307825,0.2913764098023165,0.2642936578943858,0.2532513984101235,0.24263785611736036,0.23244296872335013,0.1966504954187075,0.18725792916127917,0.15744291141247233,0.12279406412970886,0.11970319431774058,0.07534064063609262,0.041699976799639764,0.039568441427223225,0.022120154786668043,0.004940956089252676,0.019219553141896755,-0.0026742391972230423,-0.0035468685963746544,-0.01982240384959313,-0.009909680816321157,-0.010230548209711459,-0.010396975733993842,-0.015622940387733375,8.452693602988612e-05,0.0107099488688757,-0.009762152380250844,-0.004131419104601572,-0.014015434436914631,0.002184500022434103,-0.002348467973678689,0.003583694387199109,-0.006031680698211804,-0.005197348296945439,0.006079544206271983,0.006988370912915609,-0.0024775522113735715,-0.006721964946393989,-0.005751350900899159,-0.004772548162444415,-0.014192841505721265,0.007590868341371343,0.0,0.0,0.0,0.0,0.0,0.0,0.0,0.0,0.0,0.0,0.0,0.0,0.0,0.0,0.0,0.0,0.0,0.0,0.0,0.0,0.0,0.0,0.0,0.0,0.0,0.0,0.0,0.0,0.0,0.0,0.0,0.0,0.0,0.0,0.0,0.0,0.0,0.0,0.0,0.0,0.0,0.0,0.0,0.0,0.0,0.0,0.0,0.0,0.0,0.0,0.0,0.0,0.0,0.0,0.0,0.0,0.0,0.0,0.0,0.0,0.0,0.0,0.0,0.0,0.0,0.0,0.0,0.0,0.0,0.0,0.0,0.0,0.0,0.0,0.0,0.0,0.0,0.0,0.0,0.0,0.0,0.0,N
0.975622848429928,0.7785832103038747,0.44000103334667745,0.022198330759952305,-0.3760981328015493,-0.5937497868890699,-0.5423962346478391,-0.3156554302848423,-0.06950571715043294,0.1753303683731768,0.35132795535765854,0.4533732130085027,0.4711495608259511,0.503559005819086,0.5298783587433361,0.5345829056245727,0.5489542206861188,0.5574622676475238,0.5445742654572334,0.5259606041451851,0.5328919300664042,0.5082193776598761,0.4988112782143704,0.4787195190051646,0.49480739616774905,0.4795139647996414,0.46929566727081223,0.4589986038576349,0.43826553529267404,0.42794288570830513,0.4124679364509252,0.40228079447986115,0.3818145390873989,0.37710818268562574,0.3829928702211032,0.37869488190306405,0.3590415621728051,0.35006432039004365,0.35698879844479964,0.34863193644718854,0.3354168340871076,0.3485688201566585,0.35169863651264033,0.3500232266915247,0.3539587688020727,0.353115718575025,0.35790673420916513,0.3631397291282683,0.34801784802602403,0.3489533436176644,0.3295428256125779,0.32099406880456693,0.3077042626840604,0.3104759432294454,0.29810017724307825,0.2913764098023165,0.2642936578943858,0.2532513984101235,0.24263785611736036,0.23244296872335013,0.1966504954187075,0.18725792916127917,0.15744291141247233,0.12279406412970886,0.11970319431774058,0.07534064063609262,0.041699976799639764,0.039568441427223225,0.022120154786668043,0.004940956089252676,0.019219553141896755,-0.0026742391972230423,-0.0035468685963746544,-0.01982240384959313,-0.009909680816321157,-0.010230548209711459,-0.010396975733993842,-0.015622940387733375,8.452693602988612e-05,0.0107099488688757,-0.009762152380250844,-0.004131419104601572,-0.014015434436914631,0.002184500022434103,-0.002348467973678689,0.003583694387199109,-0.006031680698211804,-0.005197348296945439,0.006079544206271983,0.006988370912915609,-0.0024775522113735715,-0.006721964946393989,-0.005751350900899159,-0.004772548162444415,-0.014192841505721265,0.007590868341371343,-0.001836832338556674,-0.0008715339078029347,-0.010320569015253403,0.006219736206116001,0.0019381470298383994,-0.002363692518101857,0.003713865766601031,0.00976672237715521,-0.010212219958975102,0.000985781699609758,-0.0034494208542286044,-0.002715070905404864,-0.017616028567626226,0.009057999959211738,0.0044941553611346505,-0.00010060565639746758,-0.009926300317003353,0.006224015171537586,-0.003657661447571305,0.002038511627288243,-0.013092172306503617,-0.0022385410965775317,-0.007005060947214067,0.00901891058078602,0.019832764621751396,0.015038826411873006,-0.00015769878006615745,0.02105626364435857,0.016272948890050036,0.006300375928140227,0.006745489299544982,0.007210236715941946,0.002497525227033983,0.003013205027755496,-0.0016408584364720907,-0.016661821720780755,-0.005638740974977361,0.015830979869477572,-0.01465846502772924,0.0017178243678125952,0.00775634868053979,0.00346452366595602,0.009653698559708435,0.010728253816523873,0.017097486949994942,-0.007638295756800201,0.009341980866687756,0.021237277123255693,0.02285445112956984,0.019402240946854235,0.03169224956049239,0.023325059224474302,0.025514003582674374,0.01746236899895379,0.030383244921872932,-0.00332923475581532,0.03595466229939889,0.044222282883043675,0.03708363452318499,0.03014850363647437,0.04422748428686242,0.058523075272007896,0.06263954038309152,0.05658283692686111,0.06636357433972107,0.06598214848917408,0.06584557488315315,0.0607575599224336,0.0871294253036901,0.08775431375730684,0.10424380061050406,0.11059611256780086,0.1120149135075436,0.11890430739298744,0.14686883117829166,0.15430150357588984,0.17240851187066344,0.1907873273162025,0.1574266145997639,0.16594189030517578,0.17472206418092892,0.18376316078983604,0.17225635882250198,0.1766028418739166,0.20199697386444504,0.19122031891458277,0.20147527860033335,0.20674740934855843,0.21222721860255678,0.21270219393763684,0.23936571325131614,0.25059618801353845,0.26198175658587,0.27350632515252193,0.29555447611986563,0.2969014798388729,0.3243360248702106,0.33102744008865553,0.3273543564090488,0.34449772187091765,0.3564259240218187,0.3683115863135293,0.3801245570027348,0.4126368150500757,0.41900552894227516,0.425199706898585,0.4363822898487252,0.46291508578935286,0.4475448109545439,0.45783970057426576,0.47814986310688434,0.4928231178122622,0.5122098585283048,0.5518590080428,0.6117139488978278,0.7177202696677867,0.8282075905061973,0.901501942965233,0.8907242244936422,0.7333878458340434,0.42941368089359305,0.051532839556822384,0.0,0.0,0.0,0.0,0.0,0.0,0.0,0.0,0.0,0.0,0.0,0.0,0.0,0.0,0.0,0.0,0.0,0.0,0.0,0.0,0.0,0.0,0.0,0.0,0.0,0.0,0.0,0.0,0.0,0.0,0.0,0.0,0.0,0.0,0.0,0.0,0.0,0.0,0.0,0.0,0.0,0.0,0.0,0.0,0.0,0.0,0.0,0.0,0.0,0.0,0.0,0.0,0.0,0.0,0.0,0.0,0.0,0.0,0.0,0.0,0.0,0.0,0.0,0.0,0.0,0.0,0.0,0.0,0.0,0.0,0.0,0.0,0.0,0.0,0.0,0.0,0.0,0.0,0.0,0.0,0.0,0.0,N
0.8907242244936422,0.7333878458340434,0.42941368089359305,0.051532839556822384,-0.2963197569673116,-0.5258124243304648,-0.5069773832836075,-0.31783662501626664,-0.11437887384863342,0.08786415314621455,0.2629696187572713,0.3798132533872935,0.4176714587218872,0.4390346264279388,0.4699841083567388,0.479388137466257,0.49852451357958155,0.5014577158589243,0.5090586684331743,0.5057888366843392,0.5021121060284429,0.5032888398718536,0.47816993960210724,0.458015706948201,0.4688830597239616,0.44320875048619024,0.4434520140131823,0.41764802159910314,0.3970456163255952,0.39208758077230627,0.3820087538979717,0.36684598648531,0.37263918460062884,0.34741152409822773,0.3432041789459171,0.3392426831372833,0.3355548269069046,0.34256869040688664,0.3343037245568992,0.33158660502240483,0.31363439142646987,0.33767738144121107,0.32571848486452365,0.319381763613245,0.32908369261895787,0.3340331915115965,0.32904051369904735,0.3245172216196543,0.33607422557466443,0.3377128687554432,0.3346387723750581,0.32685487601676166,0.335166418331831,0.33356806610791784,0.33245976175888414,0.32663680066184647,0.29008884363322546,0.2956227865494011,0.31722520659857256,0.28727325833123296,0.30457428826693655,0.29110044233290844,0.26764121182889433,0.23418066029054188,0.23230945757121307,0.20479823437700612,0.17763234891427865,0.13518819087444278,0.11905218550735483,0.09279518613984129,0.08760036068893325,0.06703750324459896,0.04668590054972032,0.031722518028719615,0.0065201154146295,0.01266221754808123,-0.0018855585093616697,-0.000740776894204459,-0.015133732466026277,-0.0242847190558841,-0.033417558117609214,-0.016547805663892162,-0.020501745956006314,-0.029692174428026463,-0.044132918044576794,-0.022227038489937224,-0.02119227306513599,-0.025430344585941,-0.02454195566765079,-0.018527379173771674,-0.012585549547493335,-0.011913641130983978,-0.02170763263920476,-0.005554426467435762,0.015750213493954838,0.021411051025113245,0.016637736482476788,0.022242792363642835,0.017430713453752664,0.01261184171681604,0.012995438897803708,0.008187724486062769,-0.001803160875310766,0.009035847845515288,-0.0008949228704759614,0.004819704260535014,0.010585060885323346,0.0320124129449731,0.03270304280054682,0.02826800340575947,0.003112225806281753,0.024856388755314686,0.03109632880813754,0.03744265422016145,0.028299859372323263,0.04008218208700587,0.036389815770691315,0.01722970487725323,0.024216556435260043,0.03655307453909526,0.023039856069416838,0.04609519032000079,0.03811242474855007,0.0303035445807785,0.02787537915291766,0.04643659241441963,0.059987764414067064,0.05293122914862398,0.061678951330749444,0.055029721165824524,0.04338996498824736,0.052768813180225374,0.05716524851942396,0.08258792059415968,0.07703029718443087,0.09770628750553878,0.10821154044280798,0.10334717474295571,0.11952171261877076,0.11512826356509244,0.1317752285157444,0.13305553678115675,0.11896841025391901,0.14152233620365384,0.1331023665520832,0.11971072078773899,0.13775093901826352,0.13520908068467616,0.12768342632443344,0.156776545756947,0.16007050907506254,0.1583624915364443,0.18285085417715471,0.1763162841077792,0.17515642936312312,0.20536607026562784,0.20972322230804047,0.23502473546219094,0.21364456364342,0.2235832914765988,0.259624546316233,0.2645409069456536,0.25911855000753553,0.26934332250549076,0.28999381745755076,0.305445295034191,0.28966957930585596,0.32065682842594945,0.34637092556318533,0.3511811020604378,0.3610628019297263,0.3655827618192583,0.3647078991941745,0.3844082689331653,0.38824018558976436,0.39696896539634935,0.4053530180570114,0.41334976149648617,0.4417185591363058,0.47480975619089283,0.5593834060675343,0.6693832852081327,0.7839513662030314,0.8510203163333174,0.849724841516077,0.6863814896502102,0.3973273866472028,0.04490119183845029,-0.3501683666053586,-0.6007210069243999,-0.41034232698911577,-0.19509690614391512,0.01906413869823601,0.21661021096139862,0.31959870196327955,0.3437037951490214,0.3774119788868605,0.39478617558568024,0.4114953651182427,0.427603574230017,0.45357475832058997,0.4374588179860163,0.4625292056508232,0.44042441528488113,0.44401141324165533,0.4265321232466848,0.42444213801599023,0.4117830008193149,0.3990010841740145,0.39133970861696826,0.3784372204832198,0.35513100247474094,0.35266349656570317,0.3502654384205485,0.3219648073207641,0.31460173413724896,0.32820580232762003,0.3107950916861065,0.0,0.0,0.0,0.0,0.0,0.0,0.0,0.0,0.0,0.0,0.0,0.0,0.0,0.0,0.0,0.0,0.0,0.0,0.0,0.0,0.0,0.0,0.0,0.0,0.0,0.0,0.0,0.0,0.0,0.0,0.0,0.0,0.0,0.0,0.0,0.0,0.0,0.0,0.0,0.0,0.0,0.0,0.0,0.0,0.0,0.0,0.0,0.0,0.0,0.0,0.0,0.0,0.0,0.0,0.0,0.0,0.0,0.0,0.0,0.0,0.0,0.0,0.0,0.0,0.0,0.0,0.0,0.0,0.0,0.0,0.0,0.0,0.0,0.0,0.0,0.0,0.0,0.0,0.0,0.0,0.0,0.0,N
0.849724841516077,0.6863814896502102,0.3973273866472028,0.04490119183845029,-0.3501683666053586,-0.6007210069243999,-0.41034232698911577,-0.19509690614391512,0.01906413869823601,0.21661021096139862,0.31959870196327955,0.3437037951490214,0.3774119788868605,0.39478617558568024,0.4114953651182427,0.427603574230017,0.45357475832058997,0.4374588179860163,0.4625292056508232,0.44042441528488113,0.44401141324165533,0.4265321232466848,0.42444213801599023,0.4117830008193149,0.3990010841740145,0.39133970861696826,0.3784372204832198,0.35513100247474094,0.35266349656570317,0.3502654384205485,0.3219648073207641,0.31460173413724896,0.32820580232762003,0.3107950916861065,0.31440590228736,0.3234600703794415,0.30677488098448535,0.3007789116754064,0.3002912616269405,0.31573250531568037,0.30551178510719357,0.3112525537520681,0.33296879191819306,0.31346200029049964,0.32035584828128083,0.312051583617922,0.3249637482306428,0.2914854624823107,0.34164595840497686,0.32461938506790766,0.31322088512586105,0.317852061351009,0.3073050058873243,0.2971791592077182,0.3030724252600727,0.2937722845072285,0.28487363963914514,0.2659649591570012,0.2682412317175509,0.24488122017067684,0.25308220746953725,0.23041741165534052,0.1872726882748611,0.16003770611517412,0.13829226001066772,0.1012133584762562,0.09559022841668606,0.06939272242594878,0.04860511112896959,0.02280436672875949,0.01797416986107586,-0.002313829645818131,-0.012076155048847962,-0.021736061249424798,0.005093281675015378,-0.0252240580639376,-0.003485308167705673,-0.00252005734370456,-0.022343660278470165,-0.036966266925732134,-0.020395904591493885,-0.019450991703004836,-0.01853609229091779,-0.033259880934504216,-0.01681735449860728,-0.026420211468815763,0.00034428782380827033,0.006268552462442952,0.0017578996599595608,-0.007983377779004652,-0.00734900970836728,-0.011937925953987195,0.004259586337972666,0.010043450404126165,0.010620519641457478,0.011197597229698774,0.0013784540495689046,-0.00842922274431259,0.018187212437762133,0.013621344652227418,0.019487522394361318,0.02539009539800156,0.010531329828430453,0.011324288620642138,0.02257403752920795,0.013080620359897587,0.029658864030368732,0.009902675680271388,0.02143064079172815,0.01743944789310559,0.013537595145226851,0.02533349351167564,0.02162654867881455,0.028426963385727422,0.004131922387622504,0.016359322679797027,-0.007699772169799892,0.015175411574318787,0.032980559423731765,0.019716246340318412,0.006593806103349826,0.019623480845393674,0.032805549075270016,0.014939198118922983,0.01803934032209867,0.021306910417948646,0.02994771827028141,0.03356448801193824,0.03216178016811245,0.06735193196533099,0.06632527238084228,0.06549264800714089,0.07525960848300085,0.06962442452565429,0.09539889347089477,0.09017361015748732,0.09035756067369209,0.09595232878141648,0.12256202565117966,0.11817737284072458,0.11920536121068502,0.1412484184729437,0.12709447339597332,0.1391535890120036,0.13061433850599127,0.13267949527702363,0.13494323512872192,0.13740105659817406,0.15565076270270764,0.15327953879964995,0.161486701843647,0.16986285786787697,0.17839979160295222,0.1870884384651957,0.1959188418719723,0.20488010979845442,0.20875937756013344,0.2179457352683669,0.23242524310668108,0.24178088539898224,0.2459964704739045,0.25545658388659837,0.27534358814439036,0.27963261007885704,0.2891063373928798,0.2985410942989308,0.31831473867421034,0.3327986703630888,0.33676468376718616,0.3353848954257137,0.3494327172508793,0.3736749189030548,0.37167056448619545,0.36418777344985054,0.3719928068907471,0.4002471257703295,0.4177033796277057,0.43472016129012836,0.49285993346078205,0.6128790129801579,0.7271143702760604,0.8199098420359469,0.8496006640480637,0.769316979485976,0.5685916349782297,0.22655164443753076,-0.1580559806757414,-0.48648536165942946,-0.50394581252906,-0.28846398738099155,-0.07404845742354334,0.12896231202905015,0.294633911069595,0.3554233404555632,0.3478059890843054,0.38106937165307403,0.3980674857340813,0.4300693056657,0.44592989866321364,0.45090913305367886,0.4502646475146594,0.4440508331125815,0.4167168503942189,0.4099205633723685,0.4029058356899148,0.41652242591069893,0.37279920982542103,0.3809987309696333,0.363145918525857,0.360886637188808,0.3430510330070052,0.34608035744691396,0.3179972646068153,0.32644551868905236,0.30904246727285234,0.30742368701928324,0.2956102995259447,0.2944308268612464,0.0,0.0,0.0,0.0,0.0,0.0,0.0,0.0,0.0,0.0,0.0,0.0,0.0,0.0,0.0,0.0,0.0,0.0,0.0,0.0,0.0,0.0,0.0,0.0,0.0,0.0,0.0,0.0,0.0,0.0,0.0,0.0,0.0,0.0,0.0,0.0,0.0,0.0,0.0,0.0,0.0,0.0,0.0,0.0,0.0,0.0,0.0,0.0,0.0,0.0,0.0,0.0,0.0,0.0,0.0,0.0,0.0,0.0,0.0,0.0,0.0,0.0,0.0,0.0,0.0,0.0,0.0,0.0,0.0,0.0,0.0,0.0,0.0,0.0,0.0,0.0,0.0,0.0,0.0,0.0,0.0,0.0,N
0.769316979485976,0.5685916349782297,0.22655164443753076,-0.1580559806757414,-0.48648536165942946,-0.50394581252906,-0.28846398738099155,-0.07404845742354334,0.12896231202905015,0.294633911069595,0.3554233404555632,0.3478059890843054,0.38106937165307403,0.3980674857340813,0.4300693056657,0.44592989866321364,0.45090913305367886,0.4502646475146594,0.4440508331125815,0.4167168503942189,0.4099205633723685,0.4029058356899148,0.41652242591069893,0.37279920982542103,0.3809987309696333,0.363145918525857,0.360886637188808,0.3430510330070052,0.34608035744691396,0.3179972646068153,0.32644551868905236,0.30904246727285234,0.30742368701928324,0.2956102995259447,0.2944308268612464,0.2779033754528551,0.28765748942543556,0.29250742047017114,0.2976729334490999,0.2979703445562144,0.30381746081725497,0.2996256340788805,0.3062116485587479,0.29758185275709803,0.2997509947706464,0.29712439026307064,0.3053118145359051,0.29311261967948715,0.312540520272629,0.3219898901525537,0.30585850578124124,0.29535147126046646,0.30086838913758834,0.291199440678836,0.29234422652868153,0.2678889745487332,0.2750363260579576,0.2565657354900706,0.2696771295375358,0.24154432542734638,0.21896263250669717,0.2019172148119105,0.17478916236973113,0.15316451401365982,0.13702545543497044,0.09514744810953649,0.06911917130255817,0.05371989095274979,0.022924555141082183,0.013119760134732084,0.01908404305432682,0.004389917028862795,-0.020581262643633438,-0.009041211156418453,0.0025844224696547767,-0.011727165740263246,-0.015586875897473798,-0.014212438556306379,-0.018021096583352002,-0.027026756532595467,-0.015236647626487609,-0.029469334462212712,0.003080906350418694,0.004393798889690228,-0.020335059123098787,-0.029503140477341365,-0.0075109514591723955,-0.027173077669400497,-0.02087657840070948,0.011381158645463208,-0.008410166939447487,-0.0022311205056485175,0.009119663318549905,-0.00035723120418609865,-0.015053320885733322,-0.0037571094045890418,0.01793539203698823,0.01362455690024655,0.004121592689662623,0.015438631852400343,0.0007738833110562213,0.001742360908086574,0.002748150896342358,0.0037983100132851196,0.015301867386565346,0.021662867824924898,0.007285279627768721,0.024185872631294857,0.004758539739453901,0.016622872629097726,0.023378577874945333,0.004228258133767684,0.011188302086050317,0.018260181288912443,0.009847297488906273,0.027563884851866366,0.014205260063177355,0.037390435560120644,0.013909553854997722,0.011381369406611875,0.019409671143921472,0.02759819108903787,0.02555056421571666,0.028875252834116554,0.042778605370631766,0.036059874417090354,0.019126043196067217,0.04399185915453879,0.04304913360341623,0.052709319203749085,0.05737372271620181,0.07264934574767304,0.07773595157814588,0.08303889863370495,0.11456613585709213,0.09950632875259359,0.10547438276155241,0.14807477513895081,0.13369060139295125,0.14033698781840692,0.1368075378822581,0.1387040909557513,0.13562283704508518,0.1379632448978902,0.15092311208214007,0.16409656715316864,0.16187599098527775,0.15985890236276362,0.18404399682091088,0.17721328155294483,0.19656969097248428,0.19009441905183416,0.19418455902786366,0.19842731607610115,0.2184138897766384,0.2437295222456282,0.22235041900600064,0.26348235196269754,0.2734912517151689,0.27316357889148263,0.2780834335979763,0.2986325570576213,0.29838236248697564,0.3241186589873593,0.33420888163526075,0.3442297686340619,0.3437514218153782,0.34834718718934027,0.36838769894349777,0.38823688420210595,0.3922568281509252,0.4064156193150683,0.4150714404117335,0.42338441434190915,0.41050762332202295,0.4596118939558649,0.4874342222140135,0.5719400910372007,0.7026756640820279,0.8015713354535089,0.8633678887949412,0.8099881969763412,0.6517676981412994,0.35742983596864863,-0.026290308719194088,-0.3434385878740856,-0.5264752379815734,-0.4194109867483379,-0.22507506825099868,-0.016232045885641786,0.19158582280331937,0.33083789166111394,0.39119348032404544,0.41433018489367607,0.4107176871113361,0.4272305485257331,0.43272638111506345,0.4324676121630827,0.45771947064899954,0.4617301272318864,0.43415241543176386,0.416646790772734,0.4144645865585195,0.42245306672794536,0.4042514645040738,0.40151179682670873,0.38307015646172754,0.38537353846715583,0.3720531196336328,0.36394907360429385,0.3298897831019592,0.34272167241351514,0.32966171054372456,0.32194501419842236,0.2935941280547019,0.2862428969157178,0.2895137669592671,0.28262576701771885,0.0,0.0,0.0,0.0,0.0,0.0,0.0,0.0,0.0,0.0,0.0,0.0,0.0,0.0,0.0,0.0,0.0,0.0,0.0,0.0,0.0,0.0,0.0,0.0,0.0,0.0,0.0,0.0,0.0,0.0,0.0,0.0,0.0,0.0,0.0,0.0,0.0,0.0,0.0,0.0,0.0,0.0,0.0,0.0,0.0,0.0,0.0,0.0,0.0,0.0,0.0,0.0,0.0,0.0,0.0,0.0,0.0,0.0,0.0,0.0,0.0,0.0,0.0,0.0,0.0,0.0,0.0,0.0,0.0,0.0,0.0,0.0,0.0,0.0,0.0,0.0,0.0,0.0,0.0,0.0,0.0,0.0,N
0.8099881969763412,0.6517676981412994,0.35742983596864863,-0.026290308719194088,-0.3434385878740856,-0.5264752379815734,-0.4194109867483379,-0.22507506825099868,-0.016232045885641786,0.19158582280331937,0.33083789166111394,0.39119348032404544,0.41433018489367607,0.4107176871113361,0.4272305485257331,0.43272638111506345,0.4324676121630827,0.45771947064899954,0.4617301272318864,0.43415241543176386,0.416646790772734,0.4144645865585195,0.42245306672794536,0.4042514645040738,0.40151179682670873,0.38307015646172754,0.38537353846715583,0.3720531196336328,0.36394907360429385,0.3298897831019592,0.34272167241351514,0.32966171054372456,0.32194501419842236,0.2935941280547019,0.2862428969157178,0.2895137669592671,0.28262576701771885,0.28120342981290924,0.2748649096104807,0.28963390611722867,0.2891208279297398,0.2889445661297874,0.2943205800640613,0.3156638774218928,0.3165790567004674,0.30747807566682867,0.2883693230617935,0.3060685878250458,0.31897333493663477,0.29068049209914265,0.30440823265432576,0.2873434845773293,0.28109350124251214,0.28045516171756524,0.28022393960267333,0.2803948992876843,0.26535872484633277,0.2455096637052153,0.2520446087591914,0.24854631550366968,0.250606209865732,0.20100057212427885,0.18813223536036944,0.1651772079499376,0.14772247439340114,0.13055022104325098,0.08243693031224769,0.08137928623695248,0.06494674790153893,0.03312028427940997,0.037890470264946144,0.022026860776200672,0.021916696457366228,-0.009268781229215782,-0.0143385790952519,-0.014115719400307663,-0.008617889977047684,-0.029067396057623804,-0.018268842061621122,-0.012641946184490046,-0.012197739623383039,-0.022147045656037027,-0.0008905911856791088,-0.016047853521105243,-0.01041439179362747,-0.02040211576696383,-0.014809035986479755,-0.01964214851673164,-0.014098104974611742,-0.01897963549667697,0.002122792820677198,-0.023600338428478494,0.013076199027472497,0.008139159807957305,0.013605025115559189,-0.0017256535904849526,0.003761510040540144,-0.0011328366201631183,0.004401865645774592,0.020372311414314653,0.015579214859259964,-0.0047698602488416685,0.006140516488256947,0.02231232568892269,0.007345531137996605,-0.0075471050901764775,0.00364614928562091,0.014927812866872692,0.0159033652207315,0.011781190471700774,0.012970586292929595,0.003875826124256128,0.015710056141832508,0.027676472487963146,0.008576206623728374,0.015627133740865128,0.022831197102529923,-0.001010731229261175,0.022122961026428342,0.019425183271322186,0.032510581732716544,0.0249788095299156,0.04364524627686221,0.020903299253073982,0.024371977214101618,0.028052309220508796,0.021548181669388256,0.04127227828553202,0.04562227907074809,0.05020658138564189,0.06023136834848003,0.07050058591367879,0.08621986500975609,0.09699150486588519,0.08721638054644255,0.11410878507488427,0.1464656932797446,0.1374805302492173,0.14956684311793564,0.14111763030844734,0.1693440106530471,0.1614315707590853,0.13298193262687802,0.1516058417536047,0.14968755902451716,0.1584294555396209,0.17782719556829596,0.17146869977434268,0.19135788179860264,0.18027694356351254,0.19542897764247766,0.2055992931111664,0.20037619416224567,0.21615589458116222,0.23212268255220317,0.237861751611126,0.2489621000076341,0.26540855748625763,0.28198371591555493,0.27786586092488164,0.2946437850106744,0.32189496068534795,0.3023864496531465,0.32971250304219024,0.33103408195325656,0.34793234636498493,0.3803788565618313,0.3763335025118028,0.37217115440164233,0.39386281461963707,0.4101667009781133,0.43144700649909756,0.4472619011092247,0.4627703766965121,0.46232521657758474,0.47188483474095777,0.47059639595981767,0.5000166223688379,0.5444889594005232,0.6559672622553987,0.7667798231833427,0.8352566199252809,0.850929754715853,0.7617192089828259,0.5155407095051922,0.195531994168164,-0.16198071443583922,-0.4374562823268219,-0.5113381873569166,-0.39405317566822784,-0.17919530532260822,0.0032718492114767166,0.2106374873765481,0.3441610002917301,0.4143215802636151,0.4159937195973794,0.4480697002997316,0.45861092551010296,0.46849046093602714,0.4777751069685229,0.48132832848083223,0.4896141806670777,0.4922903398178519,0.4478060757600141,0.460236002701932,0.4412157523991411,0.432403482063956,0.4286462052406833,0.41438678732527623,0.4052719088754918,0.4013431993187351,0.4078412547883385,0.3675927479159771,0.3742511110257319,0.3758401326447361,0.36198967456834164,0.3327297055221804,0.3296963288072851,0.0,0.0,0.0,0.0,0.0,0.0,0.0,0.0,0.0,0.0,0.0,0.0,0.0,0.0,0.0,0.0,0.0,0.0,0.0,0.0,0.0,0.0,0.0,0.0,0.0,0.0,0.0,0.0,0.0,0.0,0.0,0.0,0.0,0.0,0.0,0.0,0.0,0.0,0.0,0.0,0.0,0.0,0.0,0.0,0.0,0.0,0.0,0.0,0.0,0.0,0.0,0.0,0.0,0.0,0.0,0.0,0.0,0.0,0.0,0.0,0.0,0.0,0.0,0.0,0.0,0.0,0.0,0.0,0.0,0.0,0.0,0.0,0.0,0.0,0.0,0.0,0.0,0.0,0.0,0.0,0.0,0.0,N
0.850929754715853,0.7617192089828259,0.5155407095051922,0.195531994168164,-0.16198071443583922,-0.4374562823268219,-0.5113381873569166,-0.39405317566822784,-0.17919530532260822,0.0032718492114767166,0.2106374873765481,0.3441610002917301,0.4143215802636151,0.4159937195973794,0.4480697002997316,0.45861092551010296,0.46849046093602714,0.4777751069685229,0.48132832848083223,0.4896141806670777,0.4922903398178519,0.4478060757600141,0.460236002701932,0.4412157523991411,0.432403482063956,0.4286462052406833,0.41438678732527623,0.4052719088754918,0.4013431993187351,0.4078412547883385,0.3675927479159771,0.3742511110257319,0.3758401326447361,0.36198967456834164,0.3327297055221804,0.3296963288072851,0.32691107422502896,0.3400017676189142,0.32218268349141194,0.32028427151464567,0.3187234536616609,0.3227195227460323,0.31148521263670764,0.3058395881287946,0.31099717739492266,0.32176899327883685,0.33816548670386737,0.34459252055196254,0.31505228074669395,0.32756509155846436,0.314521896163065,0.32793484041667864,0.3261966223875161,0.3457131964516623,0.3084670385617122,0.3028706741993733,0.28731025987436765,0.29818533372512196,0.27827612216027253,0.2691802289057497,0.2656849287176277,0.2625761504508362,0.22343253614283076,0.2262532623906926,0.19820758973014252,0.18608648793643875,0.15346404669934352,0.1211243489963682,0.08904673822290395,0.09881789667637052,0.05679824171823219,0.04098046778103625,0.020136130931215614,0.009845519922109643,-0.0055171355664271286,-0.015572689754781181,-0.015142465800931931,-0.0250512727846907,-0.019313543662372323,-0.008348282977679072,-0.023376632749552338,-0.02280503899344647,-0.03265063679583687,-0.026918464109777374,-0.016017408536128225,-0.020755786552603007,-0.009930462328387495,-0.019949238084077257,-0.00920407666427106,-0.01409994171802535,-0.008629005721452927,-0.008390046179977104,-0.0029760555161191275,0.007618784771043413,-0.013006375550595067,-0.0024335565631014564,-0.007464397117771305,-0.0020864019614227204,0.008507674884022128,0.0035222984084122234,0.019372814783410984,-0.0011433226093009996,0.009595076319204003,0.009988455898595695,4.515700693589876e-05,0.010979428972837208,0.02199559024441008,0.012297904372620136,0.013100455585198845,0.0036073359656387393,0.015032502749871546,0.031780957547903776,0.017453654545341358,0.02406827113602155,0.025627501463433247,0.016937891591596522,0.024011817839854406,0.02605263424884657,0.038670526258425465,0.030666611456026945,0.04365571699305943,0.03603662764032679,0.033820819741180064,0.026612637997530168,0.04042320946549127,0.023248632155911924,0.037506649403970964,0.06239899925413909,0.07192623915216828,0.05569159374522934,0.081312824031373,0.08638258591388849,0.09691001084496392,0.09209486077461246,0.12395031601939689,0.1300672489811986,0.13645279442333785,0.1327064853145881,0.15003511688352422,0.1572329040406341,0.1542992699136514,0.15163483759673288,0.14923747255674238,0.16790825434824252,0.17123659261824434,0.16961999506173245,0.16305312705978486,0.17753477122086286,0.1870529642330752,0.19680081350350462,0.2171714842398845,0.2273511992530505,0.22212807469283188,0.23789703447683563,0.2538409681621061,0.26474455501693045,0.2653912051047551,0.271366977028138,0.30865858856455497,0.30443253241263407,0.3106775915493817,0.3117681169380098,0.32848385761207455,0.36079903150266035,0.3566762834668467,0.3680963156759893,0.37422414400342285,0.3958308883646767,0.40687685996531525,0.42812932844570595,0.41794161227625615,0.4438857436556367,0.46951180376502266,0.4739706335532861,0.4728176778685818,0.4764050186404251,0.5262883321027723,0.5912070095478823,0.6971087345465423,0.7971243317178875,0.8547831262683242,0.8648164161754297,0.728333350322659,0.44525762175534966,0.0883231847686904,-0.259336246499295,-0.48338144113367665,-0.5006544896689373,-0.3475744019085016,-0.1281255353304068,0.0849467305483205,0.27612011185669977,0.3778619693353803,0.44746211669577296,0.4329876239645359,0.43853311582189464,0.5005781421588226,0.49957026823656225,0.5031903067826269,0.5063026697565844,0.5037692531664689,0.48524842844149374,0.49240597881932324,0.4784883791824606,0.448749573038232,0.46045104210678434,0.4356262046581352,0.4315319964093555,0.4222072858989458,0.4128947423982546,0.39843293801125756,0.39966334569557666,0.3542095571965968,0.3817279232344838,0.3626273424699192,0.3541485691500063,0.345917634534004,0.33275979220379687,0.0,0.0,0.0,0.0,0.0,0.0,0.0,0.0,0.0,0.0,0.0,0.0,0.0,0.0,0.0,0.0,0.0,0.0,0.0,0.0,0.0,0.0,0.0,0.0,0.0,0.0,0.0,0.0,0.0,0.0,0.0,0.0,0.0,0.0,0.0,0.0,0.0,0.0,0.0,0.0,0.0,0.0,0.0,0.0,0.0,0.0,0.0,0.0,0.0,0.0,0.0,0.0,0.0,0.0,0.0,0.0,0.0,0.0,0.0,0.0,0.0,0.0,0.0,0.0,0.0,0.0,0.0,0.0,0.0,0.0,0.0,0.0,0.0,0.0,0.0,0.0,0.0,0.0,0.0,0.0,0.0,0.0,N
0.8648164161754297,0.728333350322659,0.44525762175534966,0.0883231847686904,-0.259336246499295,-0.48338144113367665,-0.5006544896689373,-0.3475744019085016,-0.1281255353304068,0.0849467305483205,0.27612011185669977,0.3778619693353803,0.44746211669577296,0.4329876239645359,0.43853311582189464,0.5005781421588226,0.49957026823656225,0.5031903067826269,0.5063026697565844,0.5037692531664689,0.48524842844149374,0.49240597881932324,0.4784883791824606,0.448749573038232,0.46045104210678434,0.4356262046581352,0.4315319964093555,0.4222072858989458,0.4128947423982546,0.39843293801125756,0.39966334569557666,0.3542095571965968,0.3817279232344838,0.3626273424699192,0.3541485691500063,0.345917634534004,0.33275979220379687,0.31990055228404024,0.3281667402968435,0.32117265854136595,0.3197418922032539,0.32389244834297426,0.333640735311533,0.3385995558667508,0.3491840168246584,0.3446015736106775,0.3352638941229755,0.3263799301863802,0.35436291569907885,0.3308006190882869,0.3337108150617359,0.31628579075274105,0.33053503298450476,0.3036426135799544,0.3188207436510041,0.3032503241323484,0.2985325092953416,0.3046589926359431,0.2852130235292643,0.27138923790658576,0.2683758803067115,0.23455090073301074,0.22710977555341386,0.19922694707191305,0.18729161109117035,0.1704810435589236,0.1279715839648551,0.10135063617909018,0.08539602662458874,0.05408110270924304,0.03338871551552919,0.018095487327579547,0.023781845747835696,0.003616211115642182,-0.011218219156809652,-0.005141244934799108,-0.009380537942031053,-0.023957323091111284,-0.022886968816182438,-0.02179051212946717,-0.03628681578115038,-0.03518373483351944,-0.0080896493632494,-0.022624492974281787,-0.016382604117075823,0.015832904364552994,-0.003995413073366862,-0.01865926143706441,-0.012557910692300438,-0.011696802698772863,-0.010874227921833648,-0.02049034482699351,-0.019738320435280395,-0.003412354381378806,-0.007912715683305578,0.0031745537311926187,0.01945522605311363,0.009731085338799824,1.4742088652132002e-05,0.011117765082173091,0.011841792370437724,0.02819933013588445,0.0029869363044424755,0.01942784057312654,-0.016088506521768256,0.016067964101190404,0.017087141181742663,0.012982666691129175,-0.0014378612279455222,0.005040042112191601,0.022023053472256537,0.023514845216339602,0.014724937986093993,0.02686770017630539,0.03394650283688074,0.046371534137528106,0.017341888795252537,0.04568423550259632,0.0429894058856762,0.04567183672075245,0.043336812247810545,0.041192367544067424,0.03404433487173544,0.05310529198949117,0.04117076432131778,0.04505587307417269,0.04396262375005947,0.07430372029180514,0.058069799388740385,0.06287893204480224,0.0783340029328552,0.09403758233110347,0.08398886965132153,0.10540248316491953,0.12187474602046852,0.12820741274695402,0.12440262156510307,0.14686882111688096,0.14879794898359783,0.14579312518811854,0.15345672576356323,0.15098344631912397,0.15917515970413773,0.14682305319599284,0.15033042804741115,0.18009488606849022,0.17369937450058323,0.18834878061646226,0.19803123414447965,0.202738888396443,0.2128648926589326,0.22319840332767157,0.24413049167033476,0.24444316843880673,0.24492715438723045,0.2767739341848503,0.2775558926866479,0.2940648852528396,0.2898754904166312,0.2805707470415191,0.31293820300637804,0.3245431489614416,0.3257632137825323,0.33217539669519947,0.3593550681089235,0.38126799303242725,0.36667714663362166,0.4039664382463012,0.42548815185437583,0.41560248226428187,0.43148139975829963,0.4470789075587511,0.4363468514809593,0.46165172405872823,0.4813379747821701,0.4953556894065506,0.5192555261936763,0.5893896388887931,0.6952986473702708,0.7953142661754541,0.8841716848067526,0.8785872202131693,0.7524836922054713,0.48498052072379677,0.15401223153378488,-0.21449900515624584,-0.4698079556278138,-0.5131589394116641,-0.3705754778540788,-0.16685121044605764,0.040868337842927864,0.23186044436670064,0.375000196006451,0.41835754807926034,0.45042739366896617,0.4660846588931749,0.4706040038634678,0.4848607374645469,0.5037228502337359,0.5064529292082562,0.4983160081384367,0.494976574640903,0.48609165942488214,0.48211979057861454,0.49871805879751513,0.46312426206502655,0.4534025036729778,0.4435947099824526,0.4181425264729597,0.3978923321087602,0.38288444287959544,0.3991621506409049,0.3791489576474229,0.3488842455216211,0.33960649320665476,0.3513464768316211,0.33732433690390584,0.34437633237700144,0.0,0.0,0.0,0.0,0.0,0.0,0.0,0.0,0.0,0.0,0.0,0.0,0.0,0.0,0.0,0.0,0.0,0.0,0.0,0.0,0.0,0.0,0.0,0.0,0.0,0.0,0.0,0.0,0.0,0.0,0.0,0.0,0.0,0.0,0.0,0.0,0.0,0.0,0.0,0.0,0.0,0.0,0.0,0.0,0.0,0.0,0.0,0.0,0.0,0.0,0.0,0.0,0.0,0.0,0.0,0.0,0.0,0.0,0.0,0.0,0.0,0.0,0.0,0.0,0.0,0.0,0.0,0.0,0.0,0.0,0.0,0.0,0.0,0.0,0.0,0.0,0.0,0.0,0.0,0.0,0.0,0.0,N
0.8785872202131693,0.7524836922054713,0.48498052072379677,0.15401223153378488,-0.21449900515624584,-0.4698079556278138,-0.5131589394116641,-0.3705754778540788,-0.16685121044605764,0.040868337842927864,0.23186044436670064,0.375000196006451,0.41835754807926034,0.45042739366896617,0.4660846588931749,0.4706040038634678,0.4848607374645469,0.5037228502337359,0.5064529292082562,0.4983160081384367,0.494976574640903,0.48609165942488214,0.48211979057861454,0.49871805879751513,0.46312426206502655,0.4534025036729778,0.4435947099824526,0.4181425264729597,0.3978923321087602,0.38288444287959544,0.3991621506409049,0.3791489576474229,0.3488842455216211,0.33960649320665476,0.3513464768316211,0.33732433690390584,0.34437633237700144,0.34132213960063984,0.3333866645011933,0.32059211332886417,0.3341649837933626,0.3481192469236433,0.34166819598921355,0.3356313281871197,0.34562543930795636,0.3456577024619037,0.34614051409024715,0.3366805700838728,0.34849078015486995,0.3295664815649303,0.3163181512348636,0.33475263212212863,0.3276592965458804,0.31063974597871735,0.2992939435967551,0.29881831324643626,0.2780008308461831,0.28884386727039946,0.28973052821084383,0.29105240579465563,0.2563907059070878,0.2273400751534399,0.2246899059235952,0.18081157179404211,0.17370312872494734,0.17214087424371263,0.12409626510020944,0.09196174478031559,0.07051622643745116,0.03893518421989729,0.028403670349519915,0.01289561865207501,0.01319375852421213,-0.0019291757702296244,0.009113386980400106,0.009893305277374373,-0.004811649552138567,-0.02982176951655335,-0.00794695886285996,-0.012019115406737058,-0.010849520693337153,-0.025258245106566126,-0.008451418474731695,-0.02805461853323387,-0.03727077269233981,-0.020506101566386405,-0.02977619489743661,-0.03387880530035736,-0.017211835847915486,-0.010978908715619637,-0.004774066430799297,-0.003793287720871082,0.0023708814194743915,-0.0018787099694785442,-0.0009332663090223392,0.010414200326054139,0.0061648081284310895,0.007128560809032521,-0.007492513269031883,0.014317481531147492,0.004952312129391434,0.021629507429434206,0.03314968946043035,-0.0020886140269461605,0.014739771737267534,0.01082744878080044,0.006984820611013679,0.0032182643361376682,0.009936108271243188,0.006340706247249094,0.0028403208073631285,0.015044175856733542,0.006551550444187485,0.0033735651833333674,0.03152130793002738,0.028588967559280747,0.041391429714471,0.03352754804659047,0.02580689296967187,0.01823489499812074,0.016017848677349546,0.029562950443767444,0.02766937212076656,0.02074408224076044,0.01399291792383038,0.02822459176606155,0.053041788006119264,0.036439105235936284,0.040832724278883015,0.02981977551884114,0.06061506035456177,0.060408404449125624,0.08641415702710442,0.09182650396161343,0.07664813664422816,0.09289121798872137,0.08854766635874846,0.10002581777489387,0.12212562099563659,0.1236415593230081,0.12537743608565208,0.1325334572080004,0.1295052294654176,0.1110896830969256,0.12929402453558791,0.13730603652208986,0.13512179291623957,0.14354065330954927,0.14695435022626469,0.1713618430111386,0.16994745332056874,0.18431152811475668,0.1936416478309769,0.1979284436107501,0.19716157838735776,0.2121336977137502,0.2272295098766836,0.2320336555598973,0.23173261849599616,0.2523156945111941,0.24695711785200858,0.262447736364975,0.27276326019443553,0.28308404563888057,0.2985890851804995,0.3036519836193664,0.3294537903993749,0.3291591407224248,0.32874492543806777,0.35418638960015186,0.3586432316212937,0.3836902610951809,0.39288559841726733,0.4069963692518899,0.3947778041806762,0.40819898785095465,0.41081014890801376,0.4493753640497498,0.47703878074482375,0.556163153959982,0.676294950551463,0.7801689189704902,0.8313203984554204,0.7880798343345439,0.5983715292032151,0.29333173430516385,-0.09070529790805458,-0.4029849342031786,-0.544753854998363,-0.33920556116093753,-0.15038508075106405,0.058171248740726954,0.2397254873590293,0.33193642509577775,0.35567754236301724,0.3630266182834974,0.4060596535922561,0.42242898645086197,0.4330008137701628,0.448237234185131,0.44739222293383907,0.44092347246101876,0.46529140357764565,0.4425323850369554,0.4091023065755431,0.4066558383335506,0.4144336881539262,0.37006658607665255,0.37241397500289447,0.3591026624712636,0.37697844832540234,0.35326249638979135,0.35039990529893417,0.34761811832730505,0.3241428267498517,0.32160990053659033,0.3296436582886868,0.33266581749233193,0.0,0.0,0.0,0.0,0.0,0.0,0.0,0.0,0.0,0.0,0.0,0.0,0.0,0.0,0.0,0.0,0.0,0.0,0.0,0.0,0.0,0.0,0.0,0.0,0.0,0.0,0.0,0.0,0.0,0.0,0.0,0.0,0.0,0.0,0.0,0.0,0.0,0.0,0.0,0.0,0.0,0.0,0.0,0.0,0.0,0.0,0.0,0.0,0.0,0.0,0.0,0.0,0.0,0.0,0.0,0.0,0.0,0.0,0.0,0.0,0.0,0.0,0.0,0.0,0.0,0.0,0.0,0.0,0.0,0.0,0.0,0.0,0.0,0.0,0.0,0.0,0.0,0.0,0.0,0.0,0.0,0.0,N
0.7880798343345439,0.5983715292032151,0.29333173430516385,-0.09070529790805458,-0.4029849342031786,-0.544753854998363,-0.33920556116093753,-0.15038508075106405,0.058171248740726954,0.2397254873590293,0.33193642509577775,0.35567754236301724,0.3630266182834974,0.4060596535922561,0.42242898645086197,0.4330008137701628,0.448237234185131,0.44739222293383907,0.44092347246101876,0.46529140357764565,0.4425323850369554,0.4091023065755431,0.4066558383335506,0.4144336881539262,0.37006658607665255,0.37241397500289447,0.3591026624712636,0.37697844832540234,0.35326249638979135,0.35039990529893417,0.34761811832730505,0.3241428267498517,0.32160990053659033,0.3296436582886868,0.33266581749233193,0.3254984335463689,0.3341678569133835,0.29628192845077456,0.3106776032062795,0.30975857672289847,0.32994685246505,0.3192460029912496,0.30887384017329805,0.3040416143256223,0.3047580383279771,0.32663328404846015,0.31246209664837393,0.3142584424975067,0.30601982967308744,0.29814914641843504,0.3062487439431915,0.3043115381874932,0.28713288610964366,0.2963155606995008,0.2954460033004164,0.26371215287435384,0.253114374069864,0.2532397961890726,0.23807130376582009,0.233600445789683,0.2242096363699455,0.2254860800064931,0.18540295029989717,0.15075116166429162,0.1215117639098134,0.0820620738943762,0.06358773850631928,0.0400630706034238,0.027070009628551987,-0.0014176498145605332,-0.014215324752037559,-0.021746242057044035,-0.03963327121236525,-0.05229125741496094,-0.04413128070102564,-0.0515693840920167,0.0,0.0,0.0,0.0,0.0,0.0,0.0,0.0,0.0,0.0,0.0,0.0,0.0,0.0,0.0,0.0,0.0,0.0,0.0,0.0,0.0,0.0,0.0,0.0,0.0,0.0,0.0,0.0,0.0,0.0,0.0,0.0,0.0,0.0,0.0,0.0,0.0,0.0,0.0,0.0,0.0,0.0,0.0,0.0,0.0,0.0,0.0,0.0,0.0,0.0,0.0,0.0,0.0,0.0,0.0,0.0,0.0,0.0,0.0,0.0,0.0,0.0,0.0,0.0,0.0,0.0,0.0,0.0,0.0,0.0,0.0,0.0,0.0,0.0,0.0,0.0,0.0,0.0,0.0,0.0,0.0,0.0,0.0,0.0,0.0,0.0,0.0,0.0,0.0,0.0,0.0,0.0,0.0,0.0,0.0,0.0,0.0,0.0,0.0,0.0,0.0,0.0,0.0,0.0,0.0,0.0,0.0,0.0,0.0,0.0,0.0,0.0,0.0,0.0,0.0,0.0,0.0,0.0,0.0,0.0,0.0,0.0,0.0,0.0,0.0,0.0,0.0,0.0,0.0,0.0,0.0,0.0,0.0,0.0,0.0,0.0,0.0,0.0,0.0,0.0,0.0,0.0,0.0,0.0,0.0,0.0,0.0,0.0,0.0,0.0,0.0,0.0,0.0,0.0,0.0,0.0,0.0,0.0,0.0,0.0,0.0,0.0,0.0,0.0,0.0,0.0,0.0,0.0,0.0,0.0,0.0,0.0,0.0,0.0,0.0,0.0,0.0,0.0,0.0,0.0,0.0,0.0,0.0,0.0,0.0,0.0,0.0,0.0,0.0,0.0,0.0,0.0,0.0,0.0,0.0,0.0,0.0,0.0,0.0,0.0,0.0,0.0,0.0,0.0,0.0,0.0,0.0,0.0,0.0,0.0,0.0,0.0,0.0,0.0,0.0,0.0,0.0,0.0,0.0,0.0,0.0,0.0,0.0,0.0,N
0.2572798989860237,0.2695713555185893,0.2990931459667406,0.3003697958062334,0.31315917442670904,0.32607674574106044,0.3334187304916159,0.3408443642875906,0.36537586089516216,0.36152818098030265,0.39177858821052497,0.4049560861062841,0.40102862292286245,0.4026914126363427,0.46104927720623146,0.4567353463757418,0.45789709127685363,0.4588095052358154,0.5105685183464953,0.49379808789600527,0.5277771685917871,0.5272186316397671,0.5432084523674124,0.5756890663812632,0.6416471611215202,0.7580665455830528,0.9135162073983857,0.9772325687358545,0.9718701950660649,0.8234792810665481,0.5376576788181678,0.16545770400784363,-0.26480030646712993,-0.5315978737375178,-0.5440847832870466,-0.38182999756066804,-0.16980937195138238,0.06931931925311631,0.290185143154239,0.413322884504954,0.45018303913743657,0.4917665530237468,0.50406102346398,0.5155571378038504,0.5206491273321091,0.5648695491795866,0.5460079689734777,0.5436854520030762,0.5352385262622931,0.52073029181901,0.5172681404244002,0.5192275696769468,0.49256987770789235,0.47712396063963064,0.45589302549209015,0.47438344254378045,0.44740588222600686,0.43750903131086144,0.42768682278671766,0.39524867947148445,0.38568975725264937,0.39336233214653327,0.3728404933435172,0.3639312026019366,0.3552986538498909,0.35265218923538927,0.36169937441317174,0.3540520760251863,0.3581435784695851,0.3683114601322946,0.33343292767888716,0.35580605710094165,0.37293990109147607,0.3564356690650689,0.351762899865793,0.35893076915691435,0.36658204853658427,0.3463107470731852,0.3606262029297798,0.35270724758423405,0.33391878088709154,0.3440355522791962,0.3375958022278725,0.3259592772757602,0.3261663586117955,0.3154795392513748,0.2938889718793317,0.30115949015995774,0.28045497368245415,0.26585495824349453,0.25734364161303774,0.21512763390909784,0.19032942053640367,0.18292950763374544,0.14176654606504166,0.11227775667690314,0.08875874785544131,0.059822243972676596,0.03680981610812085,0.031062736230066085,0.0027811886299546865,0.008764686915778431,-0.0191983669671829,-0.0015792266390845934,-0.012270032758527212,-0.005834000826119573,-0.016385697443665824,-0.021215908729814905,-0.02602547728849702,-0.019466262336390015,-0.018599263796367765,-0.006389696544536106,-0.02262423478001695,-0.0332187515517608,-0.015451615857029324,-0.026150557665994233,-0.03690699966570582,-0.013627557614928525,-0.013132503112381374,-0.012688296384502851,-0.0009247953205513397,-0.006246910798782363,-0.00023623958881934407,6.763399377880811e-05,0.017401406453367785,0.00631390245244134,0.006588699026076022,0.018233083262682453,0.007160373555330106,0.013153991260671847,0.00212712780449308,0.013863102971622673,0.014275031782250746,0.026099186194129296,0.009566217911467032,0.004459164896849111,-0.0005798863459979316,0.02286738676798167,-0.01042709059310687,0.0018251390370609716,0.014173135440416616,0.009577562399734665,0.022139916459881594,0.04050306527545052,0.019215830049606253,0.02079095935103299,0.01682394366434196,0.013004105271193712,0.009338359708222792,0.011515880116845094,0.030908115571985643,0.010698586065476839,0.019081754805342018,0.027652546876443723,0.025052759830793515,0.034017988709514564,0.03182512228746958,0.04120946025203903,0.03944756216253064,0.05495668515871989,0.0706953081401101,0.05825698997216344,0.06878745279810877,0.09092657859784073,0.11331390541399,0.1075415487803712,0.10202428391434862,0.14222331620146564,0.12585895264784672,0.15521440365411138,0.13937328106565502,0.15788809941508497,0.1482526107359114,0.1388769396260701,0.15248814679513553,0.1549893723149072,0.16910622006952747,0.1777872606191233,0.18670950949395204,0.19018444803735252,0.18252262404511618,0.19780989276794778,0.20762564796504748,0.21195990747268983,0.23353094150014034,0.2382327342040503,0.23741668308882494,0.2594799623711213,0.2646306876804889,0.2755812261250498,0.2979956537835645,0.3034427330768169,0.30894831744978307,0.33153674313377357,0.33708989799074257,0.36535820632792804,0.38222021287407826,0.3990112165693713,0.38728834687576674,0.3811122870775259,0.4145417840171753,0.442081162221499,0.43527964138428366,0.44523674754781234,0.4832735719790075,0.48115646300674614,0.48429580509819853,0.49832331856106626,0.580009205851794,0.7008863384306188,0.8097553972105169,0.9292837528017722,0.9741705971568371,0.8818397663106295,0.6522157743234669,0.3249949844339876,-0.09422343694988736,-0.44073691488654454,-0.5555162458331676,-0.43291306712333294,0.0,0.0,0.0,0.0,0.0,0.0,0.0,0.0,0.0,0.0,0.0,0.0,0.0,0.0,0.0,0.0,0.0,0.0,0.0,0.0,0.0,0.0,0.0,0.0,0.0,0.0,0.0,0.0,0.0,0.0,0.0,0.0,0.0,0.0,0.0,0.0,0.0,0.0,0.0,0.0,0.0,0.0,0.0,0.0,0.0,0.0,0.0,0.0,0.0,0.0,0.0,0.0,0.0,0.0,0.0,0.0,0.0,0.0,0.0,0.0,0.0,0.0,0.0,0.0,0.0,0.0,0.0,0.0,0.0,0.0,0.0,0.0,0.0,0.0,0.0,0.0,0.0,0.0,0.0,0.0,N
0.8818397663106295,0.6522157743234669,0.3249949844339876,-0.09422343694988736,-0.44073691488654454,-0.5555162458331676,-0.43291306712333294,-0.21496663030526206,0.030195133943200038,0.24582936202470307,0.3808753619915345,0.41836514850101736,0.437928316463895,0.44532217483616865,0.46903113343348735,0.48639647183285695,0.5031687375821543,0.5080490783709738,0.48973612604522226,0.4937491984584908,0.4746880027788175,0.4610199715572479,0.46416319602889033,0.4387102360759187,0.4358508153947569,0.4215376247510339,0.4242267245346856,0.41554884119444746,0.40690883842258596,0.3756155664153154,0.38989300282958034,0.347493568485263,0.35073134924830784,0.33713133738289397,0.3408162561266848,0.33340159418227255,0.34332436242404524,0.33083203321472787,0.32435823379892564,0.35233493726107745,0.35795765551483816,0.34692568767756077,0.3419835109542436,0.343144577420216,0.3390559839826371,0.32404543445108674,0.34926216360830153,0.35220733350369243,0.3499328766301596,0.3367596739427051,0.32973614723317857,0.2947681308672908,0.3227709082867853,0.3114593198322902,0.30060465762258415,0.2845180754773853,0.3029678051955848,0.2820742034795431,0.26728488732405586,0.25858748235043966,0.2502859551302673,0.2366829792976992,0.20639765443181282,0.17077718719801993,0.14685007489876767,0.1175500251987211,0.10558626988932464,0.07684422675882015,0.04266736666656145,0.05985735725322997,0.03747526456467434,0.01527527574203337,0.010282100048892307,-0.028667501131234407,-0.00499642956733298,-0.015323832876243096,-0.0028456731306885402,-0.018720586520115448,-0.01750745426479228,-0.016268928007652377,-0.009336705682243217,-0.025134875425797627,-0.023898766884816347,-0.017002225520403737,-0.010134503785502517,-0.020347884172246096,-0.019235105392446827,-0.018163231486074415,-0.011450531282163274,-0.021825161229295023,-0.00950864109719516,-0.002908288768964468,-0.007701228305568828,0.0045296282713049646,0.005378874303582389,0.0175819841128166,0.01841582412372791,0.02493343122826977,0.008729169236813654,-0.0017794964543483825,0.01614253327992188,0.017042655113233687,0.012291411259606647,0.0132592587197848,0.002904979910917536,-0.0017187732942932638,0.022122959077262357,0.011930460902542248,0.0018033900739392852,0.008794376955618813,0.0158621071429498,0.011647544884724127,0.0018385429951209575,0.020534509177133408,0.01660000256142457,0.007087351109803664,-0.013680490717163532,0.022489590233332944,0.0019576827508756994,0.021329700313480027,0.006741867851517322,0.0036590787783185442,-0.0049593560805089735,0.020669082058324916,0.023727898486707595,0.03263533453073123,0.01898628662391888,0.045292650028043654,0.03200815944075378,0.05300903397975448,0.05716023496518498,0.06151433017570668,0.04334734321165242,0.08789911998254997,0.08721032040075014,0.08674387576631094,0.07513905507461174,0.08081095197880667,0.11512731656085151,0.12126762334425008,0.12764561059553844,0.15699208761782826,0.16384935398248615,0.15389982792820964,0.14418975369754167,0.15176460603388547,0.15957520298002972,0.15057160375573295,0.17020861858312306,0.17870546544669405,0.18742141491561615,0.1963501987811168,0.18275532122611823,0.19776949881154832,0.20728969494211377,0.21698814255218085,0.21548907025171798,0.22550955746182685,0.2413539930317195,0.25164331563751297,0.262044225061282,0.2952691307444462,0.2774296472770694,0.2994232690374841,0.31008803762309456,0.3150837237680365,0.3200685477662576,0.3363814771183939,0.3696775563570352,0.39151621235553924,0.37913734622479,0.3893314182489166,0.39365215364570205,0.40910991197829943,0.41293682617193955,0.444868532480678,0.4537214404695167,0.4394506389885639,0.47587914240972506,0.5004520248443265,0.5869877240153666,0.7013380455048733,0.8320811504574858,0.9166507896998457,0.8811119084022275,0.7879006114883409,0.4892026611859703,0.14972762461176353,-0.21355776538893625,-0.4757233947280639,-0.5231835065804575,-0.3332243124033784,-0.12173987148388483,0.07724173721048888,0.27516258100246105,0.392547179001141,0.4124242233811171,0.4257845734619288,0.44406450968769084,0.46733353832903535,0.467247332207508,0.4836470989806548,0.4825015159403603,0.46955310052016824,0.46190660289665764,0.45961745760498174,0.44569182177135636,0.43154516756124717,0.41722609343039574,0.4141456853593211,0.38825436219561377,0.37937066618743703,0.3761702946833742,0.37300937080398505,0.3756067820689712,0.3499032925740265,0.3300256598846267,0.3273696015485534,0.32491757185875075,0.33406200138669345,0.0,0.0,0.0,0.0,0.0,0.0,0.0,0.0,0.0,0.0,0.0,0.0,0.0,0.0,0.0,0.0,0.0,0.0,0.0,0.0,0.0,0.0,0.0,0.0,0.0,0.0,0.0,0.0,0.0,0.0,0.0,0.0,0.0,0.0,0.0,0.0,0.0,0.0,0.0,0.0,0.0,0.0,0.0,0.0,0.0,0.0,0.0,0.0,0.0,0.0,0.0,0.0,0.0,0.0,0.0,0.0,0.0,0.0,0.0,0.0,0.0,0.0,0.0,0.0,0.0,0.0,0.0,0.0,0.0,0.0,0.0,0.0,0.0,0.0,0.0,0.0,0.0,0.0,0.0,0.0,N
0.7879006114883409,0.4892026611859703,0.14972762461176353,-0.21355776538893625,-0.4757233947280639,-0.5231835065804575,-0.3332243124033784,-0.12173987148388483,0.07724173721048888,0.27516258100246105,0.392547179001141,0.4124242233811171,0.4257845734619288,0.44406450968769084,0.46733353832903535,0.467247332207508,0.4836470989806548,0.4825015159403603,0.46955310052016824,0.46190660289665764,0.45961745760498174,0.44569182177135636,0.43154516756124717,0.41722609343039574,0.4141456853593211,0.38825436219561377,0.37937066618743703,0.3761702946833742,0.37300937080398505,0.3756067820689712,0.3499032925740265,0.3300256598846267,0.3273696015485534,0.32491757185875075,0.33406200138669345,0.3207351151135355,0.33041998446473125,0.33472788306115986,0.3166330776743933,0.3272960329402804,0.32695846832435893,0.3042720799385403,0.3217571232313938,0.32260355715962824,0.30682295814741295,0.30851922535297716,0.29928917494137525,0.313233629359919,0.3276286883569691,0.33679585338866214,0.33505498776769294,0.3224065934527972,0.31021414237838707,0.30983949444590747,0.3155959906101684,0.2933838095019693,0.27728942327584877,0.2843508692913746,0.2747815722079219,0.2712990838089035,0.22274938784087173,0.2484467903141897,0.2006353201028212,0.1758976367350079,0.16285126668154548,0.14443053429973826,0.09220430443994193,0.08002252705537893,0.06240591594628823,0.03365104317742738,0.033512749786435585,0.0449224823026597,0.022399906565159267,0.011381625805505023,0.0004809050026585752,-0.004642079896624576,-0.03242109110195984,-0.014689965195142223,-0.01397287913638839,-0.03596938808614476,-0.035236816153570605,-0.011787651358418404,-0.022454260475982483,-0.03315072844975569,-0.026835974944408664,-0.009195060806640586,-0.020004433217377226,-0.008122503821845147,-0.001958300598422549,-0.0185554346370092,-0.0067694594852559875,-0.0006890053041383716,-0.011672768654750055,0.005743845610395889,0.0004270569215781701,-0.004886749881152836,0.006856485281660963,0.0015703831029473961,-0.0036905663790231806,0.019492764272719558,0.008622691094029156,0.03189485303901427,0.00976445769032859,0.004744618789052508,-0.00020411550032948408,0.01765503764072696,0.02423565416866199,-0.00886645560996475,0.014955495189904385,0.021839457007379787,0.03452279013432634,0.013237196786939512,0.026178336448309872,0.01653070465877535,0.018395828071914422,0.02609889231062859,0.0112357005174483,0.00790747421882682,0.004756797760253443,0.013155506451077126,0.010381476064812038,0.013488774974593831,0.045213742271485516,0.014646197096521802,0.029757024407794572,0.039412002423795424,0.03225301895504762,0.042380345754523645,0.06980015755825522,0.057695190947468604,0.0799412538846787,0.06267347759844623,0.09681394974498499,0.08008547535265993,0.10340934464054816,0.09860141389173521,0.09975882959812146,0.11824895474330721,0.13134471776489864,0.13336542373165133,0.15272365674057795,0.15532578518318824,0.18662993058701546,0.17276466271920593,0.15918639332871418,0.17430370246525798,0.19538347061881942,0.19400938413556057,0.19858737869736712,0.18638151631143487,0.19716041492645064,0.21955085695575063,0.24217863901059625,0.2138922015708105,0.21991451723040537,0.2545503271174622,0.26664469178501493,0.26754694791284583,0.2742874215825862,0.28116581063989665,0.27679811886802247,0.30662217047423246,0.3478865341715086,0.3494266324354427,0.35667563293918575,0.375288697845573,0.37682527018742884,0.4010307880577799,0.40241396604368757,0.40935170770727214,0.444536581915516,0.4397419487719402,0.4517500434539247,0.4521060630494908,0.4578115268989031,0.4801833711868036,0.5078069525389689,0.5065359361630888,0.5274562876117056,0.5989221492564494,0.6810971546838206,0.7909651691226495,0.8830011034376087,0.9287228815434483,0.8655500765975542,0.6308976181429053,0.3099164962300963,-0.09179797033267648,-0.4379585919376211,-0.5468108771673031,-0.458169310925053,-0.2629373347086385,-0.04061021868067483,0.18616497229609755,0.36633341820317405,0.44883936819718884,0.47354240177260737,0.4746175316017465,0.49760204789552953,0.5084783510229137,0.5186849343450788,0.5510223940820644,0.5430538936496235,0.5289393259817688,0.5201065782418142,0.49388695714459696,0.47875007249983254,0.4861160968065274,0.46489725993494113,0.4435558779291565,0.43350497447103353,0.42910838758711956,0.43041011040439703,0.409040377381372,0.3991328198043828,0.4007250880060349,0.37407657827768054,0.37036184529015487,0.3612010565770943,0.3750357541159851,0.0,0.0,0.0,0.0,0.0,0.0,0.0,0.0,0.0,0.0,0.0,0.0,0.0,0.0,0.0,0.0,0.0,0.0,0.0,0.0,0.0,0.0,0.0,0.0,0.0,0.0,0.0,0.0,0.0,0.0,0.0,0.0,0.0,0.0,0.0,0.0,0.0,0.0,0.0,0.0,0.0,0.0,0.0,0.0,0.0,0.0,0.0,0.0,0.0,0.0,0.0,0.0,0.0,0.0,0.0,0.0,0.0,0.0,0.0,0.0,0.0,0.0,0.0,0.0,0.0,0.0,0.0,0.0,0.0,0.0,0.0,0.0,0.0,0.0,0.0,0.0,0.0,0.0,0.0,0.0,N
0.8655500765975542,0.6308976181429053,0.3099164962300963,-0.09179797033267648,-0.4379585919376211,-0.5468108771673031,-0.458169310925053,-0.2629373347086385,-0.04061021868067483,0.18616497229609755,0.36633341820317405,0.44883936819718884,0.47354240177260737,0.4746175316017465,0.49760204789552953,0.5084783510229137,0.5186849343450788,0.5510223940820644,0.5430538936496235,0.5289393259817688,0.5201065782418142,0.49388695714459696,0.47875007249983254,0.4861160968065274,0.46489725993494113,0.4435558779291565,0.43350497447103353,0.42910838758711956,0.43041011040439703,0.409040377381372,0.3991328198043828,0.4007250880060349,0.37407657827768054,0.37036184529015487,0.3612010565770943,0.3750357541159851,0.37211780237533887,0.3922497073992038,0.3615856621364627,0.354018286545461,0.3695681985272336,0.3514310196383058,0.3507646534750561,0.3448550523497652,0.35076267312859993,0.3628169579012346,0.36398094969336275,0.36562749057242666,0.3563983121998893,0.3647095764769149,0.35647011443472165,0.3657748050603378,0.3528465508612197,0.36882358747572075,0.34551361117797935,0.3624628623821957,0.33442849780059164,0.3409532179649994,0.2797437272549171,0.2928448981719826,0.27796033161096784,0.25212093937361496,0.23235624346000827,0.21296521476430433,0.18256333977413508,0.1468120080269815,0.12273634149424119,0.09894911496073323,0.08110945740549227,0.05782903518605527,0.03476607698859518,0.02326084497941661,0.0005594917425930863,0.012095925061665427,-0.016024725208745427,0.0014076438149710142,-0.015182698768602162,-0.014678070517024657,-0.025511863385780726,-0.03065749391119389,-0.024450600253181534,-0.04668248911220081,-0.03486033712614674,-0.023086370726679042,-0.022730214112199942,-0.02811233039996947,-0.01082173283567624,-0.010632635497312921,-0.027541966021099158,-0.004722415689805603,-0.004672834430892032,0.012390183713210396,-0.010348996010888935,0.006669672699884934,0.00663147629584387,0.006591862007936039,0.006559276033805106,0.006542131611784745,-0.004815836066786876,0.012269979106539453,-0.0046971665108988085,0.006797019845109077,0.012667792539361926,0.018606630328713004,0.013257980755129977,0.025042456704582522,0.014192733269444589,0.020493877084113994,0.009860689690322543,0.005031096413493242,0.023060650650293044,0.03554629963944546,0.01976719794172839,0.015507871264805998,0.039823455979122006,0.03021649416145639,0.02647113602684739,0.03995976758132404,0.03659606147277388,0.02206974892740033,0.030481991317637746,0.04479293603940681,0.03659793282805629,0.045679978957946815,0.03795169458477516,0.0588779882186507,0.06300641660628713,0.03897817785630316,0.05498667179954181,0.06557865086980348,0.08780614144591393,0.09326226101098324,0.09331594639456794,0.10501799074022718,0.09996013960932676,0.11223916235166317,0.11344577963795051,0.12631105457086006,0.16220083777354968,0.15292783155959688,0.1609973476204668,0.15799677100354392,0.18370055327316687,0.17560054875428086,0.16210485527398774,0.17730301528195305,0.17004892132395089,0.1914773866862171,0.19044056715484278,0.2010245005086005,0.21185569132096585,0.23428892954414238,0.2342193648494155,0.22299955646588432,0.25175715090297734,0.2693368724168025,0.2643584448548671,0.2652165037574698,0.3059866854979928,0.3070968478611457,0.32534906170559497,0.3152620551502294,0.3620463499507059,0.35202959966663655,0.36473661688634484,0.3830909694199253,0.40706136927031106,0.4138853224843569,0.42625688080453306,0.44982105867077393,0.46180912611207164,0.4792263624292787,0.4849818021257706,0.4960760193249568,0.501095550114698,0.5113537407039883,0.5495260770746873,0.5928269074374888,0.6696087360004706,0.79117413496125,0.8949521343447642,0.9581440666824291,0.9068058861172199,0.7124473370742392,0.37498524307569786,-0.026114617838572187,-0.3716120841778003,-0.5479468361878287,-0.5040287998448871,-0.2966799760566133,-0.08495629025019721,0.13121955025351129,0.3235212958546979,0.44089275035456604,0.46068771307437845,0.47390423137779875,0.491985532435618,0.5036431833962391,0.5259979046069412,0.5477562850725475,0.5576222838083583,0.5215678305470172,0.5305731646665178,0.5221932068223937,0.502168096308047,0.4876000067014609,0.4728593102389064,0.463678586407236,0.47147037302205874,0.43945701800235965,0.4245049644214117,0.4039259413130906,0.423217426690142,0.39718145855352815,0.3883583470750777,0.37973389976501887,0.3713389502177673,0.36888475598354786,0.35535142741660325,0.35917581144985783,0.0,0.0,0.0,0.0,0.0,0.0,0.0,0.0,0.0,0.0,0.0,0.0,0.0,0.0,0.0,0.0,0.0,0.0,0.0,0.0,0.0,0.0,0.0,0.0,0.0,0.0,0.0,0.0,0.0,0.0,0.0,0.0,0.0,0.0,0.0,0.0,0.0,0.0,0.0,0.0,0.0,0.0,0.0,0.0,0.0,0.0,0.0,0.0,0.0,0.0,0.0,0.0,0.0,0.0,0.0,0.0,0.0,0.0,0.0,0.0,0.0,0.0,0.0,0.0,0.0,0.0,0.0,0.0,0.0,0.0,0.0,0.0,0.0,0.0,0.0,0.0,0.0,0.0,0.0,0.0,N
