0.21234894006091803,0.20120938075012387,0.19232988414080812,0.18543642810966815,0.17962004475166712,0.17410396303790895,0.16839177116834192,0.16200061583105385,0.15550350031810847,0.14898214196761242,0.1424025762017897,0.13557416158656,0.12792776127835345,0.11952745787832808,0.11002988041961981,0.09927419008221132,0.08744070408052414,0.07489095318756879,0.06291544009568933,0.052497482414108336,0.044466181401976626,0.03930724657448828,0.036847180137636056,0.03694935383454788,0.038696386782373665,0.04096685828987471,0.04276512908397196,0.04336569880986004,0.04312031654495844,0.04269709363408254,0.04325767502421131,0.04622301159345565,0.052813095644621284,0.06420019943135603,0.08054891691312077,0.10112850981959284,0.12437305402532817,0.14787324950434777,0.16954166357683448,0.18702024597570674,0.1983987331000217,0.20252309645720068,0.1988282161750383,0.18848424130745794,0.1729514734312444,0.15415235899116297,0.13416801857919908,0.114688334162403,0.09756100612129583,0.0836707459727782,0.07321670367434557,0.06581294070119745,0.06054442045702569,0.05669701983770884,0.053388662691637896,0.04995976553740223,0.046082908565508035,0.04165864625313359,0.03713827449038878,0.03289150210885894,0.0292384230649019,0.0,0.0,0.0,0.0,0.0,0.0,0.0,0.0,0.0,0.0,0.0,0.0,0.0,0.0,0.0,0.0,0.0,0.0,0.0,0.0,0.0,0.0,0.0,0.0,0.0,0.0,0.0,0.0,0.0,0.0,0.0,0.0,0.0,0.0,0.0,0.0,0.0,0.0,0.0,0.0,0.0,0.0,0.0,0.0,0.0,0.0,0.0,0.0,0.0,0.0,0.0,0.0,0.0,0.0,0.0,0.0,0.0,0.0,0.0,0.0,0.0,0.0,0.0,0.0,0.0,0.0,0.0,0.0,0.0,0.0,0.0,0.0,0.0,0.0,0.0,0.0,0.0,0.0,0.0,0.0,0.0,0.0,0.0,0.0,0.0,0.0,0.0,0.0,0.0,0.0,0.0,0.0,0.0,0.0,0.0,0.0,0.0,0.0,0.0,0.0,0.0,0.0,0.0,0.0,0.0,0.0,0.0,0.0,0.0,0.0,0.0,0.0,0.0,0.0,0.0,0.0,0.0,0.0,0.0,0.0,0.0,0.0,0.0,0.0,0.0,0.0,0.0,0.0,0.0,0.0,0.0,0.0,0.0,0.0,0.0,0.0,0.0,0.0,0.0,0.0,0.0,0.0,0.0,0.0,0.0,0.0,0.0,0.0,0.0,0.0,0.0,0.0,0.0,0.0,0.0,0.0,0.0,0.0,0.0,0.0,0.0,0.0,0.0,0.0,0.0,0.0,0.0,0.0,0.0,0.0,0.0,0.0,0.0,0.0,0.0,0.0,0.0,0.0,0.0,0.0,0.0,0.0,0.0,0.0,0.0,0.0,0.0,0.0,0.0,0.0,0.0,0.0,0.0,0.0,0.0,0.0,0.0,0.0,0.0,0.0,0.0,0.0,0.0,0.0,0.0,0.0,0.0,0.0,0.0,0.0,0.0,0.0,0.0,0.0,0.0,0.0,0.0,0.0,0.0,0.0,0.0,0.0,0.0,0.0,0.0,0.0,0.0,0.0,0.0,0.0,0.0,0.0,0.0,0.0,0.0,0.0,0.0,0.0,0.0
0.053388662691637896,0.04995976553740223,0.046082908565508035,0.04165864625313359,0.03713827449038878,0.03289150210885894,0.0292384230649019,0.02635287642981862,0.024134911660700205,0.022549989435104032,0.021310556817951323,0.020116592600682246,0.018758973620199078,0.017117263861437436,0.015380996572777021,0.013723374516912582,0.01230078208241899,0.011165070810579535,0.010171010901390904,0.009107796099114584,0.007627628993959472,0.005417686078120921,0.0023517266040649124,-0.0013877441462122012,-0.005186301724602855,-0.008100938249746743,-0.008940226799237573,-0.006461617602449708,0.0003934919212734936,0.012218335942426085,0.028911554750469613,0.04961255677494626,0.07275782358257334,0.0961684229797851,0.11770943591763328,0.13521975954929036,0.14698134654405048,0.15197726476759638,0.1498013318419251,0.14140586782780704,0.12816253617186024,0.11187533676514316,0.09448783485702886,0.07764208125825955,0.06291758561682824,0.05116064022968129,0.0426145505037505,0.03699840494646134,0.033603340851106604,0.03170680027553951,0.0305271728313809,0.029450179796159024,0.028112210359761813,0.026379812018029237,0.02440470985819286,0.022403597147807628,0.020613963747227952,0.019226015773062283,0.018350454935293792,0.018012672185519954,0.01814338196917607,0.0,0.0,0.0,0.0,0.0,0.0,0.0,0.0,0.0,0.0,0.0,0.0,0.0,0.0,0.0,0.0,0.0,0.0,0.0,0.0,0.0,0.0,0.0,0.0,0.0,0.0,0.0,0.0,0.0,0.0,0.0,0.0,0.0,0.0,0.0,0.0,0.0,0.0,0.0,0.0,0.0,0.0,0.0,0.0,0.0,0.0,0.0,0.0,0.0,0.0,0.0,0.0,0.0,0.0,0.0,0.0,0.0,0.0,0.0,0.0,0.0,0.0,0.0,0.0,0.0,0.0,0.0,0.0,0.0,0.0,0.0,0.0,0.0,0.0,0.0,0.0,0.0,0.0,0.0,0.0,0.0,0.0,0.0,0.0,0.0,0.0,0.0,0.0,0.0,0.0,0.0,0.0,0.0,0.0,0.0,0.0,0.0,0.0,0.0,0.0,0.0,0.0,0.0,0.0,0.0,0.0,0.0,0.0,0.0,0.0,0.0,0.0,0.0,0.0,0.0,0.0,0.0,0.0,0.0,0.0,0.0,0.0,0.0,0.0,0.0,0.0,0.0,0.0,0.0,0.0,0.0,0.0,0.0,0.0,0.0,0.0,0.0,0.0,0.0,0.0,0.0,0.0,0.0,0.0,0.0,0.0,0.0,0.0,0.0,0.0,0.0,0.0,0.0,0.0,0.0,0.0,0.0,0.0,0.0,0.0,0.0,0.0,0.0,0.0,0.0,0.0,0.0,0.0,0.0,0.0,0.0,0.0,0.0,0.0,0.0,0.0,0.0,0.0,0.0,0.0,0.0,0.0,0.0,0.0,0.0,0.0,0.0,0.0,0.0,0.0,0.0,0.0,0.0,0.0,0.0,0.0,0.0,0.0,0.0,0.0,0.0,0.0,0.0,0.0,0.0,0.0,0.0,0.0,0.0,0.0,0.0,0.0,0.0,0.0,0.0,0.0,0.0,0.0,0.0,0.0,0.0,0.0,0.0,0.0,0.0,0.0,0.0,0.0,0.0,0.0,0.0,0.0,0.0,0.0,0.0,0.0,0.0,0.0,0.0
0.12909310435646743,0.13514357169653266,0.13384320194265453,0.1263493637518832,0.11425619142954495,0.09949405495228698,0.08399621912637055,0.06926307531093476,0.056563184275210766,0.0464030707250344,0.038685507577232985,0.03284886655620845,0.028006061366771952,0.023405782693188985,0.018418267416004008,0.012727248165342181,0.006366673708502677,-0.0003783114412559948,-0.006929694201220311,-0.012706139939517498,-0.01720926565692261,-0.020115519139203102,-0.021339295302695675,-0.02093976576418163,-0.01915830104712595,-0.01633915302878839,-0.012891719315034168,-0.009314178432880542,-0.0061105275529639335,-0.003918944486944921,-0.003493362960016043,-0.0056679194908652395,-0.011294503254838278,-0.020953178089770624,-0.034863457074589314,-0.052656275342157735,-0.07324661327303,-0.09484749383097493,-0.11504336070834416,-0.13111023875170194,-0.14040866231406893,-0.14082530705519478,-0.13117802444774257,-0.11147783019517028,-0.08296369125977693,-0.04800087054392959,-0.00976663489987807,0.028063436615348922,0.06226391690030956,0.09014902707201267,0.11001576547822615,0.12129203725543865,0.12421721397657969,0.12049702870739587,0.11216695118706672,0.10144201200495619,0.09034039420772264,0.08019097025373845,0.07206533825823015,0.06619261329697777,0.062216508053395736,0.0,0.0,0.0,0.0,0.0,0.0,0.0,0.0,0.0,0.0,0.0,0.0,0.0,0.0,0.0,0.0,0.0,0.0,0.0,0.0,0.0,0.0,0.0,0.0,0.0,0.0,0.0,0.0,0.0,0.0,0.0,0.0,0.0,0.0,0.0,0.0,0.0,0.0,0.0,0.0,0.0,0.0,0.0,0.0,0.0,0.0,0.0,0.0,0.0,0.0,0.0,0.0,0.0,0.0,0.0,0.0,0.0,0.0,0.0,0.0,0.0,0.0,0.0,0.0,0.0,0.0,0.0,0.0,0.0,0.0,0.0,0.0,0.0,0.0,0.0,0.0,0.0,0.0,0.0,0.0,0.0,0.0,0.0,0.0,0.0,0.0,0.0,0.0,0.0,0.0,0.0,0.0,0.0,0.0,0.0,0.0,0.0,0.0,0.0,0.0,0.0,0.0,0.0,0.0,0.0,0.0,0.0,0.0,0.0,0.0,0.0,0.0,0.0,0.0,0.0,0.0,0.0,0.0,0.0,0.0,0.0,0.0,0.0,0.0,0.0,0.0,0.0,0.0,0.0,0.0,0.0,0.0,0.0,0.0,0.0,0.0,0.0,0.0,0.0,0.0,0.0,0.0,0.0,0.0,0.0,0.0,0.0,0.0,0.0,0.0,0.0,0.0,0.0,0.0,0.0,0.0,0.0,0.0,0.0,0.0,0.0,0.0,0.0,0.0,0.0,0.0,0.0,0.0,0.0,0.0,0.0,0.0,0.0,0.0,0.0,0.0,0.0,0.0,0.0,0.0,0.0,0.0,0.0,0.0,0.0,0.0,0.0,0.0,0.0,0.0,0.0,0.0,0.0,0.0,0.0,0.0,0.0,0.0,0.0,0.0,0.0,0.0,0.0,0.0,0.0,0.0,0.0,0.0,0.0,0.0,0.0,0.0,0.0,0.0,0.0,0.0,0.0,0.0,0.0,0.0,0.0,0.0,0.0,0.0,0.0,0.0,0.0,0.0,0.0,0.0,0.0,0.0,0.0,0.0,0.0,0.0,0.0,0.0,0.0
0.12129203725543865,0.12421721397657969,0.12049702870739587,0.11216695118706672,0.10144201200495619,0.09034039420772264,0.08019097025373845,0.07206533825823015,0.06619261329697777,0.062216508053395736,0.0593887511600066,0.05670114045423734,0.0534744470725921,0.04924675602623321,0.04394800539595692,0.03788292874283431,0.03153790581579761,0.02567112746728162,0.020937115316883546,0.01778700983386968,0.016377106325662017,0.016500177338264994,0.01781158279058035,0.019844501819927387,0.022150343229992788,0.02439192638993489,0.02654566862616665,0.02842520181084552,0.03001412619797488,0.031331698908826325,0.032406746454207776,0.03363027906743438,0.03464283130672525,0.035194669995857006,0.03502314205236903,0.03399988031180153,0.03257517900773137,0.031010897431766972,0.030167266614962746,0.031238951615258106,0.035593014169395316,0.044713322344917206,0.059222386571129285,0.07924321394231541,0.10399975979139373,0.13179171176858984,0.1601597651909456,0.18630833641951566,0.2075582293418924,0.22182738120569775,0.22799040936778436,0.225801041651514,0.21659303642136127,0.20228735895002353,0.18517975768611755,0.16747685843969726,0.15070121457042313,0.13611576540802978,0.12411166684217069,0.11453697742187098,0.10696330751161016,0.0,0.0,0.0,0.0,0.0,0.0,0.0,0.0,0.0,0.0,0.0,0.0,0.0,0.0,0.0,0.0,0.0,0.0,0.0,0.0,0.0,0.0,0.0,0.0,0.0,0.0,0.0,0.0,0.0,0.0,0.0,0.0,0.0,0.0,0.0,0.0,0.0,0.0,0.0,0.0,0.0,0.0,0.0,0.0,0.0,0.0,0.0,0.0,0.0,0.0,0.0,0.0,0.0,0.0,0.0,0.0,0.0,0.0,0.0,0.0,0.0,0.0,0.0,0.0,0.0,0.0,0.0,0.0,0.0,0.0,0.0,0.0,0.0,0.0,0.0,0.0,0.0,0.0,0.0,0.0,0.0,0.0,0.0,0.0,0.0,0.0,0.0,0.0,0.0,0.0,0.0,0.0,0.0,0.0,0.0,0.0,0.0,0.0,0.0,0.0,0.0,0.0,0.0,0.0,0.0,0.0,0.0,0.0,0.0,0.0,0.0,0.0,0.0,0.0,0.0,0.0,0.0,0.0,0.0,0.0,0.0,0.0,0.0,0.0,0.0,0.0,0.0,0.0,0.0,0.0,0.0,0.0,0.0,0.0,0.0,0.0,0.0,0.0,0.0,0.0,0.0,0.0,0.0,0.0,0.0,0.0,0.0,0.0,0.0,0.0,0.0,0.0,0.0,0.0,0.0,0.0,0.0,0.0,0.0,0.0,0.0,0.0,0.0,0.0,0.0,0.0,0.0,0.0,0.0,0.0,0.0,0.0,0.0,0.0,0.0,0.0,0.0,0.0,0.0,0.0,0.0,0.0,0.0,0.0,0.0,0.0,0.0,0.0,0.0,0.0,0.0,0.0,0.0,0.0,0.0,0.0,0.0,0.0,0.0,0.0,0.0,0.0,0.0,0.0,0.0,0.0,0.0,0.0,0.0,0.0,0.0,0.0,0.0,0.0,0.0,0.0,0.0,0.0,0.0,0.0,0.0,0.0,0.0,0.0,0.0,0.0,0.0,0.0,0.0,0.0,0.0,0.0,0.0,0.0,0.0,0.0,0.0,0.0,0.0
0.225801041651514,0.21659303642136127,0.20228735895002353,0.18517975768611755,0.16747685843969726,0.15070121457042313,0.13611576540802978,0.12411166684217069,0.11453697742187098,0.10696330751161016,0.10079806767630745,0.0960156790270371,0.09273509510795616,0.09120762753906908,0.09151834767862076,0.09307292079650042,0.09477362982322418,0.094500587000312,0.08935578784915364,0.07607338784563136,0.05152167604500621,0.013866833584012975,-0.037081763455492564,-0.09936873328921772,-0.1688817640568171,-0.23995494058198438,-0.3057405493494197,-0.3597081544541631,-0.3966930594581337,-0.41383691595926547,-0.4112683358658996,-0.3914962509655745,-0.3592357122242409,-0.32026198825359425,-0.2802156973926393,-0.24369053916503922,-0.2129146108441104,-0.18795917899597717,-0.16690716039929865,-0.14659447882601312,-0.12378224077237837,-0.09554665867184176,-0.06049875329652124,-0.019021745187838477,0.026790617816284615,0.07326894405316314,0.11686997439392903,0.15406185960381558,0.18224751011553636,0.20017571445858234,0.2076055290256595,0.20652405235407292,0.1994223283839273,0.18914751390816997,0.1783551143086196,0.16869512389080546,0.16171430628567393,0.15774045378655865,0.15632989083947665,0.15653451415865685,0.1569318624265694,0.0,0.0,0.0,0.0,0.0,0.0,0.0,0.0,0.0,0.0,0.0,0.0,0.0,0.0,0.0,0.0,0.0,0.0,0.0,0.0,0.0,0.0,0.0,0.0,0.0,0.0,0.0,0.0,0.0,0.0,0.0,0.0,0.0,0.0,0.0,0.0,0.0,0.0,0.0,0.0,0.0,0.0,0.0,0.0,0.0,0.0,0.0,0.0,0.0,0.0,0.0,0.0,0.0,0.0,0.0,0.0,0.0,0.0,0.0,0.0,0.0,0.0,0.0,0.0,0.0,0.0,0.0,0.0,0.0,0.0,0.0,0.0,0.0,0.0,0.0,0.0,0.0,0.0,0.0,0.0,0.0,0.0,0.0,0.0,0.0,0.0,0.0,0.0,0.0,0.0,0.0,0.0,0.0,0.0,0.0,0.0,0.0,0.0,0.0,0.0,0.0,0.0,0.0,0.0,0.0,0.0,0.0,0.0,0.0,0.0,0.0,0.0,0.0,0.0,0.0,0.0,0.0,0.0,0.0,0.0,0.0,0.0,0.0,0.0,0.0,0.0,0.0,0.0,0.0,0.0,0.0,0.0,0.0,0.0,0.0,0.0,0.0,0.0,0.0,0.0,0.0,0.0,0.0,0.0,0.0,0.0,0.0,0.0,0.0,0.0,0.0,0.0,0.0,0.0,0.0,0.0,0.0,0.0,0.0,0.0,0.0,0.0,0.0,0.0,0.0,0.0,0.0,0.0,0.0,0.0,0.0,0.0,0.0,0.0,0.0,0.0,0.0,0.0,0.0,0.0,0.0,0.0,0.0,0.0,0.0,0.0,0.0,0.0,0.0,0.0,0.0,0.0,0.0,0.0,0.0,0.0,0.0,0.0,0.0,0.0,0.0,0.0,0.0,0.0,0.0,0.0,0.0,0.0,0.0,0.0,0.0,0.0,0.0,0.0,0.0,0.0,0.0,0.0,0.0,0.0,0.0,0.0,0.0,0.0,0.0,0.0,0.0,0.0,0.0,0.0,0.0,0.0,0.0,0.0,0.0,0.0,0.0,0.0,0.0
0.20652405235407292,0.1994223283839273,0.18914751390816997,0.1783551143086196,0.16869512389080546,0.16171430628567393,0.15774045378655865,0.15632989083947665,0.15653451415865685,0.1569318624265694,0.15685797895401474,0.15580654241133915,0.1537359989259716,0.1510001412958113,0.14792449760475063,0.14539645660240325,0.1439805973606312,0.14399480274983234,0.14546576843296577,0.14795184616947396,0.15130098686162805,0.1551726194331092,0.15928492083585843,0.16344542275212892,0.16744888369922567,0.17121877003840796,0.174798578600081,0.17821831216864858,0.1814250770712921,0.18429528155014507,0.18636306463214597,0.18755671489141748,0.18793694000846584,0.18768876191533007,0.18710821845007308,0.1865558069284308,0.18683145757033906,0.18894305997186928,0.19395244675936807,0.20269267638142485,0.2157007162266078,0.23305779185801412,0.25418412030466997,0.2777853974396518,0.30171230397898,0.32394067666432813,0.34235112704331383,0.355243075649159,0.36161834811993543,0.3609259156997174,0.35434273297624913,0.34339774128621603,0.33001014280687396,0.31610331423249677,0.30287983323044926,0.29169343434332917,0.2828790808679299,0.27611195423758783,0.27058828034505805,0.26498192357859923,0.25870963349556997,0.0,0.0,0.0,0.0,0.0,0.0,0.0,0.0,0.0,0.0,0.0,0.0,0.0,0.0,0.0,0.0,0.0,0.0,0.0,0.0,0.0,0.0,0.0,0.0,0.0,0.0,0.0,0.0,0.0,0.0,0.0,0.0,0.0,0.0,0.0,0.0,0.0,0.0,0.0,0.0,0.0,0.0,0.0,0.0,0.0,0.0,0.0,0.0,0.0,0.0,0.0,0.0,0.0,0.0,0.0,0.0,0.0,0.0,0.0,0.0,0.0,0.0,0.0,0.0,0.0,0.0,0.0,0.0,0.0,0.0,0.0,0.0,0.0,0.0,0.0,0.0,0.0,0.0,0.0,0.0,0.0,0.0,0.0,0.0,0.0,0.0,0.0,0.0,0.0,0.0,0.0,0.0,0.0,0.0,0.0,0.0,0.0,0.0,0.0,0.0,0.0,0.0,0.0,0.0,0.0,0.0,0.0,0.0,0.0,0.0,0.0,0.0,0.0,0.0,0.0,0.0,0.0,0.0,0.0,0.0,0.0,0.0,0.0,0.0,0.0,0.0,0.0,0.0,0.0,0.0,0.0,0.0,0.0,0.0,0.0,0.0,0.0,0.0,0.0,0.0,0.0,0.0,0.0,0.0,0.0,0.0,0.0,0.0,0.0,0.0,0.0,0.0,0.0,0.0,0.0,0.0,0.0,0.0,0.0,0.0,0.0,0.0,0.0,0.0,0.0,0.0,0.0,0.0,0.0,0.0,0.0,0.0,0.0,0.0,0.0,0.0,0.0,0.0,0.0,0.0,0.0,0.0,0.0,0.0,0.0,0.0,0.0,0.0,0.0,0.0,0.0,0.0,0.0,0.0,0.0,0.0,0.0,0.0,0.0,0.0,0.0,0.0,0.0,0.0,0.0,0.0,0.0,0.0,0.0,0.0,0.0,0.0,0.0,0.0,0.0,0.0,0.0,0.0,0.0,0.0,0.0,0.0,0.0,0.0,0.0,0.0,0.0,0.0,0.0,0.0,0.0,0.0,0.0,0.0,0.0,0.0,0.0,0.0,0.0
0.5580519141184898,0.5267866452790284,0.49692262550895344,0.47088369874774666,0.4500888907328884,0.4323435280771719,0.4130528022640865,0.38628353240713403,0.34563755749826064,0.2875561187108282,0.21084208199865714,0.11783695237742463,0.01434123766960741,-0.0917145843202241,-0.19009390021085104,-0.27146283474807953,-0.32859360598876475,-0.3576010570679192,-0.35894101425679537,-0.3358088450322978,-0.29451540930937914,-0.24275669517510087,-0.18815197241909004,-0.1373731296323999,-0.094188649557412,-0.0603596801497808,-0.03567997324381753,-0.018702887770260888,-0.00788105550023226,-0.0012637699657418707,0.0022765642094039326,0.003348466862668956,0.0023968667917060723,-6.0021559670869e-05,-0.00214590819764935,-0.0012401456966515856,0.0060807734968889166,0.02349662135367303,0.0539272033763214,0.09940006049412435,0.1596626684759377,0.23209106161968035,0.311854567884525,0.3919995091305722,0.4662594210447912,0.5284017733704315,0.5738140429484012,0.600212514415377,0.6069935648612691,0.5978951856460786,0.577448514809112,0.5509189623425929,0.5233016670070169,0.4979889940393855,0.4778484372734087,0.4633498040497085,0.45348032852533837,0.4463908195986569,0.4400739954869585,0.43327962753616117,0.4251907359526837,0.4157693916765107,0.4055928217119009,0.3953570085164895,0.38598006674297086,0.37790732446125297,0.37104731357111703,0.36479482382514494,0.3579544477581252,0.34969762935338666,0.3397370312185354,0.32834395502676306,0.31622552572714213,0.30375280977932206,0.29211463241618413,0.2821259116948921,0.274104099647727,0.26765622762913927,0.2608982215559848,0.25292692342578,0.24252601300642507,0.22898685258468304,0.21243091439299855,0.19317395751999275,0.17421850078835707,0.15916765348420223,0.15217540008408337,0.15720560115685786,0.17634199551259586,0.2117986255685398,0.2633832854410442,0.3287245819987272,0.40320803637769287,0.4793309976274162,0.5499916143807724,0.6068754702851823,0.6420985380369808,0.6492104715985278,0.6232958793779123,0.564564303348842,0.4760464996822714,0.364484029730687,0.2398207522498501,0.11341909351326103,-0.0010692200977301257,-0.09180076180516714,-0.14966358238830624,-0.1695689670988277,-0.15172332794833743,-0.09961041908271989,-0.02112320020907991,0.07348832914051079,0.17338788267183697,0.26837729806297217,0.0,0.0,0.0,0.0,0.0,0.0,0.0,0.0,0.0,0.0,0.0,0.0,0.0,0.0,0.0,0.0,0.0,0.0,0.0,0.0,0.0,0.0,0.0,0.0,0.0,0.0,0.0,0.0,0.0,0.0,0.0,0.0,0.0,0.0,0.0,0.0,0.0,0.0,0.0,0.0,0.0,0.0,0.0,0.0,0.0,0.0,0.0,0.0,0.0,0.0,0.0,0.0,0.0,0.0,0.0,0.0,0.0,0.0,0.0,0.0,0.0,0.0,0.0,0.0,0.0,0.0,0.0,0.0,0.0,0.0,0.0,0.0,0.0,0.0,0.0,0.0,0.0,0.0,0.0,0.0,0.0,0.0,0.0,0.0,0.0,0.0,0.0,0.0,0.0,0.0,0.0,0.0,0.0,0.0,0.0,0.0,0.0,0.0,0.0,0.0,0.0,0.0,0.0,0.0,0.0,0.0,0.0,0.0,0.0,0.0,0.0,0.0,0.0,0.0,0.0,0.0,0.0,0.0,0.0,0.0,0.0,0.0,0.0,0.0,0.0,0.0,0.0,0.0,0.0,0.0,0.0,0.0,0.0,0.0,0.0,0.0,0.0,0.0,0.0,0.0,0.0,0.0,0.0,0.0,0.0,0.0,0.0,0.0,0.0,0.0,0.0,0.0,0.0,0.0,0.0,0.0,0.0,0.0,0.0,0.0,0.0,0.0,0.0,0.0,0.0,0.0,0.0,0.0,0.0,0.0,0.0,0.0,0.0,0.0,0.0,0.0,0.0,0.0,0.0,0.0,0.0,0.0,0.0,0.0,0.0,0.0
0.5509189623425929,0.5233016670070169,0.4979889940393855,0.4778484372734087,0.4633498040497085,0.45348032852533837,0.4463908195986569,0.4400739954869585,0.43327962753616117,0.4251907359526837,0.4157693916765107,0.4055928217119009,0.3953570085164895,0.38598006674297086,0.37790732446125297,0.37104731357111703,0.36479482382514494,0.3579544477581252,0.34969762935338666,0.3397370312185354,0.32834395502676306,0.31622552572714213,0.30375280977932206,0.29211463241618413,0.2821259116948921,0.274104099647727,0.26765622762913927,0.2608982215559848,0.25292692342578,0.24252601300642507,0.22898685258468304,0.21243091439299855,0.19317395751999275,0.17421850078835707,0.15916765348420223,0.15217540008408337,0.15720560115685786,0.17634199551259586,0.2117986255685398,0.2633832854410442,0.3287245819987272,0.40320803637769287,0.4793309976274162,0.5499916143807724,0.6068754702851823,0.6420985380369808,0.6492104715985278,0.6232958793779123,0.564564303348842,0.4760464996822714,0.364484029730687,0.2398207522498501,0.11341909351326103,-0.0010692200977301257,-0.09180076180516714,-0.14966358238830624,-0.1695689670988277,-0.15172332794833743,-0.09961041908271989,-0.02112320020907991,0.07348832914051079,0.17338788267183697,0.26837729806297217,0.3520508066293233,0.4208399792772013,0.4746653431547428,0.5163447324425016,0.5500020244364322,0.5812366692126318,0.6142364357749751,0.6513196924082999,0.6925453758231703,0.7355436863250056,0.7775679187809029,0.8152159643786883,0.8459224814211374,0.8687460192038391,0.8843244268267298,0.8956137822430206,0.9059741166627766,0.9184398023962395,0.9346982678926377,0.9539331541804329,0.9742538342405426,0.9917723117526818,1.001936130350295,1.0006505165814363,0.9846466954029354,0.9541768190861758,0.911432023503921,0.8605289218747935,0.8065602648087692,0.7537791439334284,0.7067727022416238,0.6677021448521115,0.6367613028742917,0.6124700130361019,0.5916118448479183,0.5723763366062998,0.552585594558582,0.5310080431879455,0.5075509828461664,0.4827302532556921,0.4584647030202656,0.43636282674220467,0.41760277920783656,0.4026319526562308,0.3910582269376903,0.3818894522584649,0.3739876913816137,0.36632350835867317,0.3582237556311253,0.34924693375323834,0.3398966715018458,0.0,0.0,0.0,0.0,0.0,0.0,0.0,0.0,0.0,0.0,0.0,0.0,0.0,0.0,0.0,0.0,0.0,0.0,0.0,0.0,0.0,0.0,0.0,0.0,0.0,0.0,0.0,0.0,0.0,0.0,0.0,0.0,0.0,0.0,0.0,0.0,0.0,0.0,0.0,0.0,0.0,0.0,0.0,0.0,0.0,0.0,0.0,0.0,0.0,0.0,0.0,0.0,0.0,0.0,0.0,0.0,0.0,0.0,0.0,0.0,0.0,0.0,0.0,0.0,0.0,0.0,0.0,0.0,0.0,0.0,0.0,0.0,0.0,0.0,0.0,0.0,0.0,0.0,0.0,0.0,0.0,0.0,0.0,0.0,0.0,0.0,0.0,0.0,0.0,0.0,0.0,0.0,0.0,0.0,0.0,0.0,0.0,0.0,0.0,0.0,0.0,0.0,0.0,0.0,0.0,0.0,0.0,0.0,0.0,0.0,0.0,0.0,0.0,0.0,0.0,0.0,0.0,0.0,0.0,0.0,0.0,0.0,0.0,0.0,0.0,0.0,0.0,0.0,0.0,0.0,0.0,0.0,0.0,0.0,0.0,0.0,0.0,0.0,0.0,0.0,0.0,0.0,0.0,0.0,0.0,0.0,0.0,0.0,0.0,0.0,0.0,0.0,0.0,0.0,0.0,0.0,0.0,0.0,0.0,0.0,0.0,0.0,0.0,0.0,0.0,0.0,0.0,0.0,0.0,0.0,0.0,0.0,0.0,0.0,0.0,0.0,0.0,0.0,0.0,0.0,0.0,0.0,0.0,0.0,0.0,0.0
-0.0010692200977301257,-0.09180076180516714,-0.14966358238830624,-0.1695689670988277,-0.15172332794833743,-0.09961041908271989,-0.02112320020907991,0.07348832914051079,0.17338788267183697,0.26837729806297217,0.3520508066293233,0.4208399792772013,0.4746653431547428,0.5163447324425016,0.5500020244364322,0.5812366692126318,0.6142364357749751,0.6513196924082999,0.6925453758231703,0.7355436863250056,0.7775679187809029,0.8152159643786883,0.8459224814211374,0.8687460192038391,0.8843244268267298,0.8956137822430206,0.9059741166627766,0.9184398023962395,0.9346982678926377,0.9539331541804329,0.9742538342405426,0.9917723117526818,1.001936130350295,1.0006505165814363,0.9846466954029354,0.9541768190861758,0.911432023503921,0.8605289218747935,0.8065602648087692,0.7537791439334284,0.7067727022416238,0.6677021448521115,0.6367613028742917,0.6124700130361019,0.5916118448479183,0.5723763366062998,0.552585594558582,0.5310080431879455,0.5075509828461664,0.4827302532556921,0.4584647030202656,0.43636282674220467,0.41760277920783656,0.4026319526562308,0.3910582269376903,0.3818894522584649,0.3739876913816137,0.36632350835867317,0.3582237556311253,0.34924693375323834,0.3398966715018458,0.33065220329939715,0.32193025352887966,0.3138155586060197,0.3054789499643781,0.2966629681018793,0.286240249460742,0.2732156463715259,0.2572555271830073,0.23864668488920626,0.2202276669738678,0.2051959505460502,0.19740196535079638,0.20069549575999499,0.2175795975735908,0.25042744870970945,0.29847067685557094,0.3585511904300538,0.425504723967758,0.49212084152260327,0.5529202977529639,0.6020410647702287,0.6351975125782595,0.6503139521755211,0.6466683669454012,0.6282340632549096,0.5992429731003934,0.5645862534076271,0.5289392539708897,0.4951298128049974,0.466422003268154,0.44325622935261505,0.42441655512101156,0.4075645557662584,0.3893438183056651,0.3682269716566658,0.34285687294861805,0.31314529028711385,0.2803213074345878,0.24612479680495344,0.21403414326799175,0.18672861026410353,0.16613601401719877,0.15307805910291714,0.1467606525775594,0.14638489243085043,0.15001181882456305,0.15554852956068907,0.16120940151788257,0.1654246911833961,0.16820992031702303,0.16962991577004594,0.16995325783529955,0.16934074393284798,0.0,0.0,0.0,0.0,0.0,0.0,0.0,0.0,0.0,0.0,0.0,0.0,0.0,0.0,0.0,0.0,0.0,0.0,0.0,0.0,0.0,0.0,0.0,0.0,0.0,0.0,0.0,0.0,0.0,0.0,0.0,0.0,0.0,0.0,0.0,0.0,0.0,0.0,0.0,0.0,0.0,0.0,0.0,0.0,0.0,0.0,0.0,0.0,0.0,0.0,0.0,0.0,0.0,0.0,0.0,0.0,0.0,0.0,0.0,0.0,0.0,0.0,0.0,0.0,0.0,0.0,0.0,0.0,0.0,0.0,0.0,0.0,0.0,0.0,0.0,0.0,0.0,0.0,0.0,0.0,0.0,0.0,0.0,0.0,0.0,0.0,0.0,0.0,0.0,0.0,0.0,0.0,0.0,0.0,0.0,0.0,0.0,0.0,0.0,0.0,0.0,0.0,0.0,0.0,0.0,0.0,0.0,0.0,0.0,0.0,0.0,0.0,0.0,0.0,0.0,0.0,0.0,0.0,0.0,0.0,0.0,0.0,0.0,0.0,0.0,0.0,0.0,0.0,0.0,0.0,0.0,0.0,0.0,0.0,0.0,0.0,0.0,0.0,0.0,0.0,0.0,0.0,0.0,0.0,0.0,0.0,0.0,0.0,0.0,0.0,0.0,0.0,0.0,0.0,0.0,0.0,0.0,0.0,0.0,0.0,0.0,0.0,0.0,0.0,0.0,0.0,0.0,0.0,0.0,0.0,0.0,0.0,0.0,0.0,0.0,0.0,0.0,0.0,0.0,0.0,0.0,0.0,0.0,0.0,0.0,0.0
0.5891640455389817,0.5568447097820968,0.5168372921880086,0.4745640988147194,0.43425334545454347,0.39979908360540817,0.3727096911257908,0.35278705408553057,0.3385796009700626,0.32806833067153124,0.31932117475193983,0.3105406521283934,0.30064108199856054,0.28939002383054063,0.2773045472913021,0.2655212689080484,0.25501634173325904,0.2464898075706528,0.24020044669101867,0.23586911503392002,0.23305844031598769,0.23098004215187445,0.22886634235771303,0.22619237326539832,0.2227009003007256,0.21887280634735826,0.21533933105770595,0.21287799311477973,0.21218429983977793,0.21346800673943517,0.21687413902320135,0.22181351422652248,0.22729998028028622,0.2322503207993205,0.23546993146816986,0.23738279040796054,0.2391711712476227,0.24312038436173244,0.2523163417588631,0.26937931315686603,0.29771924050832055,0.3390224625083933,0.39290539216375014,0.45637334593737233,0.5230169676650517,0.5856619031343249,0.6352312701134578,0.6626732026025138,0.6604303501158816,0.6230933257825512,0.5508290783323654,0.4473484656216421,0.3204757016577992,0.18123031209244278,0.04174363508805785,-0.08469277600683374,-0.18744905579680995,-0.25943743052806284,-0.29796972593099597,-0.30525086015904457,-0.28626973336309486,-0.24891839951019662,-0.20191390168833617,-0.15321526681131958,-0.1092095271848828,-0.07281659128581476,-0.044826377876778276,-0.02409401756921361,-0.008460807691643304,0.00392592123152711,0.015052693280172539,0.025572463232956658,0.03529639674733995,0.043697996084414166,0.05024072897045923,0.056099540502410096,0.06337859350145461,0.07533929262062986,0.09585679986047163,0.12822159520418874,0.17522629053645444,0.23727326750314365,0.3122070826858655,0.3953401048514477,0.4794638355785349,0.5576296978416831,0.6228087301599992,0.6695423957284999,0.6948234098424237,0.6977112851115848,0.6816493231122971,0.6516807389422038,0.6139945031640516,0.5746943437244157,0.5379295522725581,0.5075406212569619,0.4844509499343795,0.46759927158557846,0.45456527760640775,0.4417034195103351,0.42735775089280964,0.40997767285282716,0.3892672565218246,0.36616377352250395,0.34205395454612514,0.31954755250083516,0.3006537554911923,0.2866380665967372,0.27776226943860016,0.2731639635510957,0.27143948267687057,0.27115643519663013,0.271115936369877,0.2705767633580412,0.0,0.0,0.0,0.0,0.0,0.0,0.0,0.0,0.0,0.0,0.0,0.0,0.0,0.0,0.0,0.0,0.0,0.0,0.0,0.0,0.0,0.0,0.0,0.0,0.0,0.0,0.0,0.0,0.0,0.0,0.0,0.0,0.0,0.0,0.0,0.0,0.0,0.0,0.0,0.0,0.0,0.0,0.0,0.0,0.0,0.0,0.0,0.0,0.0,0.0,0.0,0.0,0.0,0.0,0.0,0.0,0.0,0.0,0.0,0.0,0.0,0.0,0.0,0.0,0.0,0.0,0.0,0.0,0.0,0.0,0.0,0.0,0.0,0.0,0.0,0.0,0.0,0.0,0.0,0.0,0.0,0.0,0.0,0.0,0.0,0.0,0.0,0.0,0.0,0.0,0.0,0.0,0.0,0.0,0.0,0.0,0.0,0.0,0.0,0.0,0.0,0.0,0.0,0.0,0.0,0.0,0.0,0.0,0.0,0.0,0.0,0.0,0.0,0.0,0.0,0.0,0.0,0.0,0.0,0.0,0.0,0.0,0.0,0.0,0.0,0.0,0.0,0.0,0.0,0.0,0.0,0.0,0.0,0.0,0.0,0.0,0.0,0.0,0.0,0.0,0.0,0.0,0.0,0.0,0.0,0.0,0.0,0.0,0.0,0.0,0.0,0.0,0.0,0.0,0.0,0.0,0.0,0.0,0.0,0.0,0.0,0.0,0.0,0.0,0.0,0.0,0.0,0.0,0.0,0.0,0.0,0.0,0.0,0.0,0.0,0.0,0.0,0.0,0.0,0.0,0.0,0.0,0.0,0.0,0.0,0.0
-0.08469277600683374,-0.18744905579680995,-0.25943743052806284,-0.29796972593099597,-0.30525086015904457,-0.28626973336309486,-0.24891839951019662,-0.20191390168833617,-0.15321526681131958,-0.1092095271848828,-0.07281659128581476,-0.044826377876778276,-0.02409401756921361,-0.008460807691643304,0.00392592123152711,0.015052693280172539,0.025572463232956658,0.03529639674733995,0.043697996084414166,0.05024072897045923,0.056099540502410096,0.06337859350145461,0.07533929262062986,0.09585679986047163,0.12822159520418874,0.17522629053645444,0.23727326750314365,0.3122070826858655,0.3953401048514477,0.4794638355785349,0.5576296978416831,0.6228087301599992,0.6695423957284999,0.6948234098424237,0.6977112851115848,0.6816493231122971,0.6516807389422038,0.6139945031640516,0.5746943437244157,0.5379295522725581,0.5075406212569619,0.4844509499343795,0.46759927158557846,0.45456527760640775,0.4417034195103351,0.42735775089280964,0.40997767285282716,0.3892672565218246,0.36616377352250395,0.34205395454612514,0.31954755250083516,0.3006537554911923,0.2866380665967372,0.27776226943860016,0.2731639635510957,0.27143948267687057,0.27115643519663013,0.271115936369877,0.2705767633580412,0.26915155318742695,0.2671386349850282,0.26515127229703833,0.2638021985122342,0.26339125727748225,0.2635216252750014,0.2636330130154558,0.262787231981539,0.2601027241614432,0.2551588475608601,0.24817586510629286,0.24084926618362643,0.23584608998988124,0.2366395105037957,0.24692643784423796,0.26965936756812564,0.306909126323701,0.3586251367910278,0.4224735027199112,0.49391078406122696,0.5661122064284553,0.6327663435137508,0.6872680386179999,0.7243495214636233,0.7408951302782159,0.7353948579849416,0.7110826722920671,0.6722930612028667,0.6246392590799897,0.5740439721264932,0.5249818432537331,0.4823599324152926,0.4484705399277485,0.42377018737103145,0.4071928139747704,0.3960524013891537,0.38875739765372486,0.38327975961587457,0.3781674491514878,0.3726668937294424,0.3660729720662636,0.3591924060755826,0.3522981430630026,0.3454012440721185,0.3381409734841144,0.3294203714001011,0.31900690244881613,0.30645718041100833,0.2917830994883094,0.2755774275823413,0.25857265723752326,0.2426535304786224,0.22924428735977118,0.21930213813872118,0.21301388168056823,0.0,0.0,0.0,0.0,0.0,0.0,0.0,0.0,0.0,0.0,0.0,0.0,0.0,0.0,0.0,0.0,0.0,0.0,0.0,0.0,0.0,0.0,0.0,0.0,0.0,0.0,0.0,0.0,0.0,0.0,0.0,0.0,0.0,0.0,0.0,0.0,0.0,0.0,0.0,0.0,0.0,0.0,0.0,0.0,0.0,0.0,0.0,0.0,0.0,0.0,0.0,0.0,0.0,0.0,0.0,0.0,0.0,0.0,0.0,0.0,0.0,0.0,0.0,0.0,0.0,0.0,0.0,0.0,0.0,0.0,0.0,0.0,0.0,0.0,0.0,0.0,0.0,0.0,0.0,0.0,0.0,0.0,0.0,0.0,0.0,0.0,0.0,0.0,0.0,0.0,0.0,0.0,0.0,0.0,0.0,0.0,0.0,0.0,0.0,0.0,0.0,0.0,0.0,0.0,0.0,0.0,0.0,0.0,0.0,0.0,0.0,0.0,0.0,0.0,0.0,0.0,0.0,0.0,0.0,0.0,0.0,0.0,0.0,0.0,0.0,0.0,0.0,0.0,0.0,0.0,0.0,0.0,0.0,0.0,0.0,0.0,0.0,0.0,0.0,0.0,0.0,0.0,0.0,0.0,0.0,0.0,0.0,0.0,0.0,0.0,0.0,0.0,0.0,0.0,0.0,0.0,0.0,0.0,0.0,0.0,0.0,0.0,0.0,0.0,0.0,0.0,0.0,0.0,0.0,0.0,0.0,0.0,0.0,0.0,0.0,0.0,0.0,0.0,0.0,0.0,0.0,0.0,0.0,0.0,0.0,0.0
-0.16225389269005946,-0.12411234584520171,-0.06401124329489155,0.009726002330819446,0.08826961732973745,0.16306279556349607,0.22872038261347996,0.2818445557323437,0.32147974320614714,0.34861886846209833,0.36506245200960147,0.3738039333955096,0.3775565896282492,0.37858168043663454,0.37858100226502345,0.37833982033468816,0.3795592824810258,0.38376281077292457,0.3927711280549556,0.4085431360679485,0.4321926635243197,0.46543237896059103,0.5082357030904402,0.559092003925015,0.6149876848841025,0.6709045183169726,0.7230804190659288,0.767347647155582,0.800620651910988,0.8214322337002565,0.8290782597912458,0.8267431604467547,0.8178944996983911,0.806365798848216,0.7954711128706178,0.7863776367190511,0.7805922481065758,0.7772530484660856,0.7743726819616433,0.769509992040979,0.7597596137821927,0.7447881010133683,0.7247172672422902,0.7008378495642318,0.6752448393543233,0.6497841983641518,0.6269085497878468,0.6078689371343331,0.5928429249063932,0.5809796866676677,0.570513895675203,0.5597696570845404,0.5474606606380169,0.533039937715398,0.5168097325262146,0.49948780056942244,0.4829025595791036,0.4687557823749671,0.45843230704141485,0.4526397783847617,0.4507679797006053,0.452352983509738,0.455831925147264,0.45943451812587194,0.4617060487480978,0.46155498075977003,0.46008368074091954,0.45913463292046874,0.4615707029536289,0.47077231911143375,0.48945533723586837,0.5203870424848027,0.5640714787951077,0.618839010895887,0.6808317542104091,0.7439204516102412,0.8022833356282171,0.8494419047063384,0.8800587110252377,0.8908911893093844,0.88078213389214,0.8527045459174569,0.8108529742657165,0.7606683405964977,0.7078740992243867,0.6569870034590338,0.612479182831434,0.5760335491562547,0.5473996068123106,0.5248570091393892,0.5054004566805224,0.4873030944229092,0.4685025763120826,0.4478163830887377,0.4251404758913054,0.4008427829228082,0.3772356753658002,0.35600126630311324,0.33848657135734744,0.3254239426432216,0.316295416900482,0.3111678564823214,0.30889274987818416,0.3080707336066854,0.3073914307432723,0.3054316949717768,0.30241558419115633,0.29841888660637883,0.2938630520334022,0.289358918843323,0.28509426573162144,0.28211216232384123,0.2805961555434895,0.2803744815632069,0.0,0.0,0.0,0.0,0.0,0.0,0.0,0.0,0.0,0.0,0.0,0.0,0.0,0.0,0.0,0.0,0.0,0.0,0.0,0.0,0.0,0.0,0.0,0.0,0.0,0.0,0.0,0.0,0.0,0.0,0.0,0.0,0.0,0.0,0.0,0.0,0.0,0.0,0.0,0.0,0.0,0.0,0.0,0.0,0.0,0.0,0.0,0.0,0.0,0.0,0.0,0.0,0.0,0.0,0.0,0.0,0.0,0.0,0.0,0.0,0.0,0.0,0.0,0.0,0.0,0.0,0.0,0.0,0.0,0.0,0.0,0.0,0.0,0.0,0.0,0.0,0.0,0.0,0.0,0.0,0.0,0.0,0.0,0.0,0.0,0.0,0.0,0.0,0.0,0.0,0.0,0.0,0.0,0.0,0.0,0.0,0.0,0.0,0.0,0.0,0.0,0.0,0.0,0.0,0.0,0.0,0.0,0.0,0.0,0.0,0.0,0.0,0.0,0.0,0.0,0.0,0.0,0.0,0.0,0.0,0.0,0.0,0.0,0.0,0.0,0.0,0.0,0.0,0.0,0.0,0.0,0.0,0.0,0.0,0.0,0.0,0.0,0.0,0.0,0.0,0.0,0.0,0.0,0.0,0.0,0.0,0.0,0.0,0.0,0.0,0.0,0.0,0.0,0.0,0.0,0.0,0.0,0.0,0.0,0.0,0.0,0.0,0.0,0.0,0.0,0.0,0.0,0.0,0.0,0.0,0.0,0.0,0.0,0.0,0.0,0.0,0.0,0.0,0.0,0.0,0.0,0.0,0.0,0.0,0.0,0.0
0.36277266133799646,0.3391559237209235,0.3051380150826938,0.26575427681280916,0.22521041596702007,0.18637631644018396,0.15087299789250636,0.11989051861252376,0.09508784104358828,0.07924957579019169,0.07626834902084381,0.09017620694581294,0.12365066241214301,0.17622097926201824,0.24301548841145748,0.31454149173101065,0.3783687746723813,0.4212262739055772,0.43241687347697577,0.4067814010327232,0.3462271784840806,0.2604374435448539,0.1637865829997705,0.07233233861031448,0.0,0.0,0.0,0.0,0.0,0.0,0.0,0.0,0.0,0.0,0.0,0.0,0.0,0.0,0.0,0.0,0.0,0.0,0.0,0.0,0.0,0.0,0.0,0.0,0.0,0.0,0.0,0.0,0.0,0.0,0.0,0.0,0.0,0.0,0.0,0.0,0.0,0.0,0.0,0.0,0.0,0.0,0.0,0.0,0.0,0.0,0.0,0.0,0.0,0.0,0.0,0.0,0.0,0.0,0.0,0.0,0.0,0.0,0.0,0.0,0.0,0.0,0.0,0.0,0.0,0.0,0.0,0.0,0.0,0.0,0.0,0.0,0.0,0.0,0.0,0.0,0.0,0.0,0.0,0.0,0.0,0.0,0.0,0.0,0.0,0.0,0.0,0.0,0.0,0.0,0.0,0.0,0.0,0.0,0.0,0.0,0.0,0.0,0.0,0.0,0.0,0.0,0.0,0.0,0.0,0.0,0.0,0.0,0.0,0.0,0.0,0.0,0.0,0.0,0.0,0.0,0.0,0.0,0.0,0.0,0.0,0.0,0.0,0.0,0.0,0.0,0.0,0.0,0.0,0.0,0.0,0.0,0.0,0.0,0.0,0.0,0.0,0.0,0.0,0.0,0.0,0.0,0.0,0.0,0.0,0.0,0.0,0.0,0.0,0.0,0.0,0.0,0.0,0.0,0.0,0.0,0.0,0.0,0.0,0.0,0.0,0.0,0.0,0.0,0.0,0.0,0.0,0.0,0.0,0.0,0.0,0.0,0.0,0.0,0.0,0.0,0.0,0.0,0.0,0.0,0.0,0.0,0.0,0.0,0.0,0.0,0.0,0.0,0.0,0.0,0.0,0.0,0.0,0.0,0.0,0.0,0.0,0.0,0.0,0.0,0.0,0.0,0.0,0.0,0.0,0.0,0.0,0.0,0.0,0.0,0.0,0.0,0.0,0.0,0.0,0.0,0.0,0.0,0.0,0.0,0.0,0.0,0.0,0.0,0.0,0.0,0.0,0.0,0.0,0.0,0.0,0.0,0.0,0.0,0.0,0.0,0.0,0.0,0.0,0.0,0.0,0.0,0.0,0.0,0.0,0.0,0.0,0.0,0.0,0.0,0.0,0.0,0.0,0.0,0.0,0.0,0.0,0.0,0.0,0.0,0.0,0.0,0.0,0.0,0.0,0.0,0.0,0.0,0.0,0.0,0.0,0.0,0.0,0.0,0.0,0.0
0.6003710349714685,0.5973521974138443,0.578811620413279,0.5485942701677744,0.5115139744325758,0.4724964406566006,0.4351023552857367,0.40302686566009494,0.3776415823390955,0.35868629867460655,0.34462184634173276,0.33272758269929115,0.32127930762697277,0.30856526424188907,0.29374993081031636,0.27699835606970336,0.258919529905826,0.2415860585793528,0.22673115184409354,0.21574583968644068,0.209374865797674,0.20722545922659527,0.20901916123807707,0.21364032164320784,0.21978904198472785,0.22626532227150173,0.2318433038786681,0.2363912867838394,0.23977591908067514,0.2420271030500526,0.2431557787453294,0.24273208529457665,0.24076092404944033,0.2368708002651544,0.23079899968139528,0.22266192096226486,0.21291047963688436,0.2034250057522956,0.19656273108413228,0.19517835721121882,0.20216806317920033,0.2195797666093473,0.24901508284625778,0.29023895770822494,0.34122780444137985,0.39825207046263456,0.45571609837365673,0.5087048810637479,0.5519821648570423,0.5813612985139273,0.5943360777460688,0.5895811641425518,0.5696770378418764,0.538027875577506,0.49909909841229355,0.45766434576198856,0.41721649059039956,0.3819995654036325,0.3540846651326067,0.3340195468361992,0.3209926137779084,0.31240069270147286,0.30694773898887434,0.3028253829427757,0.29875211971039706,0.29411085441334084,0.2883726877240583,0.2824274979982732,0.2767806761541999,0.27173323341229505,0.26722909504877324,0.26269288389808815,0.257741155257567,0.25175816356465863,0.24438425343203915,0.0,0.0,0.0,0.0,0.0,0.0,0.0,0.0,0.0,0.0,0.0,0.0,0.0,0.0,0.0,0.0,0.0,0.0,0.0,0.0,0.0,0.0,0.0,0.0,0.0,0.0,0.0,0.0,0.0,0.0,0.0,0.0,0.0,0.0,0.0,0.0,0.0,0.0,0.0,0.0,0.0,0.0,0.0,0.0,0.0,0.0,0.0,0.0,0.0,0.0,0.0,0.0,0.0,0.0,0.0,0.0,0.0,0.0,0.0,0.0,0.0,0.0,0.0,0.0,0.0,0.0,0.0,0.0,0.0,0.0,0.0,0.0,0.0,0.0,0.0,0.0,0.0,0.0,0.0,0.0,0.0,0.0,0.0,0.0,0.0,0.0,0.0,0.0,0.0,0.0,0.0,0.0,0.0,0.0,0.0,0.0,0.0,0.0,0.0,0.0,0.0,0.0,0.0,0.0,0.0,0.0,0.0,0.0,0.0,0.0,0.0,0.0,0.0,0.0,0.0,0.0,0.0,0.0,0.0,0.0,0.0,0.0,0.0,0.0,0.0,0.0,0.0,0.0,0.0,0.0,0.0,0.0,0.0,0.0,0.0,0.0,0.0,0.0,0.0,0.0,0.0,0.0,0.0,0.0,0.0,0.0,0.0,0.0,0.0,0.0,0.0,0.0,0.0,0.0,0.0,0.0,0.0,0.0,0.0,0.0,0.0,0.0,0.0,0.0,0.0,0.0,0.0,0.0,0.0,0.0,0.0,0.0,0.0,0.0,0.0,0.0,0.0,0.0,0.0,0.0,0.0,0.0,0.0,0.0,0.0,0.0,0.0,0.0,0.0,0.0,0.0,0.0,0.0,0.0,0.0,0.0,0.0,0.0,0.0,0.0,0.0,0.0,0.0,0.0,0.0,0.0,0.0,0.0,0.0,0.0,0.0,0.0,0.0,0.0,0.0,0.0,0.0,0.0,0.0,0.0,0.0,0.0,0.0,0.0,0.0
0.5895811641425518,0.5696770378418764,0.538027875577506,0.49909909841229355,0.45766434576198856,0.41721649059039956,0.3819995654036325,0.3540846651326067,0.3340195468361992,0.3209926137779084,0.31240069270147286,0.30694773898887434,0.3028253829427757,0.29875211971039706,0.29411085441334084,0.2883726877240583,0.2824274979982732,0.2767806761541999,0.27173323341229505,0.26722909504877324,0.26269288389808815,0.257741155257567,0.25175816356465863,0.24438425343203915,0.2357212272012892,0.22609403932981406,0.21694900946680643,0.20958734675663204,0.20513537708470655,0.20421335935380516,0.20626984788209166,0.2109937589548888,0.21714819366777888,0.22333156845687147,0.2284129318329903,0.2313926120021288,0.233354719584373,0.23594284282427602,0.2415156912024614,0.2526125043121754,0.27066978745882314,0.2973829512333035,0.3325888326803327,0.3746141574112302,0.4204695192065914,0.4655916207023966,0.5070414321879477,0.5419843998580848,0.5689912760918958,0.5883265341010075,0.6009173281389902,0.6107994366019943,0.6214089655850159,0.635522169753787,0.654383267675806,0.6764385509183425,0.6993654141459275,0.7182800339179498,0.7272451714261307,0.7204400012506046,0.692986278057675,0.6434283679236684,0.5729771195351364,0.4860502072580083,0.3897673288323665,0.29257030370503584,0.2040423790409346,0.132278937843458,0.08306449805251288,0.05909465641412839,0.05946788498707534,0.08096177128599119,0.11784380322361225,0.16332966898233772,0.2108076210349433,0.0,0.0,0.0,0.0,0.0,0.0,0.0,0.0,0.0,0.0,0.0,0.0,0.0,0.0,0.0,0.0,0.0,0.0,0.0,0.0,0.0,0.0,0.0,0.0,0.0,0.0,0.0,0.0,0.0,0.0,0.0,0.0,0.0,0.0,0.0,0.0,0.0,0.0,0.0,0.0,0.0,0.0,0.0,0.0,0.0,0.0,0.0,0.0,0.0,0.0,0.0,0.0,0.0,0.0,0.0,0.0,0.0,0.0,0.0,0.0,0.0,0.0,0.0,0.0,0.0,0.0,0.0,0.0,0.0,0.0,0.0,0.0,0.0,0.0,0.0,0.0,0.0,0.0,0.0,0.0,0.0,0.0,0.0,0.0,0.0,0.0,0.0,0.0,0.0,0.0,0.0,0.0,0.0,0.0,0.0,0.0,0.0,0.0,0.0,0.0,0.0,0.0,0.0,0.0,0.0,0.0,0.0,0.0,0.0,0.0,0.0,0.0,0.0,0.0,0.0,0.0,0.0,0.0,0.0,0.0,0.0,0.0,0.0,0.0,0.0,0.0,0.0,0.0,0.0,0.0,0.0,0.0,0.0,0.0,0.0,0.0,0.0,0.0,0.0,0.0,0.0,0.0,0.0,0.0,0.0,0.0,0.0,0.0,0.0,0.0,0.0,0.0,0.0,0.0,0.0,0.0,0.0,0.0,0.0,0.0,0.0,0.0,0.0,0.0,0.0,0.0,0.0,0.0,0.0,0.0,0.0,0.0,0.0,0.0,0.0,0.0,0.0,0.0,0.0,0.0,0.0,0.0,0.0,0.0,0.0,0.0,0.0,0.0,0.0,0.0,0.0,0.0,0.0,0.0,0.0,0.0,0.0,0.0,0.0,0.0,0.0,0.0,0.0,0.0,0.0,0.0,0.0,0.0,0.0,0.0,0.0,0.0,0.0,0.0,0.0,0.0,0.0,0.0,0.0,0.0,0.0,0.0,0.0,0.0,0.0
0.6107994366019943,0.6214089655850159,0.635522169753787,0.654383267675806,0.6764385509183425,0.6993654141459275,0.7182800339179498,0.7272451714261307,0.7204400012506046,0.692986278057675,0.6434283679236684,0.5729771195351364,0.4860502072580083,0.3897673288323665,0.29257030370503584,0.2040423790409346,0.132278937843458,0.08306449805251288,0.05909465641412839,0.05946788498707534,0.08096177128599119,0.11784380322361225,0.16332966898233772,0.2108076210349433,0.2546791240925217,0.29189312156270714,0.3213662483416521,0.3440832635946363,0.36252058565575823,0.37961860975143774,0.39853616330940284,0.42116722493707537,0.4479345013469715,0.4777561762311011,0.5082100623195234,0.536872131164313,0.5613160716775003,0.580060421855872,0.5929917668064439,0.6011862788833311,0.6072384306197057,0.6137470275511971,0.6227876701161216,0.6352224175121284,0.6498569351191501,0.6649652231333454,0.6771105595224224,0.6824154982906196,0.6774530682178127,0.6593584482555083,0.628663052027582,0.587029647296306,0.5377354384195884,0.48505702370606046,0.4328362051562799,0.38575179138729837,0.34635941005454945,0.31555343733759683,0.2926609791943083,0.2753103907765587,0.2619200597983169,0.25009823069607173,0.23796870324479635,0.22455054418015113,0.20955567284377122,0.1942022422841853,0.17962036927179884,0.16683476294563973,0.15644010916599402,0.14840660461635496,0.1422529672138898,0.13708768802217633,0.1319760374168532,0.12624943718980985,0.11962853558622205,0.0,0.0,0.0,0.0,0.0,0.0,0.0,0.0,0.0,0.0,0.0,0.0,0.0,0.0,0.0,0.0,0.0,0.0,0.0,0.0,0.0,0.0,0.0,0.0,0.0,0.0,0.0,0.0,0.0,0.0,0.0,0.0,0.0,0.0,0.0,0.0,0.0,0.0,0.0,0.0,0.0,0.0,0.0,0.0,0.0,0.0,0.0,0.0,0.0,0.0,0.0,0.0,0.0,0.0,0.0,0.0,0.0,0.0,0.0,0.0,0.0,0.0,0.0,0.0,0.0,0.0,0.0,0.0,0.0,0.0,0.0,0.0,0.0,0.0,0.0,0.0,0.0,0.0,0.0,0.0,0.0,0.0,0.0,0.0,0.0,0.0,0.0,0.0,0.0,0.0,0.0,0.0,0.0,0.0,0.0,0.0,0.0,0.0,0.0,0.0,0.0,0.0,0.0,0.0,0.0,0.0,0.0,0.0,0.0,0.0,0.0,0.0,0.0,0.0,0.0,0.0,0.0,0.0,0.0,0.0,0.0,0.0,0.0,0.0,0.0,0.0,0.0,0.0,0.0,0.0,0.0,0.0,0.0,0.0,0.0,0.0,0.0,0.0,0.0,0.0,0.0,0.0,0.0,0.0,0.0,0.0,0.0,0.0,0.0,0.0,0.0,0.0,0.0,0.0,0.0,0.0,0.0,0.0,0.0,0.0,0.0,0.0,0.0,0.0,0.0,0.0,0.0,0.0,0.0,0.0,0.0,0.0,0.0,0.0,0.0,0.0,0.0,0.0,0.0,0.0,0.0,0.0,0.0,0.0,0.0,0.0,0.0,0.0,0.0,0.0,0.0,0.0,0.0,0.0,0.0,0.0,0.0,0.0,0.0,0.0,0.0,0.0,0.0,0.0,0.0,0.0,0.0,0.0,0.0,0.0,0.0,0.0,0.0,0.0,0.0,0.0,0.0,0.0,0.0,0.0,0.0,0.0,0.0,0.0,0.0
0.3905344882756962,0.37767271742648567,0.3539831447074955,0.3240255333150389,0.2923434269287704,0.2622741246662076,0.23698304351165012,0.21773277831324908,0.20442036571111333,0.19590427969165225,0.19019451544293559,0.18587531574676183,0.1816191075968586,0.17669697048496177,0.17100865166801513,0.16472750396874025,0.15866939344404413,0.15341785923250445,0.1492667566714382,0.146113023644378,0.14337617239399825,0.14050890878425873,0.13694705004364766,0.13238427646599166,0.12689560435135494,0.12087118319616584,0.11512358254137646,0.11055542240927001,0.10793766538595981,0.10767818505833185,0.1096430942108034,0.11322486031840617,0.11748648611160101,0.12140093325870231,0.12417432292142426,0.12549916234710862,0.1259681978641869,0.127090344516444,0.1311214433428983,0.14067046078451667,0.15804062364133248,0.1848982163125786,0.22162777623940935,0.26698756575365407,0.31804385817528236,0.370070891793785,0.41833831282345296,0.45783755971997886,0.48440929602471516,0.495417255566048,0.48949860404602913,0.46873729950916704,0.4363498564630758,0.3967070111092919,0.3545598018216744,0.31375086432972943,0.278112440382053,0.24954974733394955,0.22840939927693077,0.21370234807730085,0.20324258057843972,0.19523824318558117,0.18784000550591104,0.17982924825414054,0.17077734414085385,0.16068218030205558,0.15060807628914014,0.14144296259530914,0.13381393871414968,0.1278523402044069,0.12288982435152562,0.11838826308905696,0.11345190751801273,0.10738718397141621,0.09998166864680937,0.0,0.0,0.0,0.0,0.0,0.0,0.0,0.0,0.0,0.0,0.0,0.0,0.0,0.0,0.0,0.0,0.0,0.0,0.0,0.0,0.0,0.0,0.0,0.0,0.0,0.0,0.0,0.0,0.0,0.0,0.0,0.0,0.0,0.0,0.0,0.0,0.0,0.0,0.0,0.0,0.0,0.0,0.0,0.0,0.0,0.0,0.0,0.0,0.0,0.0,0.0,0.0,0.0,0.0,0.0,0.0,0.0,0.0,0.0,0.0,0.0,0.0,0.0,0.0,0.0,0.0,0.0,0.0,0.0,0.0,0.0,0.0,0.0,0.0,0.0,0.0,0.0,0.0,0.0,0.0,0.0,0.0,0.0,0.0,0.0,0.0,0.0,0.0,0.0,0.0,0.0,0.0,0.0,0.0,0.0,0.0,0.0,0.0,0.0,0.0,0.0,0.0,0.0,0.0,0.0,0.0,0.0,0.0,0.0,0.0,0.0,0.0,0.0,0.0,0.0,0.0,0.0,0.0,0.0,0.0,0.0,0.0,0.0,0.0,0.0,0.0,0.0,0.0,0.0,0.0,0.0,0.0,0.0,0.0,0.0,0.0,0.0,0.0,0.0,0.0,0.0,0.0,0.0,0.0,0.0,0.0,0.0,0.0,0.0,0.0,0.0,0.0,0.0,0.0,0.0,0.0,0.0,0.0,0.0,0.0,0.0,0.0,0.0,0.0,0.0,0.0,0.0,0.0,0.0,0.0,0.0,0.0,0.0,0.0,0.0,0.0,0.0,0.0,0.0,0.0,0.0,0.0,0.0,0.0,0.0,0.0,0.0,0.0,0.0,0.0,0.0,0.0,0.0,0.0,0.0,0.0,0.0,0.0,0.0,0.0,0.0,0.0,0.0,0.0,0.0,0.0,0.0,0.0,0.0,0.0,0.0,0.0,0.0,0.0,0.0,0.0,0.0,0.0,0.0,0.0,0.0,0.0,0.0,0.0,0.0
0.049396917120873345,-0.08868471484566723,-0.21423022400600505,-0.31638816540519926,-0.3875857293967171,-0.4244832729114839,-0.42837455441596095,-0.4040937507366326,-0.359359561411863,-0.30312465937692407,-0.24402055982661205,-0.1892101350755953,-0.14309746340191584,-0.10746072077056024,-0.081692978761226,-0.06355784674174018,-0.050258451308104704,-0.03894258808560698,-0.027568835213631376,-0.015141868863194378,-0.0016538514025512,0.012048635709456001,0.0253483843044992,0.037719029042480645,0.04916284246951575,0.06025014393663779,0.07167666026355425,0.08481062367919069,0.10042462599024386,0.11868942138811861,0.13903501432580126,0.16009250079504506,0.18028709716706137,0.19768519961905193,0.21057184918834537,0.21781988471496477,0.2191864558336062,0.2152440201474115,0.2071595438563349,0.19650800344030198,0.18497695831694722,0.17396315732003723,0.16486714463576022,0.15823740482392734,0.1541030401054836,0.15213403191892966,0.15152727413243616,0.1522934302730322,0.15392588432054935,0.15597510487823124,0.15809603376766618,0.15993462512691076,0.16147227310464818,0.16266349534592994,0.16351109511367376,0.1640580356164027,0.16445508730454356,0.1645578947899353,0.16464964354173195,0.16501671172644622,0.1657998579018737,0.1668341481243529,0.1677497596381535,0.16826853501436917,0.16820247226242097,0.1675416801873447,0.16629461239802498,0.16504386615713176,0.16446425755444885,0.16517615636884375,0.16746260188129827,0.17078888240430815,0.17430980660400316,0.17637946935277007,0.17484667270196605,0.0,0.0,0.0,0.0,0.0,0.0,0.0,0.0,0.0,0.0,0.0,0.0,0.0,0.0,0.0,0.0,0.0,0.0,0.0,0.0,0.0,0.0,0.0,0.0,0.0,0.0,0.0,0.0,0.0,0.0,0.0,0.0,0.0,0.0,0.0,0.0,0.0,0.0,0.0,0.0,0.0,0.0,0.0,0.0,0.0,0.0,0.0,0.0,0.0,0.0,0.0,0.0,0.0,0.0,0.0,0.0,0.0,0.0,0.0,0.0,0.0,0.0,0.0,0.0,0.0,0.0,0.0,0.0,0.0,0.0,0.0,0.0,0.0,0.0,0.0,0.0,0.0,0.0,0.0,0.0,0.0,0.0,0.0,0.0,0.0,0.0,0.0,0.0,0.0,0.0,0.0,0.0,0.0,0.0,0.0,0.0,0.0,0.0,0.0,0.0,0.0,0.0,0.0,0.0,0.0,0.0,0.0,0.0,0.0,0.0,0.0,0.0,0.0,0.0,0.0,0.0,0.0,0.0,0.0,0.0,0.0,0.0,0.0,0.0,0.0,0.0,0.0,0.0,0.0,0.0,0.0,0.0,0.0,0.0,0.0,0.0,0.0,0.0,0.0,0.0,0.0,0.0,0.0,0.0,0.0,0.0,0.0,0.0,0.0,0.0,0.0,0.0,0.0,0.0,0.0,0.0,0.0,0.0,0.0,0.0,0.0,0.0,0.0,0.0,0.0,0.0,0.0,0.0,0.0,0.0,0.0,0.0,0.0,0.0,0.0,0.0,0.0,0.0,0.0,0.0,0.0,0.0,0.0,0.0,0.0,0.0,0.0,0.0,0.0,0.0,0.0,0.0,0.0,0.0,0.0,0.0,0.0,0.0,0.0,0.0,0.0,0.0,0.0,0.0,0.0,0.0,0.0,0.0,0.0,0.0,0.0,0.0,0.0,0.0,0.0,0.0,0.0,0.0,0.0,0.0,0.0,0.0,0.0,0.0,0.0
0.49806366688481585,0.4969451254840334,0.48116812457153013,0.4544092020390496,0.42120713302868446,0.3861664624375466,0.3525725774663282,0.3238909623938212,0.30151039882691405,0.28537217632722384,0.2742692579902774,0.2658082513140407,0.2586147223974544,0.25121673832755925,0.24282157504595625,0.23338146343908436,0.22302478547790267,0.21306716192298777,0.2043990372840912,0.1975465399016393,0.1924936688878913,0.1883781659278834,0.18464598840678495,0.18043188467304364,0.17513286830538988,0.1686323977895757,0.16112941308567338,0.15383293682116966,0.14797929053512102,0.14471640965708368,0.14477112669126005,0.14802713789286123,0.1540661325639693,0.1617432490174446,0.1696735471255819,0.17665292275953967,0.1819212538483131,0.1859741032910758,0.19019251433875128,0.19681852411638895,0.20853471882781924,0.22773441832979074,0.25626840529423783,0.29450863585893855,0.34113209099933756,0.3931285828988507,0.44574073480763704,0.4945477043472727,0.5349307600683005,0.5633045827351106,0.5777224469698823,0.5774095617428205,0.5650623169157195,0.5440173711131274,0.5182754755338802,0.49170769297599487,0.4667451741040126,0.4458345294318463,0.4293942591412319,0.41657298337209925,0.4056929389821075,0.3943707621913021,0.38153375041916326,0.3664086862488768,0.3490972315155229,0.3304582315509366,0.31137571196649594,0.2936237019178794,0.27822346179384627,0.2655428653780342,0.2552235241197658,0.2459671810359539,0.23696855058480992,0.2272223112112379,0.21616540829080316,0.0,0.0,0.0,0.0,0.0,0.0,0.0,0.0,0.0,0.0,0.0,0.0,0.0,0.0,0.0,0.0,0.0,0.0,0.0,0.0,0.0,0.0,0.0,0.0,0.0,0.0,0.0,0.0,0.0,0.0,0.0,0.0,0.0,0.0,0.0,0.0,0.0,0.0,0.0,0.0,0.0,0.0,0.0,0.0,0.0,0.0,0.0,0.0,0.0,0.0,0.0,0.0,0.0,0.0,0.0,0.0,0.0,0.0,0.0,0.0,0.0,0.0,0.0,0.0,0.0,0.0,0.0,0.0,0.0,0.0,0.0,0.0,0.0,0.0,0.0,0.0,0.0,0.0,0.0,0.0,0.0,0.0,0.0,0.0,0.0,0.0,0.0,0.0,0.0,0.0,0.0,0.0,0.0,0.0,0.0,0.0,0.0,0.0,0.0,0.0,0.0,0.0,0.0,0.0,0.0,0.0,0.0,0.0,0.0,0.0,0.0,0.0,0.0,0.0,0.0,0.0,0.0,0.0,0.0,0.0,0.0,0.0,0.0,0.0,0.0,0.0,0.0,0.0,0.0,0.0,0.0,0.0,0.0,0.0,0.0,0.0,0.0,0.0,0.0,0.0,0.0,0.0,0.0,0.0,0.0,0.0,0.0,0.0,0.0,0.0,0.0,0.0,0.0,0.0,0.0,0.0,0.0,0.0,0.0,0.0,0.0,0.0,0.0,0.0,0.0,0.0,0.0,0.0,0.0,0.0,0.0,0.0,0.0,0.0,0.0,0.0,0.0,0.0,0.0,0.0,0.0,0.0,0.0,0.0,0.0,0.0,0.0,0.0,0.0,0.0,0.0,0.0,0.0,0.0,0.0,0.0,0.0,0.0,0.0,0.0,0.0,0.0,0.0,0.0,0.0,0.0,0.0,0.0,0.0,0.0,0.0,0.0,0.0,0.0,0.0,0.0,0.0,0.0,0.0,0.0,0.0,0.0,0.0,0.0,0.0
-0.31274086765371095,-0.32917435090040187,-0.31292883783977565,-0.2641748165317763,-0.1870858694171721,-0.0891921861860616,0.019533171732562717,0.1276692689369595,0.22455371626141707,0.3008568712810499,0.3498807810515758,0.3682406943655273,0.3557818774695443,0.31628411128884354,0.25596548319902945,0.1827248016339166,0.10494991497544115,0.029690003635670315,-0.036442923207245806,-0.08987321951343495,-0.1298573755114694,-0.15834086441464498,-0.18024381948275245,-0.19944181990931917,-0.2203728460569702,-0.24601847364495436,-0.2770972709366616,-0.3125594566150281,-0.34753806479188076,-0.3765670488907001,-0.3941151811416672,-0.39585367745867817,-0.3802262004099029,-0.3470933284232419,-0.2994086654547583,-0.2420355167317571,-0.18075801666308414,-0.12172106464485188,-0.06884194556504303,-0.024854260106419397,0.009323154778032366,0.0343376441325099,0.0514294663752114,0.06332740619685064,0.07227237695520666,0.08009129258672043,0.08803520443221838,0.09648716092114026,0.10597577624989489,0.11667065684761352,0.1286170842965288,0.14173276473192686,0.15561734578953715,0.16980693926481186,0.1839276774845154,0.1975984237481282,0.21050707082939976,0.22227386455705822,0.23354831621618763,0.24548842680834604,0.25995186760084515,0.2792813769268727,0.30542134264554405,0.34081149099130414,0.386233137282313,0.4408012011623707,0.5017529233448007,0.5641170048148126,0.6227696518274684,0.6720310417002545,0.7069620678290013,0.7242244697627286,0.7221367732478906,0.7023906206787326,0.6687911104771118,0.0,0.0,0.0,0.0,0.0,0.0,0.0,0.0,0.0,0.0,0.0,0.0,0.0,0.0,0.0,0.0,0.0,0.0,0.0,0.0,0.0,0.0,0.0,0.0,0.0,0.0,0.0,0.0,0.0,0.0,0.0,0.0,0.0,0.0,0.0,0.0,0.0,0.0,0.0,0.0,0.0,0.0,0.0,0.0,0.0,0.0,0.0,0.0,0.0,0.0,0.0,0.0,0.0,0.0,0.0,0.0,0.0,0.0,0.0,0.0,0.0,0.0,0.0,0.0,0.0,0.0,0.0,0.0,0.0,0.0,0.0,0.0,0.0,0.0,0.0,0.0,0.0,0.0,0.0,0.0,0.0,0.0,0.0,0.0,0.0,0.0,0.0,0.0,0.0,0.0,0.0,0.0,0.0,0.0,0.0,0.0,0.0,0.0,0.0,0.0,0.0,0.0,0.0,0.0,0.0,0.0,0.0,0.0,0.0,0.0,0.0,0.0,0.0,0.0,0.0,0.0,0.0,0.0,0.0,0.0,0.0,0.0,0.0,0.0,0.0,0.0,0.0,0.0,0.0,0.0,0.0,0.0,0.0,0.0,0.0,0.0,0.0,0.0,0.0,0.0,0.0,0.0,0.0,0.0,0.0,0.0,0.0,0.0,0.0,0.0,0.0,0.0,0.0,0.0,0.0,0.0,0.0,0.0,0.0,0.0,0.0,0.0,0.0,0.0,0.0,0.0,0.0,0.0,0.0,0.0,0.0,0.0,0.0,0.0,0.0,0.0,0.0,0.0,0.0,0.0,0.0,0.0,0.0,0.0,0.0,0.0,0.0,0.0,0.0,0.0,0.0,0.0,0.0,0.0,0.0,0.0,0.0,0.0,0.0,0.0,0.0,0.0,0.0,0.0,0.0,0.0,0.0,0.0,0.0,0.0,0.0,0.0,0.0,0.0,0.0,0.0,0.0,0.0,0.0,0.0,0.0,0.0,0.0,0.0,0.0
0.6382153240242487,0.638554270615559,0.6254181351445125,0.6022215403698041,0.5731090913136457,0.5422759765362587,0.5128293616760546,0.48800657547072807,0.4689817546610595,0.45553304823166213,0.4463366290482687,0.43903110597602635,0.4320821740852912,0.42375113053588653,0.4129891049218038,0.3996934106496627,0.38445637266033705,0.3695811979597614,0.357574739305197,0.3511991458336559,0.35305019225105666,0.3648419774266076,0.3878692421340842,0.4216923792234775,0.46431750149171613,0.5123009303017362,0.5606862852302491,0.6049726279772707,0.6404643303347591,0.6634048471562373,0.6715516683524158,0.6639073213902147,0.64259578277866,0.6107926065377901,0.5726415203230212,0.5325023966694901,0.4937127787236059,0.45958484447744985,0.43161784522828645,0.40991866452990916,0.3934531249865644,0.38008393096457077,0.36836306673220914,0.35678983444113554,0.3444705258853152,0.33120701474785175,0.316931292042463,0.30296025383982433,0.29006229347394574,0.27871447446081604,0.26896090450913906,0.2599151222949882,0.2516481047266918,0.24338983693429642,0.23450533035778534,0.22475105097424863,0.21395985523820818,0.2034410238552568,0.19401768116291707,0.1863187247105702,0.18054119743935823,0.1759801804659094,0.17228576990743322,0.16827953312098032,0.16282762993856456,0.15530698721454597,0.1456501039710854,0.13570872476202533,0.12783015345629992,0.124955245369384,0.13007277698973363,0.14523308988068784,0.17208341566906682,0.21018390143323748,0.25730497718369355,0.0,0.0,0.0,0.0,0.0,0.0,0.0,0.0,0.0,0.0,0.0,0.0,0.0,0.0,0.0,0.0,0.0,0.0,0.0,0.0,0.0,0.0,0.0,0.0,0.0,0.0,0.0,0.0,0.0,0.0,0.0,0.0,0.0,0.0,0.0,0.0,0.0,0.0,0.0,0.0,0.0,0.0,0.0,0.0,0.0,0.0,0.0,0.0,0.0,0.0,0.0,0.0,0.0,0.0,0.0,0.0,0.0,0.0,0.0,0.0,0.0,0.0,0.0,0.0,0.0,0.0,0.0,0.0,0.0,0.0,0.0,0.0,0.0,0.0,0.0,0.0,0.0,0.0,0.0,0.0,0.0,0.0,0.0,0.0,0.0,0.0,0.0,0.0,0.0,0.0,0.0,0.0,0.0,0.0,0.0,0.0,0.0,0.0,0.0,0.0,0.0,0.0,0.0,0.0,0.0,0.0,0.0,0.0,0.0,0.0,0.0,0.0,0.0,0.0,0.0,0.0,0.0,0.0,0.0,0.0,0.0,0.0,0.0,0.0,0.0,0.0,0.0,0.0,0.0,0.0,0.0,0.0,0.0,0.0,0.0,0.0,0.0,0.0,0.0,0.0,0.0,0.0,0.0,0.0,0.0,0.0,0.0,0.0,0.0,0.0,0.0,0.0,0.0,0.0,0.0,0.0,0.0,0.0,0.0,0.0,0.0,0.0,0.0,0.0,0.0,0.0,0.0,0.0,0.0,0.0,0.0,0.0,0.0,0.0,0.0,0.0,0.0,0.0,0.0,0.0,0.0,0.0,0.0,0.0,0.0,0.0,0.0,0.0,0.0,0.0,0.0,0.0,0.0,0.0,0.0,0.0,0.0,0.0,0.0,0.0,0.0,0.0,0.0,0.0,0.0,0.0,0.0,0.0,0.0,0.0,0.0,0.0,0.0,0.0,0.0,0.0,0.0,0.0,0.0,0.0,0.0,0.0,0.0,0.0,0.0
0.5438381847685706,0.52645679389567,0.49841702899784535,0.4639539681320461,0.42748059874228883,0.39273599939738896,0.36281062404026027,0.33896608446268095,0.3210238706263876,0.3077171963886669,0.2970078583871597,0.28735549750951145,0.27725456507166546,0.265852172795224,0.2530612667215571,0.23922631479662082,0.22574795394753241,0.2138385749030461,0.20452274703606335,0.19840533705444724,0.19523870468578675,0.19490375883344005,0.19656545591521227,0.19915938510131923,0.2016409068374441,0.20299283871031554,0.2032496874543139,0.20284663402797723,0.20286294878678582,0.20487647662044092,0.21047800333002178,0.22149213998114967,0.2389133702723007,0.26268083705911327,0.29139382372127226,0.3220211045388132,0.3507746798001808,0.3728583928987957,0.3833361724545084,0.3779111708221035,0.35346952894898653,0.3094822056573885,0.24760301294398293,0.1719092469626084,0.08850180722137667,0.004357334723674682,-0.07241135938819056,-0.13503493165449026,-0.17863551989698429,-0.20090755637935018,-0.20289310009448927,-0.18693737016573475,-0.15797135690002712,-0.12185715296884955,-0.08426622411097479,-0.05035295086970049,-0.02200805995074562,0.0002467431704220476,0.017610976765152806,0.03237510815740056,0.04635354922485056,0.06255346384318342,0.08244450941937632,0.1062876817598829,0.13311837233443422,0.16031915203117628,0.18610245121743668,0.2081343002787936,0.224474796905361,0.23386163651146785,0.23530063503889082,0.22980159190599644,0.2187455885295789,0.20408801982886393,0.1880384012822538,0.0,0.0,0.0,0.0,0.0,0.0,0.0,0.0,0.0,0.0,0.0,0.0,0.0,0.0,0.0,0.0,0.0,0.0,0.0,0.0,0.0,0.0,0.0,0.0,0.0,0.0,0.0,0.0,0.0,0.0,0.0,0.0,0.0,0.0,0.0,0.0,0.0,0.0,0.0,0.0,0.0,0.0,0.0,0.0,0.0,0.0,0.0,0.0,0.0,0.0,0.0,0.0,0.0,0.0,0.0,0.0,0.0,0.0,0.0,0.0,0.0,0.0,0.0,0.0,0.0,0.0,0.0,0.0,0.0,0.0,0.0,0.0,0.0,0.0,0.0,0.0,0.0,0.0,0.0,0.0,0.0,0.0,0.0,0.0,0.0,0.0,0.0,0.0,0.0,0.0,0.0,0.0,0.0,0.0,0.0,0.0,0.0,0.0,0.0,0.0,0.0,0.0,0.0,0.0,0.0,0.0,0.0,0.0,0.0,0.0,0.0,0.0,0.0,0.0,0.0,0.0,0.0,0.0,0.0,0.0,0.0,0.0,0.0,0.0,0.0,0.0,0.0,0.0,0.0,0.0,0.0,0.0,0.0,0.0,0.0,0.0,0.0,0.0,0.0,0.0,0.0,0.0,0.0,0.0,0.0,0.0,0.0,0.0,0.0,0.0,0.0,0.0,0.0,0.0,0.0,0.0,0.0,0.0,0.0,0.0,0.0,0.0,0.0,0.0,0.0,0.0,0.0,0.0,0.0,0.0,0.0,0.0,0.0,0.0,0.0,0.0,0.0,0.0,0.0,0.0,0.0,0.0,0.0,0.0,0.0,0.0,0.0,0.0,0.0,0.0,0.0,0.0,0.0,0.0,0.0,0.0,0.0,0.0,0.0,0.0,0.0,0.0,0.0,0.0,0.0,0.0,0.0,0.0,0.0,0.0,0.0,0.0,0.0,0.0,0.0,0.0,0.0,0.0,0.0,0.0,0.0,0.0,0.0,0.0,0.0
-0.18693737016573475,-0.15797135690002712,-0.12185715296884955,-0.08426622411097479,-0.05035295086970049,-0.02200805995074562,0.0002467431704220476,0.017610976765152806,0.03237510815740056,0.04635354922485056,0.06255346384318342,0.08244450941937632,0.1062876817598829,0.13311837233443422,0.16031915203117628,0.18610245121743668,0.2081343002787936,0.224474796905361,0.23386163651146785,0.23530063503889082,0.22980159190599644,0.2187455885295789,0.20408801982886393,0.1880384012822538,0.1721959089105438,0.1588297545730924,0.1491874991790898,0.1437521639571942,0.14221516605303977,0.14312841410671232,0.14565353209077997,0.14854585318198016,0.15086453508732925,0.15218909467804728,0.15240100794758157,0.15256509592588666,0.15365515196367255,0.1566275061043839,0.1621630233030547,0.17037329458227732,0.18117661689188566,0.19361091022631674,0.20639927868191052,0.2183621796942583,0.22878509647720627,0.23798504773626533,0.2471835017701802,0.25849414866283255,0.27456133608546196,0.29795892604683255,0.3305202933068337,0.37292710254145967,0.4241414228074089,0.4812672878929528,0.5396753592321695,0.5941092720199277,0.6393963809344326,0.6714409513913032,0.6879732397004437,0.6886395027801117,0.6757592162528583,0.6531096718791923,0.6252387457421322,0.5964920835483217,0.5698183216054916,0.5474423450793847,0.5297917636164746,0.5161091903511237,0.5050109273961999,0.494641675413978,0.48460994723698086,0.47482391769602006,0.4657529920322063,0.45800273861093416,0.4514906121480417,0.0,0.0,0.0,0.0,0.0,0.0,0.0,0.0,0.0,0.0,0.0,0.0,0.0,0.0,0.0,0.0,0.0,0.0,0.0,0.0,0.0,0.0,0.0,0.0,0.0,0.0,0.0,0.0,0.0,0.0,0.0,0.0,0.0,0.0,0.0,0.0,0.0,0.0,0.0,0.0,0.0,0.0,0.0,0.0,0.0,0.0,0.0,0.0,0.0,0.0,0.0,0.0,0.0,0.0,0.0,0.0,0.0,0.0,0.0,0.0,0.0,0.0,0.0,0.0,0.0,0.0,0.0,0.0,0.0,0.0,0.0,0.0,0.0,0.0,0.0,0.0,0.0,0.0,0.0,0.0,0.0,0.0,0.0,0.0,0.0,0.0,0.0,0.0,0.0,0.0,0.0,0.0,0.0,0.0,0.0,0.0,0.0,0.0,0.0,0.0,0.0,0.0,0.0,0.0,0.0,0.0,0.0,0.0,0.0,0.0,0.0,0.0,0.0,0.0,0.0,0.0,0.0,0.0,0.0,0.0,0.0,0.0,0.0,0.0,0.0,0.0,0.0,0.0,0.0,0.0,0.0,0.0,0.0,0.0,0.0,0.0,0.0,0.0,0.0,0.0,0.0,0.0,0.0,0.0,0.0,0.0,0.0,0.0,0.0,0.0,0.0,0.0,0.0,0.0,0.0,0.0,0.0,0.0,0.0,0.0,0.0,0.0,0.0,0.0,0.0,0.0,0.0,0.0,0.0,0.0,0.0,0.0,0.0,0.0,0.0,0.0,0.0,0.0,0.0,0.0,0.0,0.0,0.0,0.0,0.0,0.0,0.0,0.0,0.0,0.0,0.0,0.0,0.0,0.0,0.0,0.0,0.0,0.0,0.0,0.0,0.0,0.0,0.0,0.0,0.0,0.0,0.0,0.0,0.0,0.0,0.0,0.0,0.0,0.0,0.0,0.0,0.0,0.0,0.0,0.0,0.0,0.0,0.0,0.0,0.0
0.6714409513913032,0.6879732397004437,0.6886395027801117,0.6757592162528583,0.6531096718791923,0.6252387457421322,0.5964920835483217,0.5698183216054916,0.5474423450793847,0.5297917636164746,0.5161091903511237,0.5050109273961999,0.494641675413978,0.48460994723698086,0.47482391769602006,0.4657529920322063,0.45800273861093416,0.4514906121480417,0.4458227289043039,0.4391816988112763,0.42870979753704963,0.4109945498256683,0.3827478786096783,0.3419342712357984,0.2881334258475144,0.22311332870458242,0.1508492040654918,0.07688118076817922,0.00810776001325025,-0.04895951977584965,-0.0891025100099033,-0.10929614169468475,-0.10951924977005414,-0.09173711083547299,-0.06032284454427846,-0.020886290059065612,0.020795318574561465,0.05918987921224441,0.09164921011948894,0.11706082173311035,0.13614890531493773,0.1508867788438077,0.16280430957343311,0.17498551782082564,0.18908508237446506,0.20568696561774538,0.22428651639373304,0.24278022977779037,0.2604033705902133,0.2758130149044407,0.28823514848859494,0.2976862539436584,0.30431002121695483,0.3103423993943066,0.31728759406322027,0.3262895892695862,0.3377633182024163,0.35030359810144795,0.3633005500063374,0.374322636453104,0.380264160733618,0.37784038246117424,0.36319404058408966,0.33576625268628185,0.29583093725870885,0.24563037989451572,0.18924484815033174,0.13116052783248525,0.078331871873161,0.03647882320162888,0.00988982593459364,0.0006493138394892537,0.0074677883826281995,0.02840230306892626,0.05909280154190737,0.0,0.0,0.0,0.0,0.0,0.0,0.0,0.0,0.0,0.0,0.0,0.0,0.0,0.0,0.0,0.0,0.0,0.0,0.0,0.0,0.0,0.0,0.0,0.0,0.0,0.0,0.0,0.0,0.0,0.0,0.0,0.0,0.0,0.0,0.0,0.0,0.0,0.0,0.0,0.0,0.0,0.0,0.0,0.0,0.0,0.0,0.0,0.0,0.0,0.0,0.0,0.0,0.0,0.0,0.0,0.0,0.0,0.0,0.0,0.0,0.0,0.0,0.0,0.0,0.0,0.0,0.0,0.0,0.0,0.0,0.0,0.0,0.0,0.0,0.0,0.0,0.0,0.0,0.0,0.0,0.0,0.0,0.0,0.0,0.0,0.0,0.0,0.0,0.0,0.0,0.0,0.0,0.0,0.0,0.0,0.0,0.0,0.0,0.0,0.0,0.0,0.0,0.0,0.0,0.0,0.0,0.0,0.0,0.0,0.0,0.0,0.0,0.0,0.0,0.0,0.0,0.0,0.0,0.0,0.0,0.0,0.0,0.0,0.0,0.0,0.0,0.0,0.0,0.0,0.0,0.0,0.0,0.0,0.0,0.0,0.0,0.0,0.0,0.0,0.0,0.0,0.0,0.0,0.0,0.0,0.0,0.0,0.0,0.0,0.0,0.0,0.0,0.0,0.0,0.0,0.0,0.0,0.0,0.0,0.0,0.0,0.0,0.0,0.0,0.0,0.0,0.0,0.0,0.0,0.0,0.0,0.0,0.0,0.0,0.0,0.0,0.0,0.0,0.0,0.0,0.0,0.0,0.0,0.0,0.0,0.0,0.0,0.0,0.0,0.0,0.0,0.0,0.0,0.0,0.0,0.0,0.0,0.0,0.0,0.0,0.0,0.0,0.0,0.0,0.0,0.0,0.0,0.0,0.0,0.0,0.0,0.0,0.0,0.0,0.0,0.0,0.0,0.0,0.0,0.0,0.0,0.0,0.0,0.0,0.0
0.02840230306892626,0.05909280154190737,0.09444378044663508,0.1297184464605291,0.1607429730423816,0.18696461088919816,0.20967129548988922,0.23214372991510074,0.25878757908156896,0.2932401512360011,0.3394232770887104,0.399040198782633,0.47126410637868305,0.5524930078250155,0.6363468441847888,0.7152930959795565,0.7811484124574514,0.8265568416047897,0.8461984365684622,0.837872292197174,0.802384817716254,0.7436667249449878,0.668221524069395,0.5842841091532442,0.5006222656982,0.42617587807969637,0.36839190706153546,0.3327635393873709,0.32236978173802633,0.3370942237170884,0.3755217027262919,0.4334893322071768,0.5050669517463126,0.5831904327257319,0.6597284977355872,0.728530757669022,0.7841615008455937,0.8230958919487159,0.8440110837134375,0.8469115854818473,0.8353296553571322,0.8133117962558754,0.7853415097205165,0.7556061788357391,0.7268413510558482,0.7020873002838808,0.6831033300592723,0.6711301522088683,0.6672012739580409,0.6718733059231734,0.686489991525549,0.7117971403867094,0.7475436206212641,0.791734807040813,0.8394520019364986,0.8845712201640638,0.9186226414536115,0.9321797868348917,0.9162683401235852,0.8632432308062542,0.7707705285232694,0.6408849926512539,0.48098411082094983,0.30329751384045817,0.12253925528257065,-0.04324587148126404,-0.1780031306640046,-0.26919448911603494,-0.3096733124426689,-0.2997503181054267,-0.2435840965955918,-0.15165446970813415,-0.03766562167104797,0.08384044366985237,0.19883097925839574,0.0,0.0,0.0,0.0,0.0,0.0,0.0,0.0,0.0,0.0,0.0,0.0,0.0,0.0,0.0,0.0,0.0,0.0,0.0,0.0,0.0,0.0,0.0,0.0,0.0,0.0,0.0,0.0,0.0,0.0,0.0,0.0,0.0,0.0,0.0,0.0,0.0,0.0,0.0,0.0,0.0,0.0,0.0,0.0,0.0,0.0,0.0,0.0,0.0,0.0,0.0,0.0,0.0,0.0,0.0,0.0,0.0,0.0,0.0,0.0,0.0,0.0,0.0,0.0,0.0,0.0,0.0,0.0,0.0,0.0,0.0,0.0,0.0,0.0,0.0,0.0,0.0,0.0,0.0,0.0,0.0,0.0,0.0,0.0,0.0,0.0,0.0,0.0,0.0,0.0,0.0,0.0,0.0,0.0,0.0,0.0,0.0,0.0,0.0,0.0,0.0,0.0,0.0,0.0,0.0,0.0,0.0,0.0,0.0,0.0,0.0,0.0,0.0,0.0,0.0,0.0,0.0,0.0,0.0,0.0,0.0,0.0,0.0,0.0,0.0,0.0,0.0,0.0,0.0,0.0,0.0,0.0,0.0,0.0,0.0,0.0,0.0,0.0,0.0,0.0,0.0,0.0,0.0,0.0,0.0,0.0,0.0,0.0,0.0,0.0,0.0,0.0,0.0,0.0,0.0,0.0,0.0,0.0,0.0,0.0,0.0,0.0,0.0,0.0,0.0,0.0,0.0,0.0,0.0,0.0,0.0,0.0,0.0,0.0,0.0,0.0,0.0,0.0,0.0,0.0,0.0,0.0,0.0,0.0,0.0,0.0,0.0,0.0,0.0,0.0,0.0,0.0,0.0,0.0,0.0,0.0,0.0,0.0,0.0,0.0,0.0,0.0,0.0,0.0,0.0,0.0,0.0,0.0,0.0,0.0,0.0,0.0,0.0,0.0,0.0,0.0,0.0,0.0,0.0,0.0,0.0,0.0,0.0,0.0,0.0
0.12253925528257065,-0.04324587148126404,-0.1780031306640046,-0.26919448911603494,-0.3096733124426689,-0.2997503181054267,-0.2435840965955918,-0.15165446970813415,-0.03766562167104797,0.08384044366985237,0.19883097925839574,0.2987126951023521,0.37832315517979725,0.43690854401683915,0.47735419978237364,0.5039715836326126,0.5236395575762568,0.5419420499121405,0.562749525368754,0.5876223344727662,0.6147679258594673,0.6427589311592563,0.6682050490463579,0.6875592884014889,0.6978904691631587,0.6962731170746495,0.6838589366927686,0.6620610793593446,0.6334963071135055,0.6015771731125125,0.5690356083970514,0.540603116357276,0.5193138080828965,0.5072222315084696,0.505263877061866,0.5124763127540339,0.528706596610992,0.5521124732504664,0.5802897941108914,0.6105765875178506,0.6394251572809634,0.6657288592812451,0.6878272388264088,0.7046701873540376,0.715889297973835,0.7206989416916028,0.7213065188965346,0.719008975231563,0.7151518533510559,0.7109451792329528,0.7066168567410684,0.703549939094551,0.7022685860564643,0.7030559706078423,0.7060010604920706,0.7106940460758839,0.7171156191799685,0.7252700542224072,0.7350357378154385,0.7459887587975418,0.7569539327313883,0.7672208452628824,0.7758299093241808,0.7821222910933471,0.7859764571030128,0.7875033864813351,0.7883247316949822,0.7897048211849866,0.7926883802145275,0.7977223021228663,0.803972138973005,0.8106939639098335,0.8156434691407453,0.8161015091973862,0.8094681471427199,0.0,0.0,0.0,0.0,0.0,0.0,0.0,0.0,0.0,0.0,0.0,0.0,0.0,0.0,0.0,0.0,0.0,0.0,0.0,0.0,0.0,0.0,0.0,0.0,0.0,0.0,0.0,0.0,0.0,0.0,0.0,0.0,0.0,0.0,0.0,0.0,0.0,0.0,0.0,0.0,0.0,0.0,0.0,0.0,0.0,0.0,0.0,0.0,0.0,0.0,0.0,0.0,0.0,0.0,0.0,0.0,0.0,0.0,0.0,0.0,0.0,0.0,0.0,0.0,0.0,0.0,0.0,0.0,0.0,0.0,0.0,0.0,0.0,0.0,0.0,0.0,0.0,0.0,0.0,0.0,0.0,0.0,0.0,0.0,0.0,0.0,0.0,0.0,0.0,0.0,0.0,0.0,0.0,0.0,0.0,0.0,0.0,0.0,0.0,0.0,0.0,0.0,0.0,0.0,0.0,0.0,0.0,0.0,0.0,0.0,0.0,0.0,0.0,0.0,0.0,0.0,0.0,0.0,0.0,0.0,0.0,0.0,0.0,0.0,0.0,0.0,0.0,0.0,0.0,0.0,0.0,0.0,0.0,0.0,0.0,0.0,0.0,0.0,0.0,0.0,0.0,0.0,0.0,0.0,0.0,0.0,0.0,0.0,0.0,0.0,0.0,0.0,0.0,0.0,0.0,0.0,0.0,0.0,0.0,0.0,0.0,0.0,0.0,0.0,0.0,0.0,0.0,0.0,0.0,0.0,0.0,0.0,0.0,0.0,0.0,0.0,0.0,0.0,0.0,0.0,0.0,0.0,0.0,0.0,0.0,0.0,0.0,0.0,0.0,0.0,0.0,0.0,0.0,0.0,0.0,0.0,0.0,0.0,0.0,0.0,0.0,0.0,0.0,0.0,0.0,0.0,0.0,0.0,0.0,0.0,0.0,0.0,0.0,0.0,0.0,0.0,0.0,0.0,0.0,0.0,0.0,0.0,0.0,0.0,0.0
0.22486081823561144,0.1920755000984195,0.16794272316975414,0.15069708289715927,0.1390892976690604,0.13051129410675508,0.12248846679101272,0.11328397878803365,0.10162498879818146,0.08894606913274065,0.07654484103283182,0.06598738498009839,0.058625234406313134,0.05451400950170291,0.05455922969462805,0.05787751624082248,0.06300148445683414,0.06835695435598242,0.07216745544611428,0.07466487937998051,0.07599763194730402,0.07682950738507228,0.07808867430565171,0.08022597143042902,0.08440160401134396,0.0906789984034176,0.09859073390498309,0.1073152845482392,0.11551225531509389,0.12300048311248626,0.129180215100328,0.13371283266423373,0.13654189479082668,0.13744739699075545,0.13738453461601388,0.1365817760427526,0.13518412834833657,0.13334258412736097,0.13103205183415523,0.12918029750766938,0.1281700927725087,0.1283740219981814,0.13014327346389526,0.13359394778221273,0.13924580923272128,0.14678794442044418,0.15557333921133054,0.1647794938395343,0.17352601649028063,0.1814915148374719,0.18834856835507346,0.19415999975687837,0.19941571421517337,0.20492692648281802,0.21172639259730489,0.220510652873724,0.2314977266183302,0.2442775827203706,0.25783241371720655,0.2706930119407924,0.28112845122512997,0.28760042127739305,0.28913945122556783,0.2856419279003376,0.27777228211085964,0.2668209024419725,0.25437877871201375,0.24194571219128796,0.23058205484959754,0.2207233702116959,0.2120603833529913,0.20375503309154375,0.19475197315700815,0.18407641958327034,0.171312353732987,0.0,0.0,0.0,0.0,0.0,0.0,0.0,0.0,0.0,0.0,0.0,0.0,0.0,0.0,0.0,0.0,0.0,0.0,0.0,0.0,0.0,0.0,0.0,0.0,0.0,0.0,0.0,0.0,0.0,0.0,0.0,0.0,0.0,0.0,0.0,0.0,0.0,0.0,0.0,0.0,0.0,0.0,0.0,0.0,0.0,0.0,0.0,0.0,0.0,0.0,0.0,0.0,0.0,0.0,0.0,0.0,0.0,0.0,0.0,0.0,0.0,0.0,0.0,0.0,0.0,0.0,0.0,0.0,0.0,0.0,0.0,0.0,0.0,0.0,0.0,0.0,0.0,0.0,0.0,0.0,0.0,0.0,0.0,0.0,0.0,0.0,0.0,0.0,0.0,0.0,0.0,0.0,0.0,0.0,0.0,0.0,0.0,0.0,0.0,0.0,0.0,0.0,0.0,0.0,0.0,0.0,0.0,0.0,0.0,0.0,0.0,0.0,0.0,0.0,0.0,0.0,0.0,0.0,0.0,0.0,0.0,0.0,0.0,0.0,0.0,0.0,0.0,0.0,0.0,0.0,0.0,0.0,0.0,0.0,0.0,0.0,0.0,0.0,0.0,0.0,0.0,0.0,0.0,0.0,0.0,0.0,0.0,0.0,0.0,0.0,0.0,0.0,0.0,0.0,0.0,0.0,0.0,0.0,0.0,0.0,0.0,0.0,0.0,0.0,0.0,0.0,0.0,0.0,0.0,0.0,0.0,0.0,0.0,0.0,0.0,0.0,0.0,0.0,0.0,0.0,0.0,0.0,0.0,0.0,0.0,0.0,0.0,0.0,0.0,0.0,0.0,0.0,0.0,0.0,0.0,0.0,0.0,0.0,0.0,0.0,0.0,0.0,0.0,0.0,0.0,0.0,0.0,0.0,0.0,0.0,0.0,0.0,0.0,0.0,0.0,0.0,0.0,0.0,0.0,0.0,0.0,0.0,0.0,0.0,0.0
0.30027605122452566,0.3298186110018566,0.3547668280420632,0.3758379465573529,0.3952842746386841,0.414997417591436,0.436353245599344,0.45981663990499133,0.484613233511839,0.5093560763300858,0.5321240095364392,0.5510566539643184,0.5648664517679193,0.5734286301246175,0.577093720498248,0.5772421029922172,0.5756483460283274,0.5739950082431092,0.5737320908670704,0.5750156047521929,0.5775211424495311,0.5804916418644357,0.5831235647182992,0.5852153116500202,0.586425473567688,0.5870330435720645,0.5875238591880672,0.5883311219712274,0.5898846840638021,0.5917214079138255,0.5932970803501144,0.5940225998094217,0.5935386792241555,0.5921236139739258,0.5899946887451517,0.5877668431908972,0.5859851542446594,0.584865283941409,0.5841423190885158,0.5832721509604026,0.5816934924846602,0.5791917393296117,0.5761918886586626,0.5735410483169465,0.5732031482365232,0.577056760854123,0.5863529774283712,0.6009733937326435,0.6185982110550167,0.6356024067632045,0.6465017083768911,0.6451175532548074,0.6257548988066245,0.5841122495734882,0.5193805002455679,0.43355484144349826,0.3317733630879855,0.22162896171830335,0.11141547059065088,0.010439140213760465,-0.07434242936493853,-0.13886395995648343,-0.18249697537001774,-0.20865128477630465,-0.22140733946113086,-0.22673736724415552,-0.2302547227158331,-0.23596675119958602,-0.24639824385880432,-0.25981762150884574,-0.27357935392177163,-0.2843751783928811,-0.28943652702915434,-0.28840755071805196,-0.28081036475616944,0.0,0.0,0.0,0.0,0.0,0.0,0.0,0.0,0.0,0.0,0.0,0.0,0.0,0.0,0.0,0.0,0.0,0.0,0.0,0.0,0.0,0.0,0.0,0.0,0.0,0.0,0.0,0.0,0.0,0.0,0.0,0.0,0.0,0.0,0.0,0.0,0.0,0.0,0.0,0.0,0.0,0.0,0.0,0.0,0.0,0.0,0.0,0.0,0.0,0.0,0.0,0.0,0.0,0.0,0.0,0.0,0.0,0.0,0.0,0.0,0.0,0.0,0.0,0.0,0.0,0.0,0.0,0.0,0.0,0.0,0.0,0.0,0.0,0.0,0.0,0.0,0.0,0.0,0.0,0.0,0.0,0.0,0.0,0.0,0.0,0.0,0.0,0.0,0.0,0.0,0.0,0.0,0.0,0.0,0.0,0.0,0.0,0.0,0.0,0.0,0.0,0.0,0.0,0.0,0.0,0.0,0.0,0.0,0.0,0.0,0.0,0.0,0.0,0.0,0.0,0.0,0.0,0.0,0.0,0.0,0.0,0.0,0.0,0.0,0.0,0.0,0.0,0.0,0.0,0.0,0.0,0.0,0.0,0.0,0.0,0.0,0.0,0.0,0.0,0.0,0.0,0.0,0.0,0.0,0.0,0.0,0.0,0.0,0.0,0.0,0.0,0.0,0.0,0.0,0.0,0.0,0.0,0.0,0.0,0.0,0.0,0.0,0.0,0.0,0.0,0.0,0.0,0.0,0.0,0.0,0.0,0.0,0.0,0.0,0.0,0.0,0.0,0.0,0.0,0.0,0.0,0.0,0.0,0.0,0.0,0.0,0.0,0.0,0.0,0.0,0.0,0.0,0.0,0.0,0.0,0.0,0.0,0.0,0.0,0.0,0.0,0.0,0.0,0.0,0.0,0.0,0.0,0.0,0.0,0.0,0.0,0.0,0.0,0.0,0.0,0.0,0.0,0.0,0.0,0.0,0.0,0.0,0.0,0.0,0.0
0.010439140213760465,-0.07434242936493853,-0.13886395995648343,-0.18249697537001774,-0.20865128477630465,-0.22140733946113086,-0.22673736724415552,-0.2302547227158331,-0.23596675119958602,-0.24639824385880432,-0.25981762150884574,-0.27357935392177163,-0.2843751783928811,-0.28943652702915434,-0.28840755071805196,-0.28081036475616944,-0.26871580319574917,-0.255098794457601,-0.2427798315435369,-0.23436820528874075,-0.2285193199702035,-0.22283378335008724,-0.21346993213369195,-0.19612313605791948,-0.168185091678239,-0.12655107999881574,-0.07133759316319555,-0.005066767955297495,0.0677145180048155,0.14019580740032553,0.20741436400305138,0.26409123588896577,0.30623812796592415,0.3315521720675505,0.33854481494343563,0.32958201765980133,0.3075906588630279,0.2765938049329351,0.24126841549268696,0.20551374302343794,0.17506907908387773,0.1540556253580121,0.14549091279593632,0.15098465891782345,0.1696446664897831,0.2011326549707194,0.24288929877007304,0.29142757256926166,0.34281835862882565,0.39250791919131905,0.43796959010663467,0.47717896441054564,0.5093057175317058,0.5346520583398279,0.5539345164889226,0.5692114476418786,0.5826354198940263,0.5960900498451736,0.6107462833502768,0.6263712018357966,0.6426359390616547,0.6586997207710034,0.6736591658714476,0.6868405083607257,0.6975372255282538,0.7062605656118273,0.713989417285136,0.7218703326125491,0.7307513568561772,0.7403510565002198,0.7504143962699219,0.7601352899755769,0.7685178535551342,0.7746622053516287,0.777536310460342,0.0,0.0,0.0,0.0,0.0,0.0,0.0,0.0,0.0,0.0,0.0,0.0,0.0,0.0,0.0,0.0,0.0,0.0,0.0,0.0,0.0,0.0,0.0,0.0,0.0,0.0,0.0,0.0,0.0,0.0,0.0,0.0,0.0,0.0,0.0,0.0,0.0,0.0,0.0,0.0,0.0,0.0,0.0,0.0,0.0,0.0,0.0,0.0,0.0,0.0,0.0,0.0,0.0,0.0,0.0,0.0,0.0,0.0,0.0,0.0,0.0,0.0,0.0,0.0,0.0,0.0,0.0,0.0,0.0,0.0,0.0,0.0,0.0,0.0,0.0,0.0,0.0,0.0,0.0,0.0,0.0,0.0,0.0,0.0,0.0,0.0,0.0,0.0,0.0,0.0,0.0,0.0,0.0,0.0,0.0,0.0,0.0,0.0,0.0,0.0,0.0,0.0,0.0,0.0,0.0,0.0,0.0,0.0,0.0,0.0,0.0,0.0,0.0,0.0,0.0,0.0,0.0,0.0,0.0,0.0,0.0,0.0,0.0,0.0,0.0,0.0,0.0,0.0,0.0,0.0,0.0,0.0,0.0,0.0,0.0,0.0,0.0,0.0,0.0,0.0,0.0,0.0,0.0,0.0,0.0,0.0,0.0,0.0,0.0,0.0,0.0,0.0,0.0,0.0,0.0,0.0,0.0,0.0,0.0,0.0,0.0,0.0,0.0,0.0,0.0,0.0,0.0,0.0,0.0,0.0,0.0,0.0,0.0,0.0,0.0,0.0,0.0,0.0,0.0,0.0,0.0,0.0,0.0,0.0,0.0,0.0,0.0,0.0,0.0,0.0,0.0,0.0,0.0,0.0,0.0,0.0,0.0,0.0,0.0,0.0,0.0,0.0,0.0,0.0,0.0,0.0,0.0,0.0,0.0,0.0,0.0,0.0,0.0,0.0,0.0,0.0,0.0,0.0,0.0,0.0,0.0,0.0,0.0,0.0,0.0
0.5960900498451736,0.6107462833502768,0.6263712018357966,0.6426359390616547,0.6586997207710034,0.6736591658714476,0.6868405083607257,0.6975372255282538,0.7062605656118273,0.713989417285136,0.7218703326125491,0.7307513568561772,0.7403510565002198,0.7504143962699219,0.7601352899755769,0.7685178535551342,0.7746622053516287,0.777536310460342,0.7774752713965456,0.7753384637954491,0.7723742538362824,0.769780323269665,0.7676534146777453,0.7666480907100373,0.7664252822249665,0.7661834387148938,0.7648984411877011,0.7608289629577615,0.7542414943879486,0.7453166238301543,0.7347542640395532,0.7235648851272009,0.712070623678369,0.7018083326235658,0.6934000656619423,0.6869874471670205,0.6822313290667006,0.6778013756130714,0.6734773265935782,0.6687411335607562,0.6633479614127192,0.657351710232435,0.6503661340857939,0.6436576454396701,0.6379900813341315,0.6340840535612048,0.6324720913981694,0.6326260404885594,0.6353568949176764,0.6403519609476663,0.6469913457504434,0.6544518684175485,0.6610391150030874,0.6669277558908109,0.6716111761066551,0.6747986005707458,0.6764316454369276,0.6758084384357459,0.6742599304044147,0.67220166872617,0.6699627685546605,0.667757939748288,0.6648593359417923,0.6624057897033893,0.6605366297736125,0.6593775044092124,0.6590842340596483,0.659001977426653,0.6603975778799147,0.6633908020142752,0.6678379293412998,0.673309505737285,0.6783187699342014,0.6830697849712563,0.6866995572312729,0.0,0.0,0.0,0.0,0.0,0.0,0.0,0.0,0.0,0.0,0.0,0.0,0.0,0.0,0.0,0.0,0.0,0.0,0.0,0.0,0.0,0.0,0.0,0.0,0.0,0.0,0.0,0.0,0.0,0.0,0.0,0.0,0.0,0.0,0.0,0.0,0.0,0.0,0.0,0.0,0.0,0.0,0.0,0.0,0.0,0.0,0.0,0.0,0.0,0.0,0.0,0.0,0.0,0.0,0.0,0.0,0.0,0.0,0.0,0.0,0.0,0.0,0.0,0.0,0.0,0.0,0.0,0.0,0.0,0.0,0.0,0.0,0.0,0.0,0.0,0.0,0.0,0.0,0.0,0.0,0.0,0.0,0.0,0.0,0.0,0.0,0.0,0.0,0.0,0.0,0.0,0.0,0.0,0.0,0.0,0.0,0.0,0.0,0.0,0.0,0.0,0.0,0.0,0.0,0.0,0.0,0.0,0.0,0.0,0.0,0.0,0.0,0.0,0.0,0.0,0.0,0.0,0.0,0.0,0.0,0.0,0.0,0.0,0.0,0.0,0.0,0.0,0.0,0.0,0.0,0.0,0.0,0.0,0.0,0.0,0.0,0.0,0.0,0.0,0.0,0.0,0.0,0.0,0.0,0.0,0.0,0.0,0.0,0.0,0.0,0.0,0.0,0.0,0.0,0.0,0.0,0.0,0.0,0.0,0.0,0.0,0.0,0.0,0.0,0.0,0.0,0.0,0.0,0.0,0.0,0.0,0.0,0.0,0.0,0.0,0.0,0.0,0.0,0.0,0.0,0.0,0.0,0.0,0.0,0.0,0.0,0.0,0.0,0.0,0.0,0.0,0.0,0.0,0.0,0.0,0.0,0.0,0.0,0.0,0.0,0.0,0.0,0.0,0.0,0.0,0.0,0.0,0.0,0.0,0.0,0.0,0.0,0.0,0.0,0.0,0.0,0.0,0.0,0.0,0.0,0.0,0.0,0.0,0.0,0.0
0.6671778228044128,0.7168143031281214,0.757155584491871,0.7844884699738579,0.7969714537381349,0.7944973357249493,0.7799855224872884,0.7572052609617412,0.730451057073679,0.7036360420283693,0.679036432208914,0.6584615009167267,0.6414651574563411,0.6262484083711836,0.6103006303186038,0.5906051260954982,0.5661124450050463,0.5363106218122781,0.5019467381068667,0.4648492131837612,0.4269038871920349,0.3914910419342323,0.36092898306223087,0.33672432456133417,0.31939779604891877,0.3078685182110117,0.3018302244742121,0.29986913351242467,0.3004517431325255,0.3021427322866354,0.30315831840126173,0.3030687928144199,0.3008070501655421,0.29517992269751475,0.28488766852435204,0.2682881528179731,0.24502726160144442,0.21483891757852847,0.1784124835627255,0.13761979494989215,0.0948743160149163,0.05483817600188547,0.02178297860285928,-0.000540399346235297,-0.00964807862456769,-0.00571353608821402,0.010963311490940332,0.037662568055646606,0.07055838588105678,0.10547870005564401,0.13763026755591662,0.16558562003688873,0.18835047131288393,0.20626441221235087,0.2206054787358557,0.23177001565688457,0.2427502979241558,0.2547734776129885,0.2683058007284093,0.2830816486648957,0.29727498895393695,0.3111382946744273,0.3239867715751646,0.3354446611045807,0.34555781859393564,0.3539641635581683,0.36240307618170997,0.3718105392345321,0.38289565517591834,0.3958859183867997,0.4094560379765844,0.4233415711562459,0.43575134241273955,0.4442812837488962,0.4462140181796638,0.0,0.0,0.0,0.0,0.0,0.0,0.0,0.0,0.0,0.0,0.0,0.0,0.0,0.0,0.0,0.0,0.0,0.0,0.0,0.0,0.0,0.0,0.0,0.0,0.0,0.0,0.0,0.0,0.0,0.0,0.0,0.0,0.0,0.0,0.0,0.0,0.0,0.0,0.0,0.0,0.0,0.0,0.0,0.0,0.0,0.0,0.0,0.0,0.0,0.0,0.0,0.0,0.0,0.0,0.0,0.0,0.0,0.0,0.0,0.0,0.0,0.0,0.0,0.0,0.0,0.0,0.0,0.0,0.0,0.0,0.0,0.0,0.0,0.0,0.0,0.0,0.0,0.0,0.0,0.0,0.0,0.0,0.0,0.0,0.0,0.0,0.0,0.0,0.0,0.0,0.0,0.0,0.0,0.0,0.0,0.0,0.0,0.0,0.0,0.0,0.0,0.0,0.0,0.0,0.0,0.0,0.0,0.0,0.0,0.0,0.0,0.0,0.0,0.0,0.0,0.0,0.0,0.0,0.0,0.0,0.0,0.0,0.0,0.0,0.0,0.0,0.0,0.0,0.0,0.0,0.0,0.0,0.0,0.0,0.0,0.0,0.0,0.0,0.0,0.0,0.0,0.0,0.0,0.0,0.0,0.0,0.0,0.0,0.0,0.0,0.0,0.0,0.0,0.0,0.0,0.0,0.0,0.0,0.0,0.0,0.0,0.0,0.0,0.0,0.0,0.0,0.0,0.0,0.0,0.0,0.0,0.0,0.0,0.0,0.0,0.0,0.0,0.0,0.0,0.0,0.0,0.0,0.0,0.0,0.0,0.0,0.0,0.0,0.0,0.0,0.0,0.0,0.0,0.0,0.0,0.0,0.0,0.0,0.0,0.0,0.0,0.0,0.0,0.0,0.0,0.0,0.0,0.0,0.0,0.0,0.0,0.0,0.0,0.0,0.0,0.0,0.0,0.0,0.0,0.0,0.0,0.0,0.0,0.0,0.0
0.16558562003688873,0.18835047131288393,0.20626441221235087,0.2206054787358557,0.23177001565688457,0.2427502979241558,0.2547734776129885,0.2683058007284093,0.2830816486648957,0.29727498895393695,0.3111382946744273,0.3239867715751646,0.3354446611045807,0.34555781859393564,0.3539641635581683,0.36240307618170997,0.3718105392345321,0.38289565517591834,0.3958859183867997,0.4094560379765844,0.4233415711562459,0.43575134241273955,0.4442812837488962,0.4462140181796638,0.43806286140308726,0.4189523065379189,0.3886611812632096,0.34868450828515646,0.30229554219076865,0.2539189986071437,0.20976761919373493,0.17582965805619744,0.15741696340366995,0.15837706620187356,0.18065618182346546,0.22352032626190496,0.28358384646247237,0.3553622520228071,0.4321524575049548,0.5071179164037128,0.5745752625008945,0.63067356616442,0.6740593566898262,0.705927848808036,0.7292881859378774,0.7487480200856934,0.7687883358122622,0.792700232764591,0.8216735376498125,0.8539016792665758,0.8863668991613641,0.9143276259474609,0.9327500004637784,0.937419226491589,0.9250675667234508,0.8962534939492591,0.8533209205774398,0.8004816048388612,0.7429993279798035,0.6855946466894002,0.6339049320492787,0.5920417993535028,0.5629798669530715,0.5485794294680179,0.5490599441880394,0.5650849945054731,0.5957576184135643,0.6389324901586452,0.6908683378157813,0.7452072436650583,0.7953760493466737,0.8327425541977798,0.8481475071780006,0.8331572461635445,0.7806667524716492,0.0,0.0,0.0,0.0,0.0,0.0,0.0,0.0,0.0,0.0,0.0,0.0,0.0,0.0,0.0,0.0,0.0,0.0,0.0,0.0,0.0,0.0,0.0,0.0,0.0,0.0,0.0,0.0,0.0,0.0,0.0,0.0,0.0,0.0,0.0,0.0,0.0,0.0,0.0,0.0,0.0,0.0,0.0,0.0,0.0,0.0,0.0,0.0,0.0,0.0,0.0,0.0,0.0,0.0,0.0,0.0,0.0,0.0,0.0,0.0,0.0,0.0,0.0,0.0,0.0,0.0,0.0,0.0,0.0,0.0,0.0,0.0,0.0,0.0,0.0,0.0,0.0,0.0,0.0,0.0,0.0,0.0,0.0,0.0,0.0,0.0,0.0,0.0,0.0,0.0,0.0,0.0,0.0,0.0,0.0,0.0,0.0,0.0,0.0,0.0,0.0,0.0,0.0,0.0,0.0,0.0,0.0,0.0,0.0,0.0,0.0,0.0,0.0,0.0,0.0,0.0,0.0,0.0,0.0,0.0,0.0,0.0,0.0,0.0,0.0,0.0,0.0,0.0,0.0,0.0,0.0,0.0,0.0,0.0,0.0,0.0,0.0,0.0,0.0,0.0,0.0,0.0,0.0,0.0,0.0,0.0,0.0,0.0,0.0,0.0,0.0,0.0,0.0,0.0,0.0,0.0,0.0,0.0,0.0,0.0,0.0,0.0,0.0,0.0,0.0,0.0,0.0,0.0,0.0,0.0,0.0,0.0,0.0,0.0,0.0,0.0,0.0,0.0,0.0,0.0,0.0,0.0,0.0,0.0,0.0,0.0,0.0,0.0,0.0,0.0,0.0,0.0,0.0,0.0,0.0,0.0,0.0,0.0,0.0,0.0,0.0,0.0,0.0,0.0,0.0,0.0,0.0,0.0,0.0,0.0,0.0,0.0,0.0,0.0,0.0,0.0,0.0,0.0,0.0,0.0,0.0,0.0,0.0,0.0,0.0
0.9143276259474609,0.9327500004637784,0.937419226491589,0.9250675667234508,0.8962534939492591,0.8533209205774398,0.8004816048388612,0.7429993279798035,0.6855946466894002,0.6339049320492787,0.5920417993535028,0.5629798669530715,0.5485794294680179,0.5490599441880394,0.5650849945054731,0.5957576184135643,0.6389324901586452,0.6908683378157813,0.7452072436650583,0.7953760493466737,0.8327425541977798,0.8481475071780006,0.8331572461635445,0.7806667524716492,0.6891008039041854,0.5608692732080639,0.4034902999628734,0.229066304645867,0.05212646029612391,-0.11010734849451054,-0.24228481854508688,-0.3326822119408527,-0.3750246368718106,-0.3700073020504464,-0.32310060276691926,-0.24487604463554716,-0.14846997881502544,-0.04718170346410957,0.04692957191081119,0.1273906772070922,0.19154858427848598,0.24104474269953235,0.28066122994359144,0.31556743111470065,0.352947201056181,0.39710316819760355,0.4495630192656221,0.50886214191875,0.5698538723766409,0.6283959556860071,0.6787956639553727,0.7161160348144845,0.7370630538939086,0.7392411833814145,0.7252455599779503,0.6982406315517593,0.6626571865232139,0.6234863607695043,0.5846315034469518,0.5513883258970771,0.5268817812199994,0.512892467329592,0.5099096676451,0.5166825406268355,0.5325983541484781,0.5557181696074608,0.5837098146852734,0.6140424054486765,0.6434696575371999,0.6704806061492034,0.6929601469954986,0.7092124245231357,0.7181751432522531,0.7188500094628207,0.7128069970304277,0.0,0.0,0.0,0.0,0.0,0.0,0.0,0.0,0.0,0.0,0.0,0.0,0.0,0.0,0.0,0.0,0.0,0.0,0.0,0.0,0.0,0.0,0.0,0.0,0.0,0.0,0.0,0.0,0.0,0.0,0.0,0.0,0.0,0.0,0.0,0.0,0.0,0.0,0.0,0.0,0.0,0.0,0.0,0.0,0.0,0.0,0.0,0.0,0.0,0.0,0.0,0.0,0.0,0.0,0.0,0.0,0.0,0.0,0.0,0.0,0.0,0.0,0.0,0.0,0.0,0.0,0.0,0.0,0.0,0.0,0.0,0.0,0.0,0.0,0.0,0.0,0.0,0.0,0.0,0.0,0.0,0.0,0.0,0.0,0.0,0.0,0.0,0.0,0.0,0.0,0.0,0.0,0.0,0.0,0.0,0.0,0.0,0.0,0.0,0.0,0.0,0.0,0.0,0.0,0.0,0.0,0.0,0.0,0.0,0.0,0.0,0.0,0.0,0.0,0.0,0.0,0.0,0.0,0.0,0.0,0.0,0.0,0.0,0.0,0.0,0.0,0.0,0.0,0.0,0.0,0.0,0.0,0.0,0.0,0.0,0.0,0.0,0.0,0.0,0.0,0.0,0.0,0.0,0.0,0.0,0.0,0.0,0.0,0.0,0.0,0.0,0.0,0.0,0.0,0.0,0.0,0.0,0.0,0.0,0.0,0.0,0.0,0.0,0.0,0.0,0.0,0.0,0.0,0.0,0.0,0.0,0.0,0.0,0.0,0.0,0.0,0.0,0.0,0.0,0.0,0.0,0.0,0.0,0.0,0.0,0.0,0.0,0.0,0.0,0.0,0.0,0.0,0.0,0.0,0.0,0.0,0.0,0.0,0.0,0.0,0.0,0.0,0.0,0.0,0.0,0.0,0.0,0.0,0.0,0.0,0.0,0.0,0.0,0.0,0.0,0.0,0.0,0.0,0.0,0.0,0.0,0.0,0.0,0.0,0.0
0.7161160348144845,0.7370630538939086,0.7392411833814145,0.7252455599779503,0.6982406315517593,0.6626571865232139,0.6234863607695043,0.5846315034469518,0.5513883258970771,0.5268817812199994,0.512892467329592,0.5099096676451,0.5166825406268355,0.5325983541484781,0.5557181696074608,0.5837098146852734,0.6140424054486765,0.6434696575371999,0.6704806061492034,0.6929601469954986,0.7092124245231357,0.7181751432522531,0.7188500094628207,0.7128069970304277,0.7012982909133766,0.6860314182829185,0.668983732477876,0.6518240798498799,0.6368734332840117,0.6257991737625317,0.6198500000112338,0.619792321703499,0.6258600733939574,0.6375837785508289,0.6542703876134156,0.6747162164997469,0.6972032229987595,0.7194743505745105,0.7395339168922901,0.7557600495365071,0.7673637999162226,0.77461412429402,0.7784723686369334,0.7813699482945973,0.7855011424890718,0.7925227185981683,0.8029634566086903,0.8153942492609528,0.8280632312791534,0.8374820164637049,0.8397273553418959,0.8313127889233607,0.8093702673594628,0.7743607246910142,0.7277928625764142,0.6728417705401555,0.6138333182094123,0.5549167579084036,0.5012463033659242,0.4560857281709358,0.42111318525902125,0.39635384749546415,0.3798809021302277,0.37010479852932127,0.364404202494816,0.36031529517012933,0.3559676399752414,0.3496753802927136,0.34203192053837034,0.3334142621819416,0.3244207044880463,0.31558143245501863,0.30643834195744335,0.29787901028602054,0.289589583084361,0.0,0.0,0.0,0.0,0.0,0.0,0.0,0.0,0.0,0.0,0.0,0.0,0.0,0.0,0.0,0.0,0.0,0.0,0.0,0.0,0.0,0.0,0.0,0.0,0.0,0.0,0.0,0.0,0.0,0.0,0.0,0.0,0.0,0.0,0.0,0.0,0.0,0.0,0.0,0.0,0.0,0.0,0.0,0.0,0.0,0.0,0.0,0.0,0.0,0.0,0.0,0.0,0.0,0.0,0.0,0.0,0.0,0.0,0.0,0.0,0.0,0.0,0.0,0.0,0.0,0.0,0.0,0.0,0.0,0.0,0.0,0.0,0.0,0.0,0.0,0.0,0.0,0.0,0.0,0.0,0.0,0.0,0.0,0.0,0.0,0.0,0.0,0.0,0.0,0.0,0.0,0.0,0.0,0.0,0.0,0.0,0.0,0.0,0.0,0.0,0.0,0.0,0.0,0.0,0.0,0.0,0.0,0.0,0.0,0.0,0.0,0.0,0.0,0.0,0.0,0.0,0.0,0.0,0.0,0.0,0.0,0.0,0.0,0.0,0.0,0.0,0.0,0.0,0.0,0.0,0.0,0.0,0.0,0.0,0.0,0.0,0.0,0.0,0.0,0.0,0.0,0.0,0.0,0.0,0.0,0.0,0.0,0.0,0.0,0.0,0.0,0.0,0.0,0.0,0.0,0.0,0.0,0.0,0.0,0.0,0.0,0.0,0.0,0.0,0.0,0.0,0.0,0.0,0.0,0.0,0.0,0.0,0.0,0.0,0.0,0.0,0.0,0.0,0.0,0.0,0.0,0.0,0.0,0.0,0.0,0.0,0.0,0.0,0.0,0.0,0.0,0.0,0.0,0.0,0.0,0.0,0.0,0.0,0.0,0.0,0.0,0.0,0.0,0.0,0.0,0.0,0.0,0.0,0.0,0.0,0.0,0.0,0.0,0.0,0.0,0.0,0.0,0.0,0.0,0.0,0.0,0.0,0.0,0.0,0.0
0.3798809021302277,0.37010479852932127,0.364404202494816,0.36031529517012933,0.3559676399752414,0.3496753802927136,0.34203192053837034,0.3334142621819416,0.3244207044880463,0.31558143245501863,0.30643834195744335,0.29787901028602054,0.289589583084361,0.28111586031364205,0.2721257140501947,0.2619104840429803,0.25177391002033783,0.24241790331509722,0.23455206653739052,0.22866999564537077,0.22419269873690884,0.22166228472855415,0.22042131804566806,0.21960775586372522,0.21845475658689537,0.2158128740156104,0.2127615322446329,0.209922293534104,0.20814097112382013,0.20823951752841996,0.2099561081660216,0.21445466127716772,0.2213745790223679,0.22989286910720044,0.23897811263809313,0.24716622045090703,0.2545893654415273,0.26083380939387635,0.26579916970431117,0.2697167077477663,0.27287582428777096,0.27640540602494035,0.28049407931359466,0.2850140402499674,0.28965434303612264,0.29367335188739363,0.2975836779737919,0.3014007278930219,0.3053007339686056,0.30959197832447904,0.3139577915813136,0.31944746703647975,0.3262953560068064,0.3344399317029208,0.3434898443978535,0.35248683830580246,0.36103103619498794,0.3683325042534315,0.37383010523836474,0.37738771047122804,0.3794512705782406,0.38081230285532996,0.38213842846851986,0.3839001520955563,0.3862341823836867,0.3888859649785692,0.3915540858878403,0.39364619584034444,0.3947827647268567,0.39508065429614536,0.395113237509322,0.3964017755165238,0.4003659080749305,0.40805676512219247,0.41961357198394633,0.0,0.0,0.0,0.0,0.0,0.0,0.0,0.0,0.0,0.0,0.0,0.0,0.0,0.0,0.0,0.0,0.0,0.0,0.0,0.0,0.0,0.0,0.0,0.0,0.0,0.0,0.0,0.0,0.0,0.0,0.0,0.0,0.0,0.0,0.0,0.0,0.0,0.0,0.0,0.0,0.0,0.0,0.0,0.0,0.0,0.0,0.0,0.0,0.0,0.0,0.0,0.0,0.0,0.0,0.0,0.0,0.0,0.0,0.0,0.0,0.0,0.0,0.0,0.0,0.0,0.0,0.0,0.0,0.0,0.0,0.0,0.0,0.0,0.0,0.0,0.0,0.0,0.0,0.0,0.0,0.0,0.0,0.0,0.0,0.0,0.0,0.0,0.0,0.0,0.0,0.0,0.0,0.0,0.0,0.0,0.0,0.0,0.0,0.0,0.0,0.0,0.0,0.0,0.0,0.0,0.0,0.0,0.0,0.0,0.0,0.0,0.0,0.0,0.0,0.0,0.0,0.0,0.0,0.0,0.0,0.0,0.0,0.0,0.0,0.0,0.0,0.0,0.0,0.0,0.0,0.0,0.0,0.0,0.0,0.0,0.0,0.0,0.0,0.0,0.0,0.0,0.0,0.0,0.0,0.0,0.0,0.0,0.0,0.0,0.0,0.0,0.0,0.0,0.0,0.0,0.0,0.0,0.0,0.0,0.0,0.0,0.0,0.0,0.0,0.0,0.0,0.0,0.0,0.0,0.0,0.0,0.0,0.0,0.0,0.0,0.0,0.0,0.0,0.0,0.0,0.0,0.0,0.0,0.0,0.0,0.0,0.0,0.0,0.0,0.0,0.0,0.0,0.0,0.0,0.0,0.0,0.0,0.0,0.0,0.0,0.0,0.0,0.0,0.0,0.0,0.0,0.0,0.0,0.0,0.0,0.0,0.0,0.0,0.0,0.0,0.0,0.0,0.0,0.0,0.0,0.0,0.0,0.0,0.0,0.0
-0.01721103150084887,-0.11545277837990503,-0.1954998532713929,-0.24811716645073087,-0.2666382232925604,-0.2486885696786176,-0.19448860310564065,-0.1088144828804562,8.275205648183631e-05,0.12138517662644942,0.24217286942092595,0.3509534505852574,0.43690522706016377,0.49152249847478996,0.5094085765454592,0.4880531638583208,0.43024367944436054,0.3418331230706557,0.23174460156807786,0.11099657144079353,-0.009475239238303734,-0.1174478411570906,-0.2033570781622518,-0.26081532863923507,-0.2874154336638722,-0.28598191146574753,-0.26063607982611664,-0.21861868132318127,-0.1679727735354423,-0.11607411400822618,-0.06941965416828387,-0.02991707436596941,0.002432110780904526,0.02974661804894269,0.0552672056474198,0.0813776391520322,0.11134203496249985,0.1462466479063532,0.18559111637215128,0.22757038104118912,0.2688355056239468,0.30780589669308084,0.34284965751092383,0.37337525816355494,0.3998735564349585,0.4228709431927615,0.4449945336700345,0.46803052157049946,0.493153551747309,0.5205937324703058,0.5487828297215365,0.5767663063809374,0.6027139296629593,0.6247583233733199,0.6413139085056531,0.6506095103621412,0.6528492294175646,0.6490017574402587,0.6408225370319456,0.6304940588881425,0.6196500050544996,0.611051675150644,0.606898884589788,0.6091975276297954,0.6196742092706319,0.6390812007912008,0.668768347533094,0.7084455300852283,0.7565535118286243,0.8101623629260342,0.8647322860042511,0.9156576233573676,0.9579401889044047,0.9872460299620657,1.0006505165814363,0.0,0.0,0.0,0.0,0.0,0.0,0.0,0.0,0.0,0.0,0.0,0.0,0.0,0.0,0.0,0.0,0.0,0.0,0.0,0.0,0.0,0.0,0.0,0.0,0.0,0.0,0.0,0.0,0.0,0.0,0.0,0.0,0.0,0.0,0.0,0.0,0.0,0.0,0.0,0.0,0.0,0.0,0.0,0.0,0.0,0.0,0.0,0.0,0.0,0.0,0.0,0.0,0.0,0.0,0.0,0.0,0.0,0.0,0.0,0.0,0.0,0.0,0.0,0.0,0.0,0.0,0.0,0.0,0.0,0.0,0.0,0.0,0.0,0.0,0.0,0.0,0.0,0.0,0.0,0.0,0.0,0.0,0.0,0.0,0.0,0.0,0.0,0.0,0.0,0.0,0.0,0.0,0.0,0.0,0.0,0.0,0.0,0.0,0.0,0.0,0.0,0.0,0.0,0.0,0.0,0.0,0.0,0.0,0.0,0.0,0.0,0.0,0.0,0.0,0.0,0.0,0.0,0.0,0.0,0.0,0.0,0.0,0.0,0.0,0.0,0.0,0.0,0.0,0.0,0.0,0.0,0.0,0.0,0.0,0.0,0.0,0.0,0.0,0.0,0.0,0.0,0.0,0.0,0.0,0.0,0.0,0.0,0.0,0.0,0.0,0.0,0.0,0.0,0.0,0.0,0.0,0.0,0.0,0.0,0.0,0.0,0.0,0.0,0.0,0.0,0.0,0.0,0.0,0.0,0.0,0.0,0.0,0.0,0.0,0.0,0.0,0.0,0.0,0.0,0.0,0.0,0.0,0.0,0.0,0.0,0.0,0.0,0.0,0.0,0.0,0.0,0.0,0.0,0.0,0.0,0.0,0.0,0.0,0.0,0.0,0.0,0.0,0.0,0.0,0.0,0.0,0.0,0.0,0.0,0.0,0.0,0.0,0.0,0.0,0.0,0.0,0.0,0.0,0.0,0.0,0.0,0.0,0.0,0.0,0.0
0.6341327992226272,0.5412966941212146,0.4573309854005603,0.3884183447066311,0.3383440200551592,0.3081703571654173,0.2955879129243173,0.2980095724208129,0.3107617274631258,0.32884559243695555,0.3478024596072914,0.3634736592234313,0.3751799286569902,0.3825636562698399,0.3862599031285896,0.38743456204916554,0.38635289306285836,0.3852351910738311,0.38452062708134066,0.3841080715771472,0.3836282787159519,0.3821018052705774,0.3804986751202214,0.37914448041812904,0.3786482895506493,0.3798219953827383,0.38312672094417083,0.3898282344076566,0.3999297817312086,0.4127889303634405,0.4272422887506293,0.4415611171556496,0.4547867632565068,0.46542069791312346,0.4722678693061502,0.4746625821185203,0.47240069205409524,0.46645244677051906,0.4575528793845146,0.44657534821714745,0.4344817046868203,0.42184106812359234,0.4105414291773858,0.4015975773337316,0.3959193876394677,0.3943008272551202,0.3965664879218431,0.40408916095635933,0.41653183180285175,0.432826930504843,0.45128055586892213,0.4693498373514717,0.4855933817820024,0.4981426382137037,0.5057775121274798,0.508260284482724,0.5062973442804001,0.5019063445939453,0.4971977635613494,0.4940516519497565,0.49352593024400554,0.49532589616251527,0.4980478476101491,0.49868652225753146,0.49348725784515346,0.47879157600528716,0.4518942194444435,0.4120146231240985,0.36005320573423705,0.2988514710549499,0.23279401269432756,0.16705280201333716,0.10682029388523284,0.05581767792211852,0.015892635206790587,0.0,0.0,0.0,0.0,0.0,0.0,0.0,0.0,0.0,0.0,0.0,0.0,0.0,0.0,0.0,0.0,0.0,0.0,0.0,0.0,0.0,0.0,0.0,0.0,0.0,0.0,0.0,0.0,0.0,0.0,0.0,0.0,0.0,0.0,0.0,0.0,0.0,0.0,0.0,0.0,0.0,0.0,0.0,0.0,0.0,0.0,0.0,0.0,0.0,0.0,0.0,0.0,0.0,0.0,0.0,0.0,0.0,0.0,0.0,0.0,0.0,0.0,0.0,0.0,0.0,0.0,0.0,0.0,0.0,0.0,0.0,0.0,0.0,0.0,0.0,0.0,0.0,0.0,0.0,0.0,0.0,0.0,0.0,0.0,0.0,0.0,0.0,0.0,0.0,0.0,0.0,0.0,0.0,0.0,0.0,0.0,0.0,0.0,0.0,0.0,0.0,0.0,0.0,0.0,0.0,0.0,0.0,0.0,0.0,0.0,0.0,0.0,0.0,0.0,0.0,0.0,0.0,0.0,0.0,0.0,0.0,0.0,0.0,0.0,0.0,0.0,0.0,0.0,0.0,0.0,0.0,0.0,0.0,0.0,0.0,0.0,0.0,0.0,0.0,0.0,0.0,0.0,0.0,0.0,0.0,0.0,0.0,0.0,0.0,0.0,0.0,0.0,0.0,0.0,0.0,0.0,0.0,0.0,0.0,0.0,0.0,0.0,0.0,0.0,0.0,0.0,0.0,0.0,0.0,0.0,0.0,0.0,0.0,0.0,0.0,0.0,0.0,0.0,0.0,0.0,0.0,0.0,0.0,0.0,0.0,0.0,0.0,0.0,0.0,0.0,0.0,0.0,0.0,0.0,0.0,0.0,0.0,0.0,0.0,0.0,0.0,0.0,0.0,0.0,0.0,0.0,0.0,0.0,0.0,0.0,0.0,0.0,0.0,0.0,0.0,0.0,0.0,0.0,0.0,0.0,0.0,0.0,0.0,0.0,0.0
0.015892635206790587,-0.013203550616632026,-0.033575914561487834,-0.048462368535546294,-0.061841455777185306,-0.07716371563247189,-0.09639619403466902,-0.11968862436230943,-0.14419209101206193,-0.16572564282066574,-0.17917636423855465,-0.17958883745270604,-0.16388928502224012,-0.1298101900385099,-0.07842268913749009,-0.013488265907373618,0.059055632635280395,0.13152803079591607,0.19714135541825212,0.24943673213300768,0.28372859318328525,0.2977001027232668,0.29127224354409026,0.2674874961164052,0.23067120332125637,0.18609276213051656,0.13912843100847416,0.09416352014640898,0.05505129585904425,0.023421280305477205,-0.0008775374203270252,-0.019443240706318487,-0.03502795932062564,-0.04975841908164865,-0.06582647966848638,-0.08445041272442858,-0.10558068994469999,-0.12820457080382341,-0.14984628982036166,-0.16844208035480132,-0.18253267648498656,-0.19171813918308148,-0.19700501053358999,-0.19986142098516246,-0.20278672327132097,-0.20810885623435552,-0.21712279688193678,-0.2294971283507492,-0.24268968365845284,-0.25265504016469753,-0.2543136526849669,-0.24252745458079208,-0.21316920882595627,-0.16426287698914097,-0.09655667676400474,-0.013747228524416368,0.07788623326394113,0.17023008961268815,0.25488031887522106,0.3243151393818037,0.3730346217645949,0.39829992110867435,0.4000857152589158,0.38159567524064536,0.3481485775508002,0.30616564809779623,0.2619877212732448,0.2205854753633053,0.1856346543028974,0.15862002058001426,0.13919197915999768,0.12567552143781527,0.1155458547732853,0.10687136810921236,0.09795122100145122,0.0,0.0,0.0,0.0,0.0,0.0,0.0,0.0,0.0,0.0,0.0,0.0,0.0,0.0,0.0,0.0,0.0,0.0,0.0,0.0,0.0,0.0,0.0,0.0,0.0,0.0,0.0,0.0,0.0,0.0,0.0,0.0,0.0,0.0,0.0,0.0,0.0,0.0,0.0,0.0,0.0,0.0,0.0,0.0,0.0,0.0,0.0,0.0,0.0,0.0,0.0,0.0,0.0,0.0,0.0,0.0,0.0,0.0,0.0,0.0,0.0,0.0,0.0,0.0,0.0,0.0,0.0,0.0,0.0,0.0,0.0,0.0,0.0,0.0,0.0,0.0,0.0,0.0,0.0,0.0,0.0,0.0,0.0,0.0,0.0,0.0,0.0,0.0,0.0,0.0,0.0,0.0,0.0,0.0,0.0,0.0,0.0,0.0,0.0,0.0,0.0,0.0,0.0,0.0,0.0,0.0,0.0,0.0,0.0,0.0,0.0,0.0,0.0,0.0,0.0,0.0,0.0,0.0,0.0,0.0,0.0,0.0,0.0,0.0,0.0,0.0,0.0,0.0,0.0,0.0,0.0,0.0,0.0,0.0,0.0,0.0,0.0,0.0,0.0,0.0,0.0,0.0,0.0,0.0,0.0,0.0,0.0,0.0,0.0,0.0,0.0,0.0,0.0,0.0,0.0,0.0,0.0,0.0,0.0,0.0,0.0,0.0,0.0,0.0,0.0,0.0,0.0,0.0,0.0,0.0,0.0,0.0,0.0,0.0,0.0,0.0,0.0,0.0,0.0,0.0,0.0,0.0,0.0,0.0,0.0,0.0,0.0,0.0,0.0,0.0,0.0,0.0,0.0,0.0,0.0,0.0,0.0,0.0,0.0,0.0,0.0,0.0,0.0,0.0,0.0,0.0,0.0,0.0,0.0,0.0,0.0,0.0,0.0,0.0,0.0,0.0,0.0,0.0,0.0,0.0,0.0,0.0,0.0,0.0,0.0
0.3730346217645949,0.39829992110867435,0.4000857152589158,0.38159567524064536,0.3481485775508002,0.30616564809779623,0.2619877212732448,0.2205854753633053,0.1856346543028974,0.15862002058001426,0.13919197915999768,0.12567552143781527,0.1155458547732853,0.10687136810921236,0.09795122100145122,0.08792381887599053,0.07679428579511353,0.06512135861325014,0.05394006872542999,0.04396009276372074,0.03540439591983401,0.02791305015241181,0.020700250559929613,0.01270232069684102,0.0030546918093890506,-0.008622083995194148,-0.022031537519458612,-0.036213872785238695,-0.04975485705315832,-0.061020185844089726,-0.06865384731970646,-0.07197612519132905,-0.07128069877207835,-0.06770380944008951,-0.06283106107811408,-0.05834560561721429,-0.05552233854041923,-0.0548173843628427,-0.05546911091130575,-0.055279064706070066,-0.05102224141609032,-0.039068551889509424,-0.016238261159924685,0.019442671300631827,0.06830922358491867,0.1285432656859192,0.19615484900094876,0.264995344813955,0.3287599148394238,0.3809866850649941,0.41633149666143554,0.4313782498914069,0.4243888339774913,0.39777955078783234,0.35557312133024443,0.3033830072796374,0.2474756442869111,0.19328197411368767,0.14597813692030429,0.10843039325912295,0.08137206322420083,0.06357303868241532,0.05218377684026547,0.044118192860116465,0.036286553434280396,0.02650152058015237,0.01393764029380434,-0.0008224645661665009,-0.015789135862257945,-0.028326392647954588,-0.035699997376996424,-0.03569775809480664,-0.02705452297788641,-0.009849812509241712,0.014595522837490098,0.0,0.0,0.0,0.0,0.0,0.0,0.0,0.0,0.0,0.0,0.0,0.0,0.0,0.0,0.0,0.0,0.0,0.0,0.0,0.0,0.0,0.0,0.0,0.0,0.0,0.0,0.0,0.0,0.0,0.0,0.0,0.0,0.0,0.0,0.0,0.0,0.0,0.0,0.0,0.0,0.0,0.0,0.0,0.0,0.0,0.0,0.0,0.0,0.0,0.0,0.0,0.0,0.0,0.0,0.0,0.0,0.0,0.0,0.0,0.0,0.0,0.0,0.0,0.0,0.0,0.0,0.0,0.0,0.0,0.0,0.0,0.0,0.0,0.0,0.0,0.0,0.0,0.0,0.0,0.0,0.0,0.0,0.0,0.0,0.0,0.0,0.0,0.0,0.0,0.0,0.0,0.0,0.0,0.0,0.0,0.0,0.0,0.0,0.0,0.0,0.0,0.0,0.0,0.0,0.0,0.0,0.0,0.0,0.0,0.0,0.0,0.0,0.0,0.0,0.0,0.0,0.0,0.0,0.0,0.0,0.0,0.0,0.0,0.0,0.0,0.0,0.0,0.0,0.0,0.0,0.0,0.0,0.0,0.0,0.0,0.0,0.0,0.0,0.0,0.0,0.0,0.0,0.0,0.0,0.0,0.0,0.0,0.0,0.0,0.0,0.0,0.0,0.0,0.0,0.0,0.0,0.0,0.0,0.0,0.0,0.0,0.0,0.0,0.0,0.0,0.0,0.0,0.0,0.0,0.0,0.0,0.0,0.0,0.0,0.0,0.0,0.0,0.0,0.0,0.0,0.0,0.0,0.0,0.0,0.0,0.0,0.0,0.0,0.0,0.0,0.0,0.0,0.0,0.0,0.0,0.0,0.0,0.0,0.0,0.0,0.0,0.0,0.0,0.0,0.0,0.0,0.0,0.0,0.0,0.0,0.0,0.0,0.0,0.0,0.0,0.0,0.0,0.0,0.0,0.0,0.0,0.0,0.0,0.0,0.0
0.4313782498914069,0.4243888339774913,0.39777955078783234,0.35557312133024443,0.3033830072796374,0.2474756442869111,0.19328197411368767,0.14597813692030429,0.10843039325912295,0.08137206322420083,0.06357303868241532,0.05218377684026547,0.044118192860116465,0.036286553434280396,0.02650152058015237,0.01393764029380434,-0.0008224645661665009,-0.015789135862257945,-0.028326392647954588,-0.035699997376996424,-0.03569775809480664,-0.02705452297788641,-0.009849812509241712,0.014595522837490098,0.04398194216074952,0.07548431648572443,0.10626514702740582,0.13393855040248887,0.15690688405797357,0.17445685015969553,0.18666639106625543,0.19410645604402602,0.19770029986986476,0.1984325868428557,0.19718180553672762,0.19470716775679098,0.19167164782368856,0.18916388287893887,0.18872950389916526,0.1924465800830645,0.20274794444732647,0.22185533922619372,0.251657941699044,0.2927881091018513,0.3441531893326405,0.40266177051434365,0.46286568527352356,0.5190178642361566,0.5646140324141596,0.5938410027733468,0.6025755965813608,0.5883286273431791,0.5531352222900462,0.5009691961606054,0.4377859637506211,0.3704629320313371,0.30478640428869885,0.24674825727222588,0.19959654033596363,0.1640362797591999,0.13835026748131338,0.11825298504939455,0.10019731453821426,0.08065897581570794,0.05750029613750996,0.03044005281234384,0.00028039071628996695,-0.029328148508336625,-0.05441712878518077,-0.0712884167991332,-0.07747016185662568,-0.07306846958285192,-0.05872011032897203,-0.03683593701669143,-0.010583280995210026,0.0,0.0,0.0,0.0,0.0,0.0,0.0,0.0,0.0,0.0,0.0,0.0,0.0,0.0,0.0,0.0,0.0,0.0,0.0,0.0,0.0,0.0,0.0,0.0,0.0,0.0,0.0,0.0,0.0,0.0,0.0,0.0,0.0,0.0,0.0,0.0,0.0,0.0,0.0,0.0,0.0,0.0,0.0,0.0,0.0,0.0,0.0,0.0,0.0,0.0,0.0,0.0,0.0,0.0,0.0,0.0,0.0,0.0,0.0,0.0,0.0,0.0,0.0,0.0,0.0,0.0,0.0,0.0,0.0,0.0,0.0,0.0,0.0,0.0,0.0,0.0,0.0,0.0,0.0,0.0,0.0,0.0,0.0,0.0,0.0,0.0,0.0,0.0,0.0,0.0,0.0,0.0,0.0,0.0,0.0,0.0,0.0,0.0,0.0,0.0,0.0,0.0,0.0,0.0,0.0,0.0,0.0,0.0,0.0,0.0,0.0,0.0,0.0,0.0,0.0,0.0,0.0,0.0,0.0,0.0,0.0,0.0,0.0,0.0,0.0,0.0,0.0,0.0,0.0,0.0,0.0,0.0,0.0,0.0,0.0,0.0,0.0,0.0,0.0,0.0,0.0,0.0,0.0,0.0,0.0,0.0,0.0,0.0,0.0,0.0,0.0,0.0,0.0,0.0,0.0,0.0,0.0,0.0,0.0,0.0,0.0,0.0,0.0,0.0,0.0,0.0,0.0,0.0,0.0,0.0,0.0,0.0,0.0,0.0,0.0,0.0,0.0,0.0,0.0,0.0,0.0,0.0,0.0,0.0,0.0,0.0,0.0,0.0,0.0,0.0,0.0,0.0,0.0,0.0,0.0,0.0,0.0,0.0,0.0,0.0,0.0,0.0,0.0,0.0,0.0,0.0,0.0,0.0,0.0,0.0,0.0,0.0,0.0,0.0,0.0,0.0,0.0,0.0,0.0,0.0,0.0,0.0,0.0,0.0,0.0
0.5883286273431791,0.5531352222900462,0.5009691961606054,0.4377859637506211,0.3704629320313371,0.30478640428869885,0.24674825727222588,0.19959654033596363,0.1640362797591999,0.13835026748131338,0.11825298504939455,0.10019731453821426,0.08065897581570794,0.05750029613750996,0.03044005281234384,0.00028039071628996695,-0.029328148508336625,-0.05441712878518077,-0.0712884167991332,-0.07747016185662568,-0.07306846958285192,-0.05872011032897203,-0.03683593701669143,-0.010583280995210026,0.016815657199563447,0.04199313935886338,0.06393100665117782,0.08232995644746298,0.0977521736394683,0.11110147625575258,0.12243217660061782,0.1326820755247086,0.1418509240388306,0.14968511831226244,0.1560237182067667,0.16058928841485143,0.16506451323273932,0.17152515857511869,0.18260372787946616,0.20094596015778085,0.22805696293539596,0.2652801305298926,0.3120264023027295,0.3661343360890734,0.4241679128597199,0.48129239544116553,0.5343579608706368,0.5804520589433342,0.6180889473456616,0.647389865561659,0.6689316399843165,0.6862817292931963,0.7022936608519406,0.719281321084171,0.7384519317521633,0.7589159904812638,0.7801361505225869,0.8002097004339063,0.817149459720228,0.8295139979426676,0.8363267498500014,0.8387841911128254,0.8386429358681448,0.8380222798521082,0.8386861965867031,0.8409276680183246,0.8447151971483671,0.8486046346985663,0.8504216429158492,0.8478583952307387,0.8386535662734362,0.822457661113991,0.8001076047811893,0.7736373062531823,0.7457235364849276,0.0,0.0,0.0,0.0,0.0,0.0,0.0,0.0,0.0,0.0,0.0,0.0,0.0,0.0,0.0,0.0,0.0,0.0,0.0,0.0,0.0,0.0,0.0,0.0,0.0,0.0,0.0,0.0,0.0,0.0,0.0,0.0,0.0,0.0,0.0,0.0,0.0,0.0,0.0,0.0,0.0,0.0,0.0,0.0,0.0,0.0,0.0,0.0,0.0,0.0,0.0,0.0,0.0,0.0,0.0,0.0,0.0,0.0,0.0,0.0,0.0,0.0,0.0,0.0,0.0,0.0,0.0,0.0,0.0,0.0,0.0,0.0,0.0,0.0,0.0,0.0,0.0,0.0,0.0,0.0,0.0,0.0,0.0,0.0,0.0,0.0,0.0,0.0,0.0,0.0,0.0,0.0,0.0,0.0,0.0,0.0,0.0,0.0,0.0,0.0,0.0,0.0,0.0,0.0,0.0,0.0,0.0,0.0,0.0,0.0,0.0,0.0,0.0,0.0,0.0,0.0,0.0,0.0,0.0,0.0,0.0,0.0,0.0,0.0,0.0,0.0,0.0,0.0,0.0,0.0,0.0,0.0,0.0,0.0,0.0,0.0,0.0,0.0,0.0,0.0,0.0,0.0,0.0,0.0,0.0,0.0,0.0,0.0,0.0,0.0,0.0,0.0,0.0,0.0,0.0,0.0,0.0,0.0,0.0,0.0,0.0,0.0,0.0,0.0,0.0,0.0,0.0,0.0,0.0,0.0,0.0,0.0,0.0,0.0,0.0,0.0,0.0,0.0,0.0,0.0,0.0,0.0,0.0,0.0,0.0,0.0,0.0,0.0,0.0,0.0,0.0,0.0,0.0,0.0,0.0,0.0,0.0,0.0,0.0,0.0,0.0,0.0,0.0,0.0,0.0,0.0,0.0,0.0,0.0,0.0,0.0,0.0,0.0,0.0,0.0,0.0,0.0,0.0,0.0,0.0,0.0,0.0,0.0,0.0,0.0
0.6862817292931963,0.7022936608519406,0.719281321084171,0.7384519317521633,0.7589159904812638,0.7801361505225869,0.8002097004339063,0.817149459720228,0.8295139979426676,0.8363267498500014,0.8387841911128254,0.8386429358681448,0.8380222798521082,0.8386861965867031,0.8409276680183246,0.8447151971483671,0.8486046346985663,0.8504216429158492,0.8478583952307387,0.8386535662734362,0.822457661113991,0.8001076047811893,0.7736373062531823,0.7457235364849276,0.7184940498977367,0.6942832186364056,0.6740834444464617,0.6576431496211497,0.6435886777391165,0.6293353419889983,0.6131500835668721,0.5934954446737287,0.5698223463073994,0.5427821587292065,0.5138072499077323,0.4860178754679644,0.4627166503282456,0.4471545148896389,0.4419756397192966,0.4484769873074297,0.4671521137781669,0.4966971486936471,0.534400093498094,0.5764725524246734,0.6180139215199845,0.6553601959318941,0.6848458262779316,0.7038292766275389,0.7109694651300503,0.7054798080372546,0.6896500191510625,0.6658196430144215,0.6368694281857158,0.6058437231279347,0.5748578820627096,0.5473550994678491,0.5252002278699813,0.5095140983272695,0.5007179811258191,0.4979221851266019,0.5014030902773341,0.5099594422927265,0.5219658100096249,0.5355684022144641,0.5482125135400695,0.5591901304949637,0.567105806188598,0.570979164609887,0.570418823303109,0.5650344797894734,0.5566905862387943,0.5466233254109217,0.5361075714642463,0.5262067761218752,0.5167693766100808,0.0,0.0,0.0,0.0,0.0,0.0,0.0,0.0,0.0,0.0,0.0,0.0,0.0,0.0,0.0,0.0,0.0,0.0,0.0,0.0,0.0,0.0,0.0,0.0,0.0,0.0,0.0,0.0,0.0,0.0,0.0,0.0,0.0,0.0,0.0,0.0,0.0,0.0,0.0,0.0,0.0,0.0,0.0,0.0,0.0,0.0,0.0,0.0,0.0,0.0,0.0,0.0,0.0,0.0,0.0,0.0,0.0,0.0,0.0,0.0,0.0,0.0,0.0,0.0,0.0,0.0,0.0,0.0,0.0,0.0,0.0,0.0,0.0,0.0,0.0,0.0,0.0,0.0,0.0,0.0,0.0,0.0,0.0,0.0,0.0,0.0,0.0,0.0,0.0,0.0,0.0,0.0,0.0,0.0,0.0,0.0,0.0,0.0,0.0,0.0,0.0,0.0,0.0,0.0,0.0,0.0,0.0,0.0,0.0,0.0,0.0,0.0,0.0,0.0,0.0,0.0,0.0,0.0,0.0,0.0,0.0,0.0,0.0,0.0,0.0,0.0,0.0,0.0,0.0,0.0,0.0,0.0,0.0,0.0,0.0,0.0,0.0,0.0,0.0,0.0,0.0,0.0,0.0,0.0,0.0,0.0,0.0,0.0,0.0,0.0,0.0,0.0,0.0,0.0,0.0,0.0,0.0,0.0,0.0,0.0,0.0,0.0,0.0,0.0,0.0,0.0,0.0,0.0,0.0,0.0,0.0,0.0,0.0,0.0,0.0,0.0,0.0,0.0,0.0,0.0,0.0,0.0,0.0,0.0,0.0,0.0,0.0,0.0,0.0,0.0,0.0,0.0,0.0,0.0,0.0,0.0,0.0,0.0,0.0,0.0,0.0,0.0,0.0,0.0,0.0,0.0,0.0,0.0,0.0,0.0,0.0,0.0,0.0,0.0,0.0,0.0,0.0,0.0,0.0,0.0,0.0,0.0,0.0,0.0,0.0
0.1864520228335106,0.21086158401995084,0.24938741064565126,0.2981795120161854,0.35222703162589697,0.4051227428509317,0.4526133839403247,0.4903948875516708,0.5154152362172485,0.5261170741658643,0.5214766198082949,0.5041455236043895,0.4769160055650116,0.44335257169936054,0.40733575348573237,0.3716326339483134,0.34039664665318203,0.3158098285996037,0.2987131976682407,0.28855443280560056,0.2827380050790924,0.2797778568855097,0.2772747294562613,0.2733188416033113,0.2669863508064027,0.25772930737946526,0.2481519079980027,0.2409482966624856,0.23914689780708942,0.24541826880720477,0.2605357118352085,0.2858442697170342,0.32028848507151936,0.3614437582384536,0.40594317518355066,0.44921208639962396,0.48880340376341447,0.5222575877582285,0.5482130973018186,0.5664680815598966,0.5770216908194692,0.5822942553609322,0.5842583522363667,0.5847897219981518,0.5853613310274128,0.5861783639244453,0.5883919798326975,0.5921760446632098,0.5974953017705602,0.6042545804949291,0.6117739268910664,0.6206759753629219,0.6311706568969376,0.6433313341057472,0.6568962690434299,0.6704432632880862,0.683632772979821,0.6952836733702011,0.7042237521782335,0.7095379575919308,0.7099711436626185,0.7065915706236825,0.7002165165241239,0.6920172968689277,0.6832690721953858,0.6744468004402603,0.6670945577947243,0.6617158313454908,0.6584133571875308,0.6570001867988408,0.6566523068433208,0.6575923010695494,0.6596322950659473,0.6625985207777625,0.6662476622605437,0.0,0.0,0.0,0.0,0.0,0.0,0.0,0.0,0.0,0.0,0.0,0.0,0.0,0.0,0.0,0.0,0.0,0.0,0.0,0.0,0.0,0.0,0.0,0.0,0.0,0.0,0.0,0.0,0.0,0.0,0.0,0.0,0.0,0.0,0.0,0.0,0.0,0.0,0.0,0.0,0.0,0.0,0.0,0.0,0.0,0.0,0.0,0.0,0.0,0.0,0.0,0.0,0.0,0.0,0.0,0.0,0.0,0.0,0.0,0.0,0.0,0.0,0.0,0.0,0.0,0.0,0.0,0.0,0.0,0.0,0.0,0.0,0.0,0.0,0.0,0.0,0.0,0.0,0.0,0.0,0.0,0.0,0.0,0.0,0.0,0.0,0.0,0.0,0.0,0.0,0.0,0.0,0.0,0.0,0.0,0.0,0.0,0.0,0.0,0.0,0.0,0.0,0.0,0.0,0.0,0.0,0.0,0.0,0.0,0.0,0.0,0.0,0.0,0.0,0.0,0.0,0.0,0.0,0.0,0.0,0.0,0.0,0.0,0.0,0.0,0.0,0.0,0.0,0.0,0.0,0.0,0.0,0.0,0.0,0.0,0.0,0.0,0.0,0.0,0.0,0.0,0.0,0.0,0.0,0.0,0.0,0.0,0.0,0.0,0.0,0.0,0.0,0.0,0.0,0.0,0.0,0.0,0.0,0.0,0.0,0.0,0.0,0.0,0.0,0.0,0.0,0.0,0.0,0.0,0.0,0.0,0.0,0.0,0.0,0.0,0.0,0.0,0.0,0.0,0.0,0.0,0.0,0.0,0.0,0.0,0.0,0.0,0.0,0.0,0.0,0.0,0.0,0.0,0.0,0.0,0.0,0.0,0.0,0.0,0.0,0.0,0.0,0.0,0.0,0.0,0.0,0.0,0.0,0.0,0.0,0.0,0.0,0.0,0.0,0.0,0.0,0.0,0.0,0.0,0.0,0.0,0.0,0.0,0.0,0.0
0.36739609244652244,0.3660604575428167,0.365992182409145,0.3660945068751528,0.36474786328109765,0.3626702628243126,0.35994278918230155,0.35675682685142457,0.35325622440172383,0.34853272468368235,0.3435397960239356,0.3381889518453109,0.3324031418953627,0.3262400173004168,0.3190945125885495,0.312415814060226,0.30673978031162275,0.30237122863739135,0.29922381019910976,0.29596186383015854,0.2927000719623242,0.28857906487897544,0.28291704448576144,0.27553335721703726,0.26623435820370156,0.25722997728179775,0.2504694931258587,0.24806365594299545,0.25184290423496475,0.26227642765715886,0.28034135217560746,0.30512837874338883,0.33472122432321605,0.3665583446301798,0.397250807903698,0.42525462757106397,0.4489444031017159,0.46756861446246256,0.4812737850253949,0.49026699659324957,0.4967108306366288,0.5020350142319803,0.507361697767966,0.5133188727330461,0.5193851967757186,0.5260214286027038,0.5328053730480918,0.5393215491001292,0.5453639604406972,0.5504592457387224,0.5556658390637419,0.561585242760056,0.5686759890001792,0.5770199452188103,0.5855832693514623,0.5941419480510572,0.6015830257376149,0.6067368718649725,0.6086759299969233,0.6063339001349313,0.6006140241578503,0.5924299478232099,0.583046854571309,0.5737394753327828,0.5648252545259522,0.5573433610268568,0.5511096633703421,0.545327144743384,0.538803020668642,0.529667613636458,0.5176109733979649,0.5023806783012914,0.48441811261486273,0.4647917952246612,0.44439338099318754,0.0,0.0,0.0,0.0,0.0,0.0,0.0,0.0,0.0,0.0,0.0,0.0,0.0,0.0,0.0,0.0,0.0,0.0,0.0,0.0,0.0,0.0,0.0,0.0,0.0,0.0,0.0,0.0,0.0,0.0,0.0,0.0,0.0,0.0,0.0,0.0,0.0,0.0,0.0,0.0,0.0,0.0,0.0,0.0,0.0,0.0,0.0,0.0,0.0,0.0,0.0,0.0,0.0,0.0,0.0,0.0,0.0,0.0,0.0,0.0,0.0,0.0,0.0,0.0,0.0,0.0,0.0,0.0,0.0,0.0,0.0,0.0,0.0,0.0,0.0,0.0,0.0,0.0,0.0,0.0,0.0,0.0,0.0,0.0,0.0,0.0,0.0,0.0,0.0,0.0,0.0,0.0,0.0,0.0,0.0,0.0,0.0,0.0,0.0,0.0,0.0,0.0,0.0,0.0,0.0,0.0,0.0,0.0,0.0,0.0,0.0,0.0,0.0,0.0,0.0,0.0,0.0,0.0,0.0,0.0,0.0,0.0,0.0,0.0,0.0,0.0,0.0,0.0,0.0,0.0,0.0,0.0,0.0,0.0,0.0,0.0,0.0,0.0,0.0,0.0,0.0,0.0,0.0,0.0,0.0,0.0,0.0,0.0,0.0,0.0,0.0,0.0,0.0,0.0,0.0,0.0,0.0,0.0,0.0,0.0,0.0,0.0,0.0,0.0,0.0,0.0,0.0,0.0,0.0,0.0,0.0,0.0,0.0,0.0,0.0,0.0,0.0,0.0,0.0,0.0,0.0,0.0,0.0,0.0,0.0,0.0,0.0,0.0,0.0,0.0,0.0,0.0,0.0,0.0,0.0,0.0,0.0,0.0,0.0,0.0,0.0,0.0,0.0,0.0,0.0,0.0,0.0,0.0,0.0,0.0,0.0,0.0,0.0,0.0,0.0,0.0,0.0,0.0,0.0,0.0,0.0,0.0,0.0,0.0,0.0
0.23621079314471594,0.17533926477893816,0.11942578680090424,0.07173616751889268,0.03387016252989934,0.005576993793490395,-0.01528221645680455,-0.0312617349392796,-0.04579040577690268,-0.0618269558843588,-0.0810524081829883,-0.10366003277102867,-0.12721275109897662,-0.14837711320538133,-0.16314278482768593,-0.167681810159467,-0.15954635953156995,-0.13711838356055145,-0.10142047052239833,-0.05551879392027745,-0.004040128950543682,0.04703404676439224,0.09294798056343848,0.12902693446223884,0.15185264636808926,0.15960155225837966,0.15142739413268377,0.12965266434810285,0.09718297893577894,0.057802974871345225,0.015679089011976687,-0.02573421220971264,-0.06238958651747852,-0.09202410220889028,-0.11378779220209267,-0.12824337423442628,-0.13750159896668884,-0.14338969391226283,-0.14842407823111142,-0.1546333123777574,-0.16303119346717038,-0.1735921507828635,-0.18446132171437,-0.19354305453902487,-0.19860515553817648,-0.19781901269991448,-0.19026176172105028,-0.17574837384744568,-0.1556059694816065,-0.13199178482712284,-0.10734065681640197,-0.08400702066184557,-0.063118797990002,-0.04520967004954839,-0.03003570894079002,-0.016862300932889474,-0.005201055107447863,0.005890312263067719,0.016797574215131353,0.027510150190464194,0.03776074302924604,0.04706569684450273,0.05577695630636513,0.06491501667425457,0.0763118697528836,0.09238378699138157,0.11550718227059636,0.14773674832583034,0.1900487656427022,0.2417463436909817,0.30015605841044485,0.3606907893586646,0.41751674670246797,0.4643880250612121,0.49577621352695334,0.0,0.0,0.0,0.0,0.0,0.0,0.0,0.0,0.0,0.0,0.0,0.0,0.0,0.0,0.0,0.0,0.0,0.0,0.0,0.0,0.0,0.0,0.0,0.0,0.0,0.0,0.0,0.0,0.0,0.0,0.0,0.0,0.0,0.0,0.0,0.0,0.0,0.0,0.0,0.0,0.0,0.0,0.0,0.0,0.0,0.0,0.0,0.0,0.0,0.0,0.0,0.0,0.0,0.0,0.0,0.0,0.0,0.0,0.0,0.0,0.0,0.0,0.0,0.0,0.0,0.0,0.0,0.0,0.0,0.0,0.0,0.0,0.0,0.0,0.0,0.0,0.0,0.0,0.0,0.0,0.0,0.0,0.0,0.0,0.0,0.0,0.0,0.0,0.0,0.0,0.0,0.0,0.0,0.0,0.0,0.0,0.0,0.0,0.0,0.0,0.0,0.0,0.0,0.0,0.0,0.0,0.0,0.0,0.0,0.0,0.0,0.0,0.0,0.0,0.0,0.0,0.0,0.0,0.0,0.0,0.0,0.0,0.0,0.0,0.0,0.0,0.0,0.0,0.0,0.0,0.0,0.0,0.0,0.0,0.0,0.0,0.0,0.0,0.0,0.0,0.0,0.0,0.0,0.0,0.0,0.0,0.0,0.0,0.0,0.0,0.0,0.0,0.0,0.0,0.0,0.0,0.0,0.0,0.0,0.0,0.0,0.0,0.0,0.0,0.0,0.0,0.0,0.0,0.0,0.0,0.0,0.0,0.0,0.0,0.0,0.0,0.0,0.0,0.0,0.0,0.0,0.0,0.0,0.0,0.0,0.0,0.0,0.0,0.0,0.0,0.0,0.0,0.0,0.0,0.0,0.0,0.0,0.0,0.0,0.0,0.0,0.0,0.0,0.0,0.0,0.0,0.0,0.0,0.0,0.0,0.0,0.0,0.0,0.0,0.0,0.0,0.0,0.0,0.0,0.0,0.0,0.0,0.0,0.0,0.0
0.41751674670246797,0.4643880250612121,0.49577621352695334,0.5079283298295082,0.4996911523735529,0.4726635950001525,0.43082949033156637,0.3798581554137409,0.32601683484543287,0.2746363319935967,0.23008172911818064,0.1942544192437699,0.16654530741234558,0.14410533986135754,0.12186408072736019,0.09581324138908127,0.06271069807999662,0.021349896845716226,-0.026982261768049985,-0.07916229483221196,-0.1291165043605375,-0.16988202447386433,-0.19464765347291846,-0.19806986339745752,-0.17776914879810224,-0.13374107115258707,-0.06909188120765987,0.010493973181030417,0.09754726784326335,0.18362041970901716,0.2611267094251277,0.32397448223219133,0.3683738357131275,0.39316439908398415,0.39965606904966344,0.3913579370260622,0.3730947677479221,0.35011080071708395,0.32712106056426626,0.30736106460666246,0.29241856023762536,0.28167193367356336,0.27255110290466433,0.26107772204454827,0.24252893070062986,0.2130782639963529,0.17030125838416968,0.11422262194656743,0.04784161547300206,-0.023397052810709022,-0.09031596578055978,-0.14276457846861113,-0.17060302461254198,-0.16539449109854418,-0.12293706764525682,-0.041424471924227727,0.07518839896246313,0.21827925253877775,0.3755711226773729,0.5318443363481468,0.6738611277134035,0.7898350572952045,0.8717949398891957,0.9165367364532899,0.9248273735418496,0.9035063557982411,0.8618094048710313,0.810079877741162,0.7577482869800107,0.7108716389956343,0.6732830439455096,0.6447196965922418,0.6217571023001063,0.5989598375067317,0.5698427156469372,0.0,0.0,0.0,0.0,0.0,0.0,0.0,0.0,0.0,0.0,0.0,0.0,0.0,0.0,0.0,0.0,0.0,0.0,0.0,0.0,0.0,0.0,0.0,0.0,0.0,0.0,0.0,0.0,0.0,0.0,0.0,0.0,0.0,0.0,0.0,0.0,0.0,0.0,0.0,0.0,0.0,0.0,0.0,0.0,0.0,0.0,0.0,0.0,0.0,0.0,0.0,0.0,0.0,0.0,0.0,0.0,0.0,0.0,0.0,0.0,0.0,0.0,0.0,0.0,0.0,0.0,0.0,0.0,0.0,0.0,0.0,0.0,0.0,0.0,0.0,0.0,0.0,0.0,0.0,0.0,0.0,0.0,0.0,0.0,0.0,0.0,0.0,0.0,0.0,0.0,0.0,0.0,0.0,0.0,0.0,0.0,0.0,0.0,0.0,0.0,0.0,0.0,0.0,0.0,0.0,0.0,0.0,0.0,0.0,0.0,0.0,0.0,0.0,0.0,0.0,0.0,0.0,0.0,0.0,0.0,0.0,0.0,0.0,0.0,0.0,0.0,0.0,0.0,0.0,0.0,0.0,0.0,0.0,0.0,0.0,0.0,0.0,0.0,0.0,0.0,0.0,0.0,0.0,0.0,0.0,0.0,0.0,0.0,0.0,0.0,0.0,0.0,0.0,0.0,0.0,0.0,0.0,0.0,0.0,0.0,0.0,0.0,0.0,0.0,0.0,0.0,0.0,0.0,0.0,0.0,0.0,0.0,0.0,0.0,0.0,0.0,0.0,0.0,0.0,0.0,0.0,0.0,0.0,0.0,0.0,0.0,0.0,0.0,0.0,0.0,0.0,0.0,0.0,0.0,0.0,0.0,0.0,0.0,0.0,0.0,0.0,0.0,0.0,0.0,0.0,0.0,0.0,0.0,0.0,0.0,0.0,0.0,0.0,0.0,0.0,0.0,0.0,0.0,0.0,0.0,0.0,0.0,0.0,0.0,0.0
-0.14276457846861113,-0.17060302461254198,-0.16539449109854418,-0.12293706764525682,-0.041424471924227727,0.07518839896246313,0.21827925253877775,0.3755711226773729,0.5318443363481468,0.6738611277134035,0.7898350572952045,0.8717949398891957,0.9165367364532899,0.9248273735418496,0.9035063557982411,0.8618094048710313,0.810079877741162,0.7577482869800107,0.7108716389956343,0.6732830439455096,0.6447196965922418,0.6217571023001063,0.5989598375067317,0.5698427156469372,0.5300680515336814,0.47769291360399,0.4139261673136896,0.3428881996447739,0.27003601807931465,0.20279515760149264,0.14746688035008454,0.10833735254884602,0.08681656178281613,0.080513055046461,0.08611910646703727,0.09829355842886588,0.1117063822351188,0.1223640359795474,0.1277830742588861,0.12980675240858008,0.13206707556548497,0.1396812300279831,0.15791151017627872,0.18995049204322742,0.23836899790895658,0.3023262241967937,0.3782369048848073,0.4604038400052806,0.5414999375049258,0.6156759947135465,0.6783337688456483,0.7272743870143342,0.7628961698342824,0.7874214206536583,0.8051142612658891,0.8205291135333891,0.8374447397393403,0.8579145944620077,0.8811926363100835,0.9058295963509836,0.9284230727983597,0.9451771320071041,0.952933019089733,0.9491461297547076,0.9351501279053013,0.9128891902009135,0.8854898876795376,0.8565387894088707,0.828689865280775,0.8050434878944992,0.7863729251635344,0.7719837150399754,0.7601445597280085,0.7483751412220427,0.7353316772498713,0.0,0.0,0.0,0.0,0.0,0.0,0.0,0.0,0.0,0.0,0.0,0.0,0.0,0.0,0.0,0.0,0.0,0.0,0.0,0.0,0.0,0.0,0.0,0.0,0.0,0.0,0.0,0.0,0.0,0.0,0.0,0.0,0.0,0.0,0.0,0.0,0.0,0.0,0.0,0.0,0.0,0.0,0.0,0.0,0.0,0.0,0.0,0.0,0.0,0.0,0.0,0.0,0.0,0.0,0.0,0.0,0.0,0.0,0.0,0.0,0.0,0.0,0.0,0.0,0.0,0.0,0.0,0.0,0.0,0.0,0.0,0.0,0.0,0.0,0.0,0.0,0.0,0.0,0.0,0.0,0.0,0.0,0.0,0.0,0.0,0.0,0.0,0.0,0.0,0.0,0.0,0.0,0.0,0.0,0.0,0.0,0.0,0.0,0.0,0.0,0.0,0.0,0.0,0.0,0.0,0.0,0.0,0.0,0.0,0.0,0.0,0.0,0.0,0.0,0.0,0.0,0.0,0.0,0.0,0.0,0.0,0.0,0.0,0.0,0.0,0.0,0.0,0.0,0.0,0.0,0.0,0.0,0.0,0.0,0.0,0.0,0.0,0.0,0.0,0.0,0.0,0.0,0.0,0.0,0.0,0.0,0.0,0.0,0.0,0.0,0.0,0.0,0.0,0.0,0.0,0.0,0.0,0.0,0.0,0.0,0.0,0.0,0.0,0.0,0.0,0.0,0.0,0.0,0.0,0.0,0.0,0.0,0.0,0.0,0.0,0.0,0.0,0.0,0.0,0.0,0.0,0.0,0.0,0.0,0.0,0.0,0.0,0.0,0.0,0.0,0.0,0.0,0.0,0.0,0.0,0.0,0.0,0.0,0.0,0.0,0.0,0.0,0.0,0.0,0.0,0.0,0.0,0.0,0.0,0.0,0.0,0.0,0.0,0.0,0.0,0.0,0.0,0.0,0.0,0.0,0.0,0.0,0.0,0.0,0.0
0.7272743870143342,0.7628961698342824,0.7874214206536583,0.8051142612658891,0.8205291135333891,0.8374447397393403,0.8579145944620077,0.8811926363100835,0.9058295963509836,0.9284230727983597,0.9451771320071041,0.952933019089733,0.9491461297547076,0.9351501279053013,0.9128891902009135,0.8854898876795376,0.8565387894088707,0.828689865280775,0.8050434878944992,0.7863729251635344,0.7719837150399754,0.7601445597280085,0.7483751412220427,0.7353316772498713,0.7196863768731281,0.7010034148664779,0.6798350565058925,0.6574462100472966,0.6361378371323927,0.618078980263005,0.6053130244683587,0.5995255532837764,0.6018753156933854,0.6127514065211198,0.6315628950673673,0.6567022071805669,0.6856086623280282,0.7148013919584089,0.7409322617114616,0.760670452453013,0.7714121483743173,0.77169177137228,0.760955640663325,0.7408755423930404,0.7138497379674631,0.6828473371167639,0.6508267640074823,0.6197973963392928,0.5919305659966656,0.5678718331909767,0.5474387556579323,0.5299617566426846,0.5142476666169988,0.5003931800528704,0.48791638237233,0.47649425837404297,0.4658926954600661,0.45541707233179624,0.4452109604918277,0.43405335925185506,0.420220991327496,0.4018236342774476,0.3768952216594898,0.34530346718571414,0.3069461709966877,0.2628147068208725,0.21506469468537692,0.16621888857171271,0.12066719611545067,0.08146945465315732,0.05055584503758825,0.028305755093306195,0.012691409388965008,0.0021801413150643657,-0.0064230232021181425,0.0,0.0,0.0,0.0,0.0,0.0,0.0,0.0,0.0,0.0,0.0,0.0,0.0,0.0,0.0,0.0,0.0,0.0,0.0,0.0,0.0,0.0,0.0,0.0,0.0,0.0,0.0,0.0,0.0,0.0,0.0,0.0,0.0,0.0,0.0,0.0,0.0,0.0,0.0,0.0,0.0,0.0,0.0,0.0,0.0,0.0,0.0,0.0,0.0,0.0,0.0,0.0,0.0,0.0,0.0,0.0,0.0,0.0,0.0,0.0,0.0,0.0,0.0,0.0,0.0,0.0,0.0,0.0,0.0,0.0,0.0,0.0,0.0,0.0,0.0,0.0,0.0,0.0,0.0,0.0,0.0,0.0,0.0,0.0,0.0,0.0,0.0,0.0,0.0,0.0,0.0,0.0,0.0,0.0,0.0,0.0,0.0,0.0,0.0,0.0,0.0,0.0,0.0,0.0,0.0,0.0,0.0,0.0,0.0,0.0,0.0,0.0,0.0,0.0,0.0,0.0,0.0,0.0,0.0,0.0,0.0,0.0,0.0,0.0,0.0,0.0,0.0,0.0,0.0,0.0,0.0,0.0,0.0,0.0,0.0,0.0,0.0,0.0,0.0,0.0,0.0,0.0,0.0,0.0,0.0,0.0,0.0,0.0,0.0,0.0,0.0,0.0,0.0,0.0,0.0,0.0,0.0,0.0,0.0,0.0,0.0,0.0,0.0,0.0,0.0,0.0,0.0,0.0,0.0,0.0,0.0,0.0,0.0,0.0,0.0,0.0,0.0,0.0,0.0,0.0,0.0,0.0,0.0,0.0,0.0,0.0,0.0,0.0,0.0,0.0,0.0,0.0,0.0,0.0,0.0,0.0,0.0,0.0,0.0,0.0,0.0,0.0,0.0,0.0,0.0,0.0,0.0,0.0,0.0,0.0,0.0,0.0,0.0,0.0,0.0,0.0,0.0,0.0,0.0,0.0,0.0,0.0,0.0,0.0,0.0
0.4658926954600661,0.45541707233179624,0.4452109604918277,0.43405335925185506,0.420220991327496,0.4018236342774476,0.3768952216594898,0.34530346718571414,0.3069461709966877,0.2628147068208725,0.21506469468537692,0.16621888857171271,0.12066719611545067,0.08146945465315732,0.05055584503758825,0.028305755093306195,0.012691409388965008,0.0021801413150643657,-0.0064230232021181425,-0.01616876821431497,-0.029041739961698017,-0.045653592593201245,-0.06357279835757321,-0.07935772899236787,-0.08851901121940922,-0.08638923501670223,-0.06910944500553698,-0.034348627243427084,0.017241312735710078,0.0822873358569263,0.15513540037875093,0.22853777243743018,0.29549628700114644,0.3490353669279333,0.38376308989707053,0.396660035774204,0.38711666592682115,0.35817275805690174,0.31416377028735926,0.2606762270309475,0.203722563511423,0.14822952163857786,0.09951192420307467,0.0602827411568107,0.031165695596905033,0.010785091248642025,-0.004784492217882175,-0.018143539402323976,-0.032660205713765406,-0.05073685447757232,-0.07316443774024091,-0.09981718174839861,-0.12653478286440836,-0.148539718785725,-0.1604112084760562,-0.15711396672912387,-0.13604836528410458,-0.09461516405120332,-0.03359960943281476,0.0435132432251378,0.1307290775553856,0.21914244809826103,0.300524883153923,0.3659272314261319,0.4073250595701012,0.41857212183989495,0.3954568377294287,0.3387136197099398,0.2524906144132003,0.144545871263694,0.025376976760919687,-0.09390149243810195,-0.20104498574108198,-0.2860622812757461,-0.34237013364976016,0.0,0.0,0.0,0.0,0.0,0.0,0.0,0.0,0.0,0.0,0.0,0.0,0.0,0.0,0.0,0.0,0.0,0.0,0.0,0.0,0.0,0.0,0.0,0.0,0.0,0.0,0.0,0.0,0.0,0.0,0.0,0.0,0.0,0.0,0.0,0.0,0.0,0.0,0.0,0.0,0.0,0.0,0.0,0.0,0.0,0.0,0.0,0.0,0.0,0.0,0.0,0.0,0.0,0.0,0.0,0.0,0.0,0.0,0.0,0.0,0.0,0.0,0.0,0.0,0.0,0.0,0.0,0.0,0.0,0.0,0.0,0.0,0.0,0.0,0.0,0.0,0.0,0.0,0.0,0.0,0.0,0.0,0.0,0.0,0.0,0.0,0.0,0.0,0.0,0.0,0.0,0.0,0.0,0.0,0.0,0.0,0.0,0.0,0.0,0.0,0.0,0.0,0.0,0.0,0.0,0.0,0.0,0.0,0.0,0.0,0.0,0.0,0.0,0.0,0.0,0.0,0.0,0.0,0.0,0.0,0.0,0.0,0.0,0.0,0.0,0.0,0.0,0.0,0.0,0.0,0.0,0.0,0.0,0.0,0.0,0.0,0.0,0.0,0.0,0.0,0.0,0.0,0.0,0.0,0.0,0.0,0.0,0.0,0.0,0.0,0.0,0.0,0.0,0.0,0.0,0.0,0.0,0.0,0.0,0.0,0.0,0.0,0.0,0.0,0.0,0.0,0.0,0.0,0.0,0.0,0.0,0.0,0.0,0.0,0.0,0.0,0.0,0.0,0.0,0.0,0.0,0.0,0.0,0.0,0.0,0.0,0.0,0.0,0.0,0.0,0.0,0.0,0.0,0.0,0.0,0.0,0.0,0.0,0.0,0.0,0.0,0.0,0.0,0.0,0.0,0.0,0.0,0.0,0.0,0.0,0.0,0.0,0.0,0.0,0.0,0.0,0.0,0.0,0.0,0.0,0.0,0.0,0.0,0.0,0.0
