0.20912191340443995,0.2395224793833439,0.2637178541693965,0.28169831337830703,0.2999509802290105,0.2989689046788864,0.3047308002778936,0.29772672238398645,0.34941952939607923,0.3363256053045568,0.3688935699320579,0.4016143728532601,0.38897711917499206,0.408934063589665,0.4159703582466465,0.3905617753949761,0.4236508327043537,0.41773127545318284,0.44424705167063144,0.4056876997245619,0.44497268586997574,0.4320964678384915,0.43849443046571285,0.4771163023724288,0.4829316253973089,0.540365378224947,0.6233712996093563,0.7318930912476481,0.8008896760554626,0.7783126498679783,0.7615674264994299,0.6726050410033759,0.5178488810987079,0.3102171376716076,0.1211089080963273,-0.02356542468605048,-0.13688508043396755,-0.1864398768430401,-0.20478828945121486,-0.1464930876981711,-0.1415480733335154,-0.2029661397985722,-0.23327790819524571,-0.1804818811896398,-0.07703056054904317,-0.026839130379501086,-0.0038521330338616134,0.050479269814899475,0.11672628813647844,0.10398005138675154,0.0902834263950823,0.12768609532058733,0.13827396505530706,0.18059379410324589,0.19622465813363327,0.1982245579641976,0.2061486794818734,0.17456955552583361,0.17502567965680374,0.20107667827776438,0.2852702998182818,0.3171936310895906,0.4008718169038356,0.45837976271508246,0.4702738653507881,0.47559172547207046,0.47437959521573747,0.4861758473374613,0.4395421559999762,0.457982750261697,0.42456751234786033,0.43680351892235997,0.44273790138409147,0.40341193949934995,0.3838353584248796,0.3645397057552626,0.37154177325577,0.346380369490679,0.3410612705878542,0.31011602788585363,0.27955431553435234,0.26238792471789085,0.25213275027194065,0.22280887651485756,0.2134167890262187,0.1979741974162458,0.20248307375119348,0.1879627383013568,0.16091866226914261,0.15384804181325534,0.1342656065741156,0.13466697887690743,0.10307094921631754,0.10446262621708885,0.0803614454917704,0.10874781038222184,0.1181438999956388,0.07606034685514826,0.07347235042182466,0.0518969074275718,0.050323140130000076,0.04275824937721045,0.07468901251907308,0.07463500164926073,0.0880824068813345,0.09553538322887471,0.12298480864090836,0.09894859050208744,0.08840551131546291,0.11084669549365256,0.10128666491925295,0.0987100463213394,0.10961012903317635,0.10798887787531027,0.10683670677262574,0.09315082493562939,0.07992057216128316,0.09962932106991575,0.09378571798403354,0.12736306873698522,0.11587638780609294,0.12429787528077184,0.10713032659604484,0.11634840858501712,0.125948258119194,0.12292176271303237,0.16574000825716811,0.16341564360598726,0.20041097611125974,0.19223517504160934,0.1648652328832325,0.15727351333144476,0.14994806002292219,0.16886329357425478,0.16851305674426295,0.155375677515277,0.1554231398818352,0.129644989035116,0.14300065213055413,0.13048558424869441,0.11157068596928514,0.09922803925165603,0.09343283581671252,0.08116343886016925,0.06239407679855632,0.02410223984621499,0.02474493436457206,-0.007184277646089653,-0.006730467867717257,-0.01940685074833448,-0.04523883799403692,-0.03226466812012104,-0.032488941032229775,-0.03293152956756212,-0.04010371869141068,-0.03452100010377021,-0.0356840528063431,-0.05009394392082738,-0.012768522466434796,-0.027673199542632823,0.009169144920657114,0.006793274172552982,-0.008799102918601453,0.020884519511652728,0.011377827007612633,-0.004818607844072233,-0.014698767923378863,0.007740154042455267,-0.015468297370810529,-0.01933096005324801,-0.010333030524148171,0.011540297330900257,0.020312146494219394,0.04199091178662247,0.037603224543217885,0.046153500454521657,0.048162471462452186,0.05014330351141447,0.039114423155964376,0.04758116958162082,0.06905968924680346,0.01908789639411721,0.04713734289762136,0.016760172722014487,0.044936775652672886,0.008215308551711372,0.023575852719764034,0.03904612737599393,0.054639063400278465,0.05737106405686337,0.04075642560717475,0.05679265318979344,0.04700822288871915,0.037407487327149776,0.053994564087168635,0.07078805417344443,0.04880995623283084,0.09853973739934721,0.051035474479850115,0.05576489501487384,0.06075231940016587,0.033516287784490256,0.039047529442472514,0.05786044556483506,0.10296007306713939,0.1093731652527521,0.13559111828212206,0.14913045475491027,0.16949234885516457,0.17718823195967526,0.17222318656098018,0.16759774159545143,0.16331523249853386,0.15287999052446685,0.14279186273632177,0.17204076275970345,0.16914706498844984,0.17309910888503804,0.1903935572141341,0.19503537628237325,0.21301390996858222,0.1988376988572366,0.19798854515822323,0.18446742877546476,0.1907578354026329,0.19085883266378081,0.184761199163773,0.23093825494578565,0.23190640762706555,0.2266424001760267,0.2411254836440505,0.23635211394554512,0.27079003425495884,0.29243698071371743,0.3077728312455502,0.30378150301179113,0.34542336861958434,0.3417012931486253,0.3965614003366831,0.43199945202513834,0.4479872215583369,0.4574906546683587,0.49946612192116474,0.4959007149644922,0.5377313491203969,0.5339438068174365,0.5754698352173456,0.5842861907578965,0.5733410792226464,0.6400559454666633,0.6674098832872098,0.7203274395917435,0.8312389932758188,0.9350988287103337,0.9473625754937275,0.8874518468102512,0.8202706823787586,0.7457370227338967,0.5857867127469335,0.3663225276839786,0.21071680676503596,0.027900573245062257,-0.1107420483925892,-0.1403252393599287,-0.19089764614928567,-0.24303676192781426,-0.34878177270375355,-0.2677312973305832,-0.18832978909819414,-0.11704761343330713,-0.09932624158766237,-0.057130867632276025,-0.029384241110162353,-0.04850551793941352,-0.016947738685271246,0.026379174068785694,0.055563240159448066,0.09667767706751472,0.16279909207258747,0.2215164457184033,0.2274215521682427,0.25207210946810854,0.28904668424627555,0.3189262503854766,0.34828300130501166,0.4096802005629178,0.4512032097997618,0.5184078351425656,0.5593751338148438,0.5676707343484159,0.569348299361918,0.5579678221578284,0.5465809478746206,0.5352401994266628,0.5174972006310864,0.5063953976815172,0.475986652130594,0.4523056230939453,0.43539192498394974,0.42528291068487034,N
0.7457370227338967,0.5857867127469335,0.3663225276839786,0.21071680676503596,0.027900573245062257,-0.1107420483925892,-0.1403252393599287,-0.19089764614928567,-0.24303676192781426,-0.34878177270375355,-0.2677312973305832,-0.18832978909819414,-0.11704761343330713,-0.09932624158766237,-0.057130867632276025,-0.029384241110162353,-0.04850551793941352,-0.016947738685271246,0.026379174068785694,0.055563240159448066,0.09667767706751472,0.16279909207258747,0.2215164457184033,0.2274215521682427,0.25207210946810854,0.28904668424627555,0.3189262503854766,0.34828300130501166,0.4096802005629178,0.4512032097997618,0.5184078351425656,0.5593751338148438,0.5676707343484159,0.569348299361918,0.5579678221578284,0.5465809478746206,0.5352401994266628,0.5174972006310864,0.5063953976815172,0.475986652130594,0.4523056230939453,0.43539192498394974,0.42528291068487034,0.3765265927738646,0.38013034745597846,0.3581473472983654,0.3495958556813922,0.32201251713121937,0.34040472108218744,0.3268185906711119,0.30726920609115876,0.29477368105754603,0.27635492816947227,0.2845215495052114,0.28679910344342435,0.25720989194752153,0.25425094348786015,0.28443267094535973,0.24379539067376918,0.23631931502339412,0.24901644590263672,0.24940310504583216,0.224488867682578,0.21976555775942141,0.22224038104609617,0.21891944448454706,0.22280040858480285,0.21438900829718308,0.20018252933995395,0.22566618264132346,0.23235351913689709,0.23973495574133383,0.24130708283170818,0.22406712591781858,0.2464909320915187,0.23708990425908788,0.23484303814459764,0.22674281448262062,0.19978053979253835,0.21892438118962687,0.206181850651524,0.21352268938390614,0.2084394471807321,0.2234052681474863,0.206416093689953,0.17044841011254838,0.16096850260170611,0.15196197598434033,0.14990446120733797,0.10278733367523094,0.08856454312018996,0.06822253387276642,0.06772896936576865,0.05456767618686041,0.04820747181883657,0.04212423613612213,0.02979360797578295,0.056676345093682134,0.044767898620195375,0.02653226157642596,0.047429535528978536,0.029454531725702334,0.03106331430921094,0.03923197203198964,0.001947441174968699,-0.002840214290836973,-0.0011515992115742814,0.006985616156956538,-0.036939624771594806,-0.041980591084223,-0.04715036645351417,-0.058967215433415224,-0.03845775994557935,-0.024621014336160475,-0.010965176116636806,0.0025057300053780355,-0.016702109948484506,-0.010108195790281877,0.009289731250903991,0.009000391647099804,-0.023973042000832587,-0.01815128159152542,-0.012521586857073889,-0.013578662195335699,-0.008321523875925545,0.009753935611953231,0.0016654509763850665,-0.01958396230424596,0.023990364846161797,-0.004064522372279684,0.026223115181103887,0.023887752231706107,0.008432557661797655,0.03834957806987141,0.03566932784918981,-0.006098042237405445,0.004029933113746757,0.04006930705536966,0.030548949243040233,0.046957185220739286,0.06330969490024281,0.053621923407400594,0.06988699362955479,0.0731234336494689,0.050342086884927195,0.06003325925401522,0.04372001349943375,0.0598921036625373,0.0695665722971545,0.06625099345908153,0.06294709194874482,0.04016543034911708,0.06289241701017521,0.05965276941230213,0.04994521726875698,0.020777361066465504,-0.008352617471246814,-0.0049503081228654145,-0.008000335285685516,-0.01749785592274694,-0.007444602195248425,0.009170358876941082,-0.01313216345132494,-0.03535524527452352,-0.03149704751659782,0.004953129069318357,0.015527314024632637,0.00024100785758271478,0.01109496297981347,0.009115603902969187,0.03330729397384597,0.057692689036248176,0.08228694316749906,0.06811592482649323,0.07367758392486796,0.1119823664471554,0.0855715247175147,0.09842890311568739,0.1050800957363546,0.13153003264715143,0.1388014565902618,0.17239261316017038,0.1738303948641234,0.20810598990374884,0.20374822728625785,0.21275005314636009,0.21562356676015826,0.23836696700096993,0.23549754650680924,0.27200023135330825,0.28939361247091855,0.30067474890640483,0.3123410865459715,0.3178922355170837,0.3043280780492765,0.33012673502837686,0.32380148184987617,0.343827267125536,0.3317104289947579,0.3784134088880438,0.39294833629382825,0.39479427390595395,0.40992648586907954,0.4123329328165155,0.4409811876741157,0.4503606012006051,0.4989289783287262,0.48268771737578375,0.4795843754041137,0.5350732650749785,0.564642977277819,0.5877500866157063,0.604353845899333,0.6274069015739534,0.669858878315592,0.6731764356482954,0.6827935428816748,0.7246463048656708,0.7206967534025548,0.748859285683006,0.815564867296467,0.8752553899959746,0.9863393267901839,0.992781290058391,0.9529804448356664,0.8538511641331598,0.7602810503697641,0.5617029495111258,0.3100000609300703,0.15452526837213343,-0.03479124069483455,-0.15408606849942597,-0.21645950356731666,-0.24149536244017225,-0.2942440613542994,-0.34875874779161176,-0.30108662173822703,-0.2551830692591339,-0.10053538883784745,-0.058013112383661455,-0.02356791131906818,0.028876059869149838,0.014928060373333264,-0.00034497256704088975,0.028629325069711213,0.06944535576770036,0.12868637601939514,0.1869426303204954,0.22480371973482097,0.2618473077680229,0.2851591029446675,0.3208125017077665,0.34289414516483785,0.3969688984783613,0.4506219180301236,0.503927206319905,0.5569565127378953,0.5967827346532588,0.6104759846525958,0.6240923885638165,0.6246960226799247,0.5993478428319803,0.5805928447184107,0.581478528720937,0.5630641627170783,0.544889602924185,0.5464918902387935,0.49643101441446447,0.4792202213652404,0.45590511719264404,0.4460124076295663,0.4365756879208257,0.4081281570567055,0.4256769916515134,0.4047695052513351,0.37791787448224784,0.37763225212280294,0.3584429070522119,0.3528562142983926,0.3348932609422528,0.3370568655161035,0.3333646763534759,0.33032348746605994,0.3084457612721747,0.29372947192018256,0.2601857217896615,0.25980213892279674,0.24059439135320862,0.19606401145130337,0.20418748911799478,0.1804861791217085,0.1639455729508722,0.16755759489302854,0.17182251854536923,0.14424344733211678,0.11080612129737588,0.12998639023050057,0.12379805984779649,0.12472311120607107,0.10675941063935793,N
0.8538511641331598,0.7602810503697641,0.5617029495111258,0.3100000609300703,0.15452526837213343,-0.03479124069483455,-0.15408606849942597,-0.21645950356731666,-0.24149536244017225,-0.2942440613542994,-0.34875874779161176,-0.30108662173822703,-0.2551830692591339,-0.10053538883784745,-0.058013112383661455,-0.02356791131906818,0.028876059869149838,0.014928060373333264,-0.00034497256704088975,0.028629325069711213,0.06944535576770036,0.12868637601939514,0.1869426303204954,0.22480371973482097,0.2618473077680229,0.2851591029446675,0.3208125017077665,0.34289414516483785,0.3969688984783613,0.4506219180301236,0.503927206319905,0.5569565127378953,0.5967827346532588,0.6104759846525958,0.6240923885638165,0.6246960226799247,0.5993478428319803,0.5805928447184107,0.581478528720937,0.5630641627170783,0.544889602924185,0.5464918902387935,0.49643101441446447,0.4792202213652404,0.45590511719264404,0.4460124076295663,0.4365756879208257,0.4081281570567055,0.4256769916515134,0.4047695052513351,0.37791787448224784,0.37763225212280294,0.3584429070522119,0.3528562142983926,0.3348932609422528,0.3370568655161035,0.3333646763534759,0.33032348746605994,0.3084457612721747,0.29372947192018256,0.2601857217896615,0.25980213892279674,0.24059439135320862,0.19606401145130337,0.20418748911799478,0.1804861791217085,0.1639455729508722,0.16755759489302854,0.17182251854536923,0.14424344733211678,0.11080612129737588,0.12998639023050057,0.12379805984779649,0.12472311120607107,0.10675941063935793,0.08939136421361482,0.06611017942775738,0.07589378017136082,0.06674543308814172,0.07114418585537974,0.05658709049821697,0.02306167428335202,0.03553684346700323,0.022519898954575953,0.009990456854716313,-0.0020646440934133344,-0.0006622827179405139,0.027180858294197183,0.04896099582543955,0.07116320800891839,0.03529066624781394,0.038802174749200155,0.049193037416874974,0.03395836414376261,0.02557468078257256,0.011031180046712944,0.016305923931171383,0.002395257350062892,0.014771604190346916,0.00143488347523758,-0.005138899127607867,0.027526254875050452,0.027936173091913714,0.015570872195370044,0.02290656156193661,0.01093954459629997,0.03813850305779746,0.04600507254309313,0.028026027496313645,0.04916774045369257,0.04443311997138118,0.04629732165428702,0.04824628178673432,0.04376570516643905,0.05883188632219435,0.05443923902929503,0.04356721244358211,0.05219131590969592,0.04130517901124202,0.004393001337732722,-0.006577728314739807,0.008375127344932185,-0.01574733143292607,0.005513776153810449,-0.012333494101175261,-0.02381779012313634,-0.035451917695364155,-0.008259256563607436,-0.0007323114288925617,-0.006381140437899739,-0.005719399782728887,-0.005252804217127044,0.008007973425629908,0.021060094558677644,-0.011590150407201414,0.014021246065738582,-0.006081925580379282,-0.013421790197231652,0.02448744037644618,0.03616217029203165,0.015100343188672583,0.00028688524214601696,-0.014780516220967748,0.002384821846468648,-0.013201506246825062,0.003439405733706039,-0.006177439491736508,-0.029057228282510863,-0.01971372917873686,-0.023632276978808524,-0.0343110041368701,-0.045245798040752364,-0.02393662176290442,-0.02235530052742546,-0.0014970588843858583,0.01916150663721922,0.013645775536491671,0.014464527237474847,0.02813380816534561,0.022180595267661155,0.029113386747909843,0.009960741789134243,-0.0027690978750875765,0.010435727300119137,0.030098342768943916,0.023745489421945324,0.017387253390443166,0.004542771115823796,0.024218255450687218,0.03744190222381131,0.04423078332767946,0.03160545106026981,0.04506973229811856,0.05214930158053954,0.03986410667567687,0.06021549653013893,0.05473579549754751,0.08842218451148944,0.10280641316912646,0.0979032846891732,0.11921425160575862,0.16025494739661036,0.14955874754322557,0.12612705152481749,0.1614513419893475,0.16456831613708836,0.16148085537655277,0.13920202111968952,0.15622389549163973,0.15407087314248852,0.13275006333531852,0.13125680213383015,0.12360409992643405,0.17477863751249187,0.14182515951095387,0.14821235053996942,0.12246320031697279,0.15555411231007651,0.15001405808897128,0.15133088768772524,0.12701370676014923,0.10955252623058777,0.14443305433984624,0.10818813056117027,0.12428018751742899,0.14721879588591008,0.13801107113546085,0.1551358855284076,0.15310076219176463,0.1838849414605775,0.16300540812363815,0.20742137951244616,0.2131536073865538,0.2191814626335552,0.21899608702552645,0.2320801911972193,0.23242822745546968,0.25251698343863244,0.29882941987393613,0.32586190536371384,0.33359647771067985,0.3804970411404964,0.3820661756614983,0.3967642150317533,0.42456608694597514,0.43295390431531655,0.44139298676047206,0.4498519905551238,0.4842900297780081,0.46669331016795373,0.5009942694035615,0.522170690691954,0.543175846578873,0.5704622325641093,0.577988797305734,0.6046932990756286,0.6375252766617093,0.6764275777703914,0.7603288596366904,0.8956635663952458,0.9459026843014602,0.884981546565357,0.8167940807334824,0.7802481275196775,0.6193024578924617,0.4378385892796066,0.21626978493914661,0.051974110401120176,-0.11362743877329318,-0.13767097492605168,-0.1956919592247946,-0.3592421150145873,-0.34895360050951657,-0.27531441747257757,-0.17729958895724715,-0.13284698030232542,-0.08341612334321982,-0.028937425184683913,0.024168465407749678,0.004501986798968611,0.04210660847894804,0.07857895784530879,0.13999161226509307,0.19393326047807855,0.24698088842096458,0.27971784759415896,0.28572258697862163,0.2910629879285611,0.3542963341477365,0.3650261330200389,0.4077991062226056,0.4436949926444611,0.5312639850665571,0.5471054044049598,0.5692590672232232,0.5587950630929294,0.5352641310227998,0.5312105484312347,0.4946997559135152,0.4647688647071409,0.48045251255083166,0.4768123542590277,0.4603874705010758,0.45720905646204313,0.43482250965716884,0.4127562710963874,0.4040384414845877,0.4022005591678114,0.36178314514490956,0.35429170087688777,0.3147684288665843,0.3212134163932717,0.2891710220816475,0.2901399871092606,0.2721524491411014,0.2937079204146784,0.2898393947478064,0.2475637269586761,0.2513688155559631,0.2622761635722603,N
0.7802481275196775,0.6193024578924617,0.4378385892796066,0.21626978493914661,0.051974110401120176,-0.11362743877329318,-0.13767097492605168,-0.1956919592247946,-0.3592421150145873,-0.34895360050951657,-0.27531441747257757,-0.17729958895724715,-0.13284698030232542,-0.08341612334321982,-0.028937425184683913,0.024168465407749678,0.004501986798968611,0.04210660847894804,0.07857895784530879,0.13999161226509307,0.19393326047807855,0.24698088842096458,0.27971784759415896,0.28572258697862163,0.2910629879285611,0.3542963341477365,0.3650261330200389,0.4077991062226056,0.4436949926444611,0.5312639850665571,0.5471054044049598,0.5692590672232232,0.5587950630929294,0.5352641310227998,0.5312105484312347,0.4946997559135152,0.4647688647071409,0.48045251255083166,0.4768123542590277,0.4603874705010758,0.45720905646204313,0.43482250965716884,0.4127562710963874,0.4040384414845877,0.4022005591678114,0.36178314514490956,0.35429170087688777,0.3147684288665843,0.3212134163932717,0.2891710220816475,0.2901399871092606,0.2721524491411014,0.2937079204146784,0.2898393947478064,0.2475637269586761,0.2513688155559631,0.2622761635722603,0.23480785100358603,0.24045163793009075,0.22073078654272463,0.22113801585420392,0.20918694691334513,0.20437542461886352,0.17421491839476172,0.2161791996378639,0.17431268716301004,0.21756702851390372,0.18998469004595084,0.1955336979793042,0.2212141371457161,0.21503611755346552,0.19648847125761515,0.20455345371013192,0.18723801122566483,0.2225113912015392,0.17390242049261542,0.16486546109668726,0.1693961830720096,0.1419949335720401,0.11513920707928792,0.13430212048658885,0.12798922352579303,0.12867605349810388,0.11685217821862934,0.09899918689219883,0.11408891542523684,0.09712204564827759,0.10006568041222846,0.10340660884029895,0.1071256183047882,0.1177011453374484,0.10262209368695674,0.12035110529122507,0.09938698512775204,0.05920226311347111,0.058257969385373566,0.06404051137417374,0.03753783902824177,0.043708241173346735,-0.008446169673871174,-0.02797484614805502,-0.014900765192690096,-0.021229575680855556,0.024499646744510346,0.018299356052733588,0.044628703297326294,-0.000500071547399561,0.019357197471749243,0.0067107408848623915,0.0005321824784841646,0.013800447715465425,-0.00548720252722771,-0.0053629172949119725,0.001160013726363703,-0.03142202063479277,-0.01864931349989735,-0.025516995325942145,-0.026044098190175394,-0.020239894825278205,-0.021107516159598112,-0.022153671753982414,-0.003886733570248699,-0.0312891294738621,-0.013386929470664714,-0.008661053526635053,-0.010609487924479384,0.00026693623817563244,0.004479398610072665,0.008531742275262214,0.012429621728304367,0.02267681499754498,0.026282539385729473,0.029750397389019925,0.026587527705886876,0.016799086475311177,0.0328809278611213,0.042347160106740916,0.06469705659093232,0.060946183224181764,0.05709144435666489,0.027144110067663187,0.029591325481700338,0.044942105692782834,0.02121448687580359,0.016895105767579886,-0.0005038336624667746,-0.004986716187968856,0.016445788896644914,0.011811824110011358,-0.0188852207181994,-0.010660352892465393,-0.0024974447012523792,-0.000888524737015094,0.007169114242530323,0.015183765312025862,0.016663685700542125,0.018113389103317702,0.013040973512168224,0.020947111121952574,0.04183791034517024,0.030232211511284808,0.04461930484016321,0.020023171733167575,-0.011059936617406107,-0.0031375367501256905,0.017804077372949846,-0.013210087299230509,-0.03119178898815948,-0.01663869430451722,-0.0020308361790072455,0.025640496481106362,0.033897044350515874,0.04874391563390618,0.05719705189575696,0.04627215098096964,0.035475455711671926,0.03781481135673951,0.05330155342277483,0.055954163572334396,0.07177618650018543,0.02929839424281872,0.03899985334571494,0.0359089966649578,0.05252655494482297,0.06286958365212754,0.060449374198405445,0.05177323603226698,0.05634450874044567,0.041680943503516685,0.05977617028197574,0.05215478535914772,0.08380624379495343,0.07676008364044741,0.11549957872789614,0.07656630092923598,0.0899297261259019,0.0711194630154153,0.08512249307410315,0.11894744787101029,0.1206135362077327,0.12261553265109076,0.1444512763152293,0.16662899608164605,0.18915069715294877,0.21851571777926201,0.22223345330224079,0.23279386840992347,0.2371986532756008,0.24194283268071273,0.2340257468359414,0.24593268958528616,0.2776569536815257,0.26420894028901815,0.27056098613729795,0.2837061126012313,0.2971341544432511,0.32382802647271924,0.3182856620957501,0.338974034658281,0.37287869796046935,0.39398717854730403,0.3957796371477751,0.42371959409495774,0.4582869288987692,0.44097040531617226,0.47571065048191646,0.49099559948129884,0.5322778003113139,0.5280403545260078,0.5432251923328674,0.5582954432351422,0.5927005177651035,0.5879090406678391,0.6088518308432956,0.6294824409512542,0.6822348751248168,0.7800454915073897,0.8968582399130193,0.9416315080033213,0.9272898582286686,0.8732513110743898,0.7469439210365449,0.5417840411246273,0.32916228393849073,0.13497938981030325,-0.034360045316679744,-0.11396860466367636,-0.14942443252005203,-0.14080768281024897,-0.12717331129260284,-0.2255408913055491,-0.27999493463806613,-0.27106001673689933,-0.18573227972250111,-0.11495277409368909,-0.07166691147274029,-0.042816518198403646,0.010656052517151076,-0.01514714120395584,0.009809888410033421,0.04011408091186528,0.056344991574833254,0.07807097225680808,0.1313582592832001,0.1577965381220925,0.19644733033773076,0.18889887562421062,0.1807090905189322,0.2109367808724192,0.273152685642263,0.3284356581396637,0.35085951829738776,0.43796160152735863,0.5183251679389794,0.5400257864111377,0.5486089270843395,0.5571265290076722,0.5721296219930903,0.5416829544874279,0.5243172395618624,0.5070806537553286,0.503011416790553,0.4601635510620196,0.41756289060209073,0.4142329686253723,0.40471907002955326,0.3565607409324738,0.32177166435908783,0.30687657718316375,0.31190044122765037,0.3043758529701246,0.28432468034844305,0.27126176799868934,0.24571154177856164,0.25967689935438776,0.235196185984842,0.19827710762405754,0.20091885901522655,0.17815265205105274,0.16248118691740335,N
0.8732513110743898,0.7469439210365449,0.5417840411246273,0.32916228393849073,0.13497938981030325,-0.034360045316679744,-0.11396860466367636,-0.14942443252005203,-0.14080768281024897,-0.12717331129260284,-0.2255408913055491,-0.27999493463806613,-0.27106001673689933,-0.18573227972250111,-0.11495277409368909,-0.07166691147274029,-0.042816518198403646,0.010656052517151076,-0.01514714120395584,0.009809888410033421,0.04011408091186528,0.056344991574833254,0.07807097225680808,0.1313582592832001,0.1577965381220925,0.19644733033773076,0.18889887562421062,0.1807090905189322,0.2109367808724192,0.273152685642263,0.3284356581396637,0.35085951829738776,0.43796160152735863,0.5183251679389794,0.5400257864111377,0.5486089270843395,0.5571265290076722,0.5721296219930903,0.5416829544874279,0.5243172395618624,0.5070806537553286,0.503011416790553,0.4601635510620196,0.41756289060209073,0.4142329686253723,0.40471907002955326,0.3565607409324738,0.32177166435908783,0.30687657718316375,0.31190044122765037,0.3043758529701246,0.28432468034844305,0.27126176799868934,0.24571154177856164,0.25967689935438776,0.235196185984842,0.19827710762405754,0.20091885901522655,0.17815265205105274,0.16248118691740335,0.14091910968940463,0.11997475261373963,0.12565024191903487,0.15795443919016472,0.1844047467983078,0.19201227591993847,0.20677621286278083,0.2157057867181959,0.24479818985146376,0.22257704321147215,0.21402623379860175,0.23864137238053648,0.21194634051383535,0.2184161475531235,0.23855408404136783,0.2333678498633057,0.18335845071074605,0.21198538167118783,0.182780573339987,0.16721621454550273,0.18477825067324968,0.17047563052520576,0.182781536669543,0.19569213879381658,0.18970085887039603,0.17129280518094564,0.19243930085031605,0.14265665772690103,0.1583905407774851,0.15514825114065814,0.15240695708226248,0.14365038635689528,0.12885967087686595,0.1470042214575353,0.1460784779209485,0.12606147460802133,0.11292418023726902,0.11314243464234189,0.08770434968850849,0.10156813060881997,0.10922271884212593,0.09114921275661192,0.09930799272433885,0.08818649048384529,0.07075513696618131,0.07947842074743627,0.08833698089553947,0.08430739147131101,0.11284928058314157,0.08296036476002243,0.07259011728947018,0.0687132699622162,0.019315194463421993,0.008842408954341139,-0.027716487407181623,-0.012413283440407206,-0.03624945590322093,-0.027771147479150302,-0.025989882425865012,-0.04392188197203537,-0.04259556876752308,-0.05451502100087209,-0.040700442164123773,-0.014152186362302272,-0.020357572120912104,-0.02032641300528927,-0.014055585766401663,-0.0015400361459816769,-0.054253202722583486,-0.016232561033923985,-0.03692424361083153,-0.04483519034593014,0.005538501901310557,0.029741671764558855,0.034293456879934785,0.05170551094518797,0.049507654265811406,0.03421844577472655,0.09033419117655028,0.07491520834626722,0.0724571802253093,0.07648108848410537,0.0805075525071831,0.07805680927362749,0.08214319180225262,0.09928247663532885,0.0775065338666922,0.07531556245024833,0.0732313794972668,0.06477175792619932,0.0499522706910973,0.07427533023470272,0.040283443003465126,0.05846006222709441,0.05733978632816243,0.06942758050888577,0.055748295155079834,0.08129709259461285,0.08760369875642972,0.13316442454896257,0.1270173204347129,0.15365025825148476,0.18708164947802697,0.18833280495680227,0.20290026062449024,0.17880711786628675,0.22652961837851548,0.23560545927700435,0.23203269507193167,0.24830636843867615,0.27143319854166037,0.24942966585848123,0.26027421755068747,0.2649770621665483,0.30252510119321163,0.31443141834505606,0.31368741282842355,0.3262792440775586,0.36519517070464697,0.39143649038567635,0.39199533959076943,0.39285089476258034,0.4264785385595621,0.421381030305738,0.4165278222048914,0.4508862595556541,0.46594911213008783,0.4551922248089345,0.4705726084598499,0.44707800652441565,0.46915163200860704,0.48477297248592477,0.4679118345416977,0.4965062599763482,0.5185286271811803,0.5209378291711817,0.5426754958581821,0.5382044919624012,0.5334647969440489,0.5478955330483779,0.6139294875816503,0.6145388859450263,0.718612196362106,0.8091155018921818,0.9184691149610005,0.9426278123743566,0.8555197729024366,0.793522616988796,0.6915665355107111,0.49757408411736714,0.27643135209022246,0.09952010703281182,-0.03325909372556067,-0.15449702141861268,-0.22530145954868794,-0.33023067205854345,-0.3718728658623553,-0.2527848759604542,-0.1809020204782841,-0.15619428481816025,-0.07464380961049669,-0.05965371376605187,-0.05916953783624668,-0.040625653847184355,-0.03643247464384662,-0.001018559324132745,0.039711165981679994,0.09234270286893632,0.1504655219921562,0.18817413371485328,0.2380457918054064,0.2481806486590608,0.29664099029204777,0.31852820558241546,0.398400022630697,0.44536208969897206,0.5114777192841452,0.5448373379927173,0.5260196460050768,0.5590657769723699,0.5595674148650922,0.5535822735973064,0.5476707706685097,0.50290339231935,0.5428020412490531,0.5374576241324905,0.5648996517942396,0.5666934577283145,0.5493832128554431,0.5584992517840477,0.5550930017040226,0.5521984268489808,0.5628467159875267,0.5740736321261416,0.5534176254602353,0.5333959377420288,0.5400248774431189,0.508343759360452,0.49685435582403453,0.4665834045576183,0.44353682093814756,0.40173285788556623,0.3671728801756916,0.3463617453425594,0.31980981028581584,0.30051653105886617,0.26898893370357807,0.24472153883414732,0.24070935592760387,0.21146267512080819,0.23495574066128874,0.2072130860932756,0.2257012221497099,0.20593697010817963,0.19339934659010685,0.19457734137707963,0.18996631248396412,0.20554780838640016,0.17632810103350394,0.1737739246777916,0.1588823066588211,0.15763106737149946,0.16350640183671417,0.16349555072751873,0.1510831033774547,0.15224366260479624,0.13446758007982554,0.13022610817948424,0.13300082978782998,0.12977451046588248,0.11402741696300954,0.09873366573351844,0.11636130167212345,0.108403549310249,0.120323710452767,0.08061755342185264,0.09323073211855452,0.08015984396623162,0.08036801169953263,0.054839962943919546,N
0.6145388859450263,0.718612196362106,0.8091155018921818,0.9184691149610005,0.9426278123743566,0.8555197729024366,0.793522616988796,0.6915665355107111,0.49757408411736714,0.27643135209022246,0.09952010703281182,-0.03325909372556067,-0.15449702141861268,-0.22530145954868794,-0.33023067205854345,-0.3718728658623553,-0.2527848759604542,-0.1809020204782841,-0.15619428481816025,-0.07464380961049669,-0.05965371376605187,-0.05916953783624668,-0.040625653847184355,-0.03643247464384662,-0.001018559324132745,0.039711165981679994,0.09234270286893632,0.1504655219921562,0.18817413371485328,0.2380457918054064,0.2481806486590608,0.29664099029204777,0.31852820558241546,0.398400022630697,0.44536208969897206,0.5114777192841452,0.5448373379927173,0.5260196460050768,0.5590657769723699,0.5595674148650922,0.5535822735973064,0.5476707706685097,0.50290339231935,0.5428020412490531,0.5374576241324905,0.5648996517942396,0.5666934577283145,0.5493832128554431,0.5584992517840477,0.5550930017040226,0.5521984268489808,0.5628467159875267,0.5740736321261416,0.5534176254602353,0.5333959377420288,0.5400248774431189,0.508343759360452,0.49685435582403453,0.4665834045576183,0.44353682093814756,0.40173285788556623,0.3671728801756916,0.3463617453425594,0.31980981028581584,0.30051653105886617,0.26898893370357807,0.24472153883414732,0.24070935592760387,0.21146267512080819,0.23495574066128874,0.2072130860932756,0.2257012221497099,0.20593697010817963,0.19339934659010685,0.19457734137707963,0.18996631248396412,0.20554780838640016,0.17632810103350394,0.1737739246777916,0.1588823066588211,0.15763106737149946,0.16350640183671417,0.16349555072751873,0.1510831033774547,0.15224366260479624,0.13446758007982554,0.13022610817948424,0.13300082978782998,0.12977451046588248,0.11402741696300954,0.09873366573351844,0.11636130167212345,0.108403549310249,0.120323710452767,0.08061755342185264,0.09323073211855452,0.08015984396623162,0.08036801169953263,0.054839962943919546,0.07502884875724913,0.04993339118513238,0.05100609194136761,0.03273221160784694,0.05356741481595893,0.029007546301094506,0.03050417158150413,0.0060435534802595605,0.04007329234201653,0.0026014739412549745,0.010566299000888008,-0.007540864345961085,-0.03225437410270294,-0.02461337331314339,-0.0366282675505096,-0.0423291298075971,-0.04823338435427041,-0.015367270845581819,-0.04771210300000893,-0.03480825029289007,-0.028645704362209572,-0.016229488137201466,-0.023550900360168867,-0.01811620223956661,7.975138919836566e-05,-0.014443336617548643,-0.0031951047222834655,0.007840020227032597,0.018670579687375854,0.029305075915621415,0.020257419238254266,0.024026702996357736,0.02762475589643825,0.044055951281476165,0.02134286244569985,0.050467498638520604,0.0339649428126173,0.043322346588103904,0.046056032680424484,0.042172938155776246,0.0446761021851875,0.053572020690001144,0.04287430144106013,0.04507978008157895,0.03420158215078955,0.02973977113650419,0.057692405711121546,0.04658490296072599,0.07440021393680958,0.043670569568924164,0.03887648217547452,0.021033088064570125,0.05512598824186524,0.06967918850513193,0.03220541617718417,0.04667854022733545,0.02212728282290106,0.04952878612841764,0.04440959447458195,0.032764829820613454,0.04708755827025638,0.022398189215646794,0.049672885231063,0.05093537589490898,0.03268530292362646,0.027414718126766918,0.03512467892488066,0.029823440894938668,0.031006247337997683,0.03217552766792109,0.03982988865232979,0.027976945218720108,0.0226094426851227,0.023727321714853394,0.03133040992401441,0.025923917714607565,0.02050372979907114,0.028065601270254866,0.003121688969883864,0.03014733326162194,0.00517103931826785,0.019166147350871195,-0.005846349289643606,0.021106767921839336,-0.003945712861298947,0.003471710562902912,0.010867923774177715,0.011744459763694355,0.03209362814548899,0.006933353116337384,0.0337355532173057,0.015027126547777225,0.01578895734179997,0.023023860387822597,0.043229070106998474,0.05041087483869268,0.038069845354411526,0.012702632756281407,-0.019194302202798354,0.013857099641879835,0.0078862337163077,0.027874747165906842,0.015339090047482542,0.0027698997390654093,0.02265773692323607,-0.01597200922437141,0.01034542153560097,0.004138656238482031,0.010895926427431632,-0.0018725513576380182,0.03081587783101119,0.004991725828568563,0.037623000935739906,-0.014248961205288298,0.018328964172532974,0.00539561063269455,0.0249310382537778,-0.0075388746761202545,0.0054602788658287636,0.031440298245602905,0.03141478933528829,0.0443751951154467,0.04433113956772061,0.031284689567765575,0.04422668749052296,0.011678994015032883,0.01162107111433446,0.024559829479037912,0.04399845407939216,0.017952843739018017,0.0373983335242048,0.024357847732094977,0.02431928132561044,-0.001705753024029552,0.004766728645445731,0.017744711840380713,0.024232490618470562,0.043725101276337684,0.017739464638184356,0.01775560675265116,0.024279138276094202,0.017815581086835505,0.011361166629992005,0.011413871080277882,0.00497711522908219,0.011545093760924765,0.011622979319766026,0.00521038540158891,0.011801365964971684,0.024897284146576364,0.03150127788373785,0.018616360627370068,0.018732551669478046,-0.0071400508972060215,0.005979216437247233,0.03859553498513845,0.006232394237713578,0.01285991029096372,0.01948851184396936,0.039113892836237375,0.01325182164724555,0.013381194936952246,0.02000651641124623,0.03312672144753327,0.0007553158506588555,0.000868963641805769,0.033466330755610806,0.007571752086930932,0.02715438097388649,0.027231011890908867,0.02729446404298881,0.014346589517571118,0.014378101084763546,0.020888808819240007,0.014382118520174339,0.007852162505182348,0.04028566595127621,0.020705990924710347,-0.011900378086645532,0.013943770837609485,-0.012231873236127797,0.007043627199596431,0.026282715445254606,0.012994131968177164,-0.00033185225291008686,0.018794968790058326,-0.02060032502633508,0.01144490274455391,0.017459428842844134,-0.00905370052089832,0.0033864678767151907,0.022291088280667264,0.0021749656186065523,0.014519784827690528,0.026836560890292654,0.026130734767353822,0.012403945622005053,0.011650366733692049,0.0303696107846408,0.036072235050259985,0.015763143535395985,N
0.5702962984123646,0.594933744734246,0.7685440662636343,0.7986530108885666,0.7761742891340856,0.7270359563352071,0.644671355993015,0.5355065288138048,0.3474807964146174,0.18448679149978264,-0.005540579250285404,-0.10571501058420253,-0.1681019919004839,-0.2512551358641358,-0.2902469277934861,-0.25261681473144293,-0.1708583321877448,-0.096935515652223,-0.0762980028806527,0.014566098250105753,0.006758449511090667,-0.041183543419747705,-0.06422434246420951,-0.02331716187745867,0.029616558702913683,0.08814475811717684,0.11334439616031948,0.11177915525102061,0.1290011482409612,0.15207843335357055,0.22656191953901106,0.2550420991203383,0.2960643202309443,0.34968916006124984,0.3899830507100856,0.4429960053704595,0.456798093010159,0.47692966050440294,0.4839471088129727,0.45190628805485,0.45233312150093097,0.45927878000321265,0.4337958403630899,0.4149125772980244,0.4091642655837898,0.4100877730482785,0.3917234231205635,0.38009481833083003,0.36223460543716424,0.35766436168604665,0.3339185236109525,0.3300095675410182,0.31346847209529216,0.31030806157746055,0.3205469281788596,0.29871494920303704,0.2838165597213637,0.28236387026797816,0.27487490752423105,0.25486261873711635,0.2418312415490794,0.24228740690447712,0.2367438718214696,0.23170484665117136,0.20768069325534852,0.210162276896506,0.20666143012371566,0.1906815994446537,0.20121236140732637,0.18626801245678123,0.21082883444120892,0.1774200230563069,0.17051437324352306,0.1901076323417256,0.16471486700044694,0.15931168337349974,0.16089486973039482,0.1629585839747234,0.1524980133432308,0.12950386266473676,0.12645690524048028,0.12385193731240901,0.11517945522293904,0.11992200082478878,0.10557621053342246,0.09162345069427845,0.08454822738674785,0.07783825618797352,0.06498082993396136,0.07195368323192225,0.07274889624493956,0.05435452175267499,0.07523807690777827,0.03791081847035677,0.04632677897754787,0.04848381279246263,0.03136853979930086,0.046948999388170834,0.030226082641531305,0.039665603554291544,0.016766233525997223,0.03298976947812115,0.016838268266029147,0.020278779453687144,-0.015190556858733415,0.007884286654975337,-0.014484371543491545,-0.03032826379393857,-0.00717224499836531,0.0029855506238251014,-0.025859665013506762,-0.028738368229292134,-0.005660240599258282,0.00437876929086583,0.0013722477331918697,0.0048082577034764505,-0.01131230803124308,0.011487579757246383,-0.011273631268518549,-0.03411422703395524,-0.024547754854505027,-0.015066183119013197,-0.012166483409625027,-0.0028496974435976777,0.006389790300244136,-0.003938466320661797,0.00515855033464579,0.007692570136456588,0.0166642943172917,0.019081720876832547,0.021447263070780574,0.030263238746232678,0.03253735993647861,0.03477168593610569,0.023973614775409775,0.019641201588742996,0.047770547834880606,0.0563796624566232,0.019478980314020938,0.04754014441125376,0.04309338219768843,0.0776210044268977,0.05365278538061511,0.07516126320296637,0.05767188819173012,0.06616755726580566,0.061660219904695314,0.07014315667508736,0.0526276779175982,0.04810273756702755,0.050069863072304696,0.0390340089836767,0.047485209042053084,0.05592797227832046,0.0708592350673093,0.05328849079650781,0.029206540482201147,0.018105752505723233,0.026482016830710938,0.034838468122049764,0.017179942442043697,0.02548909597062287,0.0012796737155520506,-0.003465881488430708,-0.0017467951299283513,0.019430701331186618,0.001580714263109659,-0.0033139218470177667,-0.0017538761481005966,0.03225132799601808,0.040216173337265224,0.0026439785259112347,-0.008987812173678842,0.024812902742989543,0.01956841954261171,0.007767901892319451,-0.010590415345339194,0.009978827200154985,-0.002004996476171207,0.024937093961512332,0.02582277928125902,0.0071494436831221215,0.0014070070232472638,0.0020963562555783902,0.022212869876515877,-0.01622241079428276,-0.002741735919089492,-0.008824467921073515,-0.0019790496785357468,-0.027691080055290924,-0.007980812247986678,-0.0013273588431072644,0.011768920059993833,0.011818793306069825,-0.01416886291222936,-0.0012072371862533755,0.0052230026621714965,-0.00786786553876192,-0.0014842605358961246,0.004886650638677377,-0.0017439918498846436,0.02411842346279635,0.023998014640369103,0.017396773464331706,0.010820239341114467,0.01727203088577768,0.023763047842195944,0.036798602171580826,-0.0020977749050673828,-0.0019449137323230981,0.01127156316890503,0.024562550429507668,-0.0010537784474296244,0.005909452500879505,0.02596489265121253,0.007134330870598329,-0.0050880809109391315,-0.0041972235900134295,-0.003181993273043382,-0.021529053522703817,-0.03323760226482776,0.026684204989819764,0.008791885950280253,0.010571140219465274,0.019038798168403738,0.053702468274909244,0.03659717093534646,0.07170631142366052,0.11355528960050544,0.13616364537246983,0.17853201279466682,0.17568968602402668,0.16013755944487407,0.16437564899310347,0.14292517560684478,0.12828453265594977,0.12695873411440317,0.09996498918604516,0.11229053136100123,0.10545693664700335,0.11845771248658518,0.1318023433051217,0.13899605362441983,0.1790305723020507,0.19992260652035573,0.22766596261878155,0.2622607825537531,0.21922990944941792,0.19604352851593324,0.2056945683114449,0.176698816673992,0.16753435681871665,0.1392058955792192,0.143691628812277,0.1484928958427255,0.16009931469223912,0.1655052623405213,0.17769698004069098,0.1901653829420635,0.21589499628654565,0.1963895663716596,0.24860224721737165,0.24905306177341802,0.26920577575321625,0.27005408433242134,0.27107383239028515,0.3112340131131289,0.3060371066606644,0.30744552706497996,0.2959403300551602,0.34947352702011325,0.364046996257174,0.36562419254598655,0.40615941520120213,0.4336344763365536,0.43501815442368086,0.4557605554943172,0.4633316161794569,0.48368249003979186,0.5167693492079435,0.5495496150190888,0.5819744573466528,0.6074941321234876,0.7040321459126226,0.8195456439564813,0.8240102570267908,0.7823425039419749,0.7269639525066867,0.6513032616580752,0.5032982921660457,0.32185797497915664,0.1328923921695101,0.014295346059310859,-0.0730070169561476,-0.11610329241832523,-0.1995476330895296,-0.22593450852936517,-0.29928258323970747,-0.23766974547424233,-0.1710574288811151,N
0.5819744573466528,0.6074941321234876,0.7040321459126226,0.8195456439564813,0.8240102570267908,0.7823425039419749,0.7269639525066867,0.6513032616580752,0.5032982921660457,0.32185797497915664,0.1328923921695101,0.014295346059310859,-0.0730070169561476,-0.11610329241832523,-0.1995476330895296,-0.22593450852936517,-0.29928258323970747,-0.23766974547424233,-0.1710574288811151,-0.11241749701770046,-0.08120372917812713,-0.018881230684340274,-0.022863381123946234,-0.047602110132696884,-0.03455084294014174,-0.022630975462826816,0.03371553921524502,0.0890745712577791,0.09803182225078437,0.11914320748736913,0.14598249017655784,0.17862100400383454,0.19113668797224276,0.2355845822897728,0.3120334419409976,0.3815618468325946,0.41824314908902627,0.43513779018050386,0.4777949513239789,0.48779097896749674,0.5106704896643005,0.5010013343177773,0.47183230621134103,0.501191355546706,0.4721590875891383,0.4627585874220432,0.4600362526384265,0.43803983465336266,0.42280011424064085,0.4143530172048879,0.4062341891576616,0.38547903775293646,0.38460810282122154,0.3516638362953732,0.3386574261476893,0.3066239753363248,0.294574887842271,0.3155273697566532,0.2915228276011963,0.3135534112657042,0.2906611596359198,0.26184986768047475,0.2791182094471963,0.2515038934996341,0.243999221430224,0.2566135753869619,0.25036612036675354,0.23826006783860534,0.2397955436334195,0.21598798654928322,0.23832046167901838,0.21582079936308385,0.19397712838207204,0.2182764984125786,0.23673249635809848,0.22335028250962358,0.19112283065064747,0.21152549354572628,0.21957117830282086,0.20225706394240223,0.1920663949765306,0.18249240747696296,0.17352554337597884,0.17165349833631732,0.1638686018155091,0.18914765454357105,0.16300148025006336,0.14389961316121286,0.12532911057087265,0.13326714123731626,0.16769758250327535,0.12463298629581959,0.1470153813690013,0.14385219038204064,0.1151244276122122,0.14528854857830292,0.11735728120954715,0.08979311418986184,0.10156345083926617,0.10066091881724692,0.08706296750601474,0.09323737394567225,0.09316798412900942,0.08033267643943814,0.048208863420449666,0.05525521787712538,0.062457678682771,0.05029640701209447,0.04473841509889092,0.039259632732434144,0.04033209839491695,0.03493315569287655,0.03603261134234722,0.004614767853606686,-0.007361925731162614,7.562701640449342e-05,-0.018585941439863012,-0.030882004704304536,-0.02384066929431425,-0.029974271284320012,-0.023309386152691684,-0.016858738977010308,-0.03662917282816685,-0.04364426727187673,-0.02491678687242591,-0.02593884572118429,-0.0012258641198078827,-0.022257789644559097,-0.030551129564664395,0.012885224763174703,-0.021907036665362915,-0.004959640580832459,-0.014243550705217373,0.002234064255298954,-0.0010051041556084974,0.0020404525528835613,0.024376005971498624,0.02702148794871953,0.022982037992977024,0.02526266050526202,0.05336641116887271,0.04232005885134058,0.057113429438085964,0.058765478134278994,0.040785705540428624,0.061664980354625414,0.0499306434964874,0.03808038664068659,0.05211348561618011,0.07254186250251121,0.047386347849308744,0.04813256715433663,0.04879341609616089,0.04937421446050059,0.04338187187349703,0.056813882052704844,0.05068585988134701,0.050994798098208546,0.0447484388577916,0.02545243553310478,0.03209938110244327,0.06469274412694061,0.03875967216836087,0.038779310329675555,0.03226361845054483,0.0387096920140551,0.025629135645222435,0.019016856153077837,0.012376801238487873,0.025205488288027055,0.031512209456782854,0.011804297064898366,0.02456692018143636,0.017816363581521062,0.004550451130648154,0.00426508380499233,0.01046347505848356,0.023146983212130153,0.003327917114581627,0.015989128959527168,-0.0038498695488744443,0.02179000958282974,0.027928563850760903,-0.004927354851527258,-0.005296707578339132,0.0008295198272735096,-0.012539155290521197,0.013082940767309672,-0.0002788171228902602,0.012360536735457776,0.018513501639100996,-0.007809318725400122,-0.0016230865440319648,0.004585284995039434,0.010819867859356088,-0.008907953679954258,0.0038893110513608282,-0.009266992481796679,0.010111453203870007,0.0035468544909933093,0.023030192477392682,0.01658177144665909,-0.0027965575436063343,0.016885970810323406,0.004155229827694682,-0.00849233252214461,0.004941544761506912,-0.00752206485902649,0.006108546450811244,0.006851474426776573,-0.0117843847756204,-0.004304839718263826,-0.016188906141445508,0.004557302061774806,-0.0005396163280322602,0.001021241378154969,-0.029738998984560287,0.01765860574015477,0.026260007176133107,0.061059722044101296,0.06358697810730253,0.10533402168031436,0.12782945729287915,0.13758302472960285,0.1541001570127994,0.14490026970968106,0.1359855036191503,0.12086644407627456,0.12554382745108944,0.08504345908644863,0.08384833903350519,0.09597221685366356,0.09542842286663275,0.10171697087851839,0.10184656659082514,0.10231990569769504,0.1096391746604371,0.18229137788080962,0.20331248436727212,0.20519537409883076,0.22693007668456724,0.21653126906173123,0.2129868202121503,0.18380368834383684,0.16796759484817161,0.16547434494311017,0.16332257162363908,0.1355137481280256,0.16651735635413173,0.1588535472411561,0.1839939601464436,0.18344611630965793,0.2026872760806172,0.2092157882685918,0.21601615159395154,0.2425699848906224,0.2628706635642914,0.23791401778572654,0.2911487181848087,0.29259376431393774,0.2877171871793471,0.30898922243345434,0.3433915037952603,0.33891512288267023,0.3670146120135172,0.38217581746506996,0.4038644123665089,0.412555161812944,0.4277098087324064,0.44279536850712886,0.4707712165477914,0.498601849518243,0.5002530778412546,0.5081717146628252,0.561300238056061,0.5621170951930532,0.6080429125196196,0.6860266806236484,0.7960106822634593,0.8469594433690075,0.8388078365117985,0.7649883332736228,0.729398036469542,0.6214907396205416,0.43468724833738,0.25987775366457605,0.12296861128543404,0.004377714147009478,-0.08298682868421352,-0.14571142860781378,-0.2033709456596392,-0.2625300649048261,-0.29074515401368933,-0.28154030507036626,-0.195921158406877,-0.1053354332987126,-0.04872140554882966,-0.03251651313153408,0.021322595014859655,0.008893705630862043,N
0.5621170951930532,0.6080429125196196,0.6860266806236484,0.7960106822634593,0.8469594433690075,0.8388078365117985,0.7649883332736228,0.729398036469542,0.6214907396205416,0.43468724833738,0.25987775366457605,0.12296861128543404,0.004377714147009478,-0.08298682868421352,-0.14571142860781378,-0.2033709456596392,-0.2625300649048261,-0.29074515401368933,-0.28154030507036626,-0.195921158406877,-0.1053354332987126,-0.04872140554882966,-0.03251651313153408,0.021322595014859655,0.008893705630862043,-0.011251346343560167,-0.026047933784449338,-0.009434028304950146,0.03216404207301603,0.05333184840523408,0.1191236261997316,0.13213918949286216,0.14443557913028562,0.19507284287671886,0.21913964723902696,0.23619984386232448,0.32429968442596524,0.3665392538351658,0.4084711703091518,0.43716272363840414,0.45917365983504393,0.4940578714825679,0.5028834595636982,0.5116977166967721,0.5140545901203424,0.49700730239188107,0.4606028381809035,0.45687102666039103,0.44686506729417275,0.4566175371159164,0.4081881197539975,0.41857920152402317,0.41634430821858176,0.3820202022742316,0.400112223485946,0.347182483387775,0.3467214082675462,0.33377086891825003,0.3278471630282994,0.27698509131429333,0.31116646864693837,0.2874487448866006,0.3098181293761977,0.26781990986251414,0.27843364173909096,0.2766888879099971,0.24959914865107094,0.25565636891118065,0.26237691894848997,0.23727589073931776,0.23234322487785264,0.2735750108088402,0.2505046862184601,0.2281148081152632,0.21940135144439188,0.22436281819195292,0.22350211475980464,0.21031735812070826,0.21729454489183442,0.192442459601099,0.20073579176864373,0.1641886124673733,0.186762642481156,0.18397196206837826,0.16880221056167236,0.16723443981885486,0.19225252530169498,0.15936701341230433,0.1400434779101017,0.14076503379446642,0.1485195972698967,0.15029438071572154,0.14607218629827823,0.12283873232700597,0.12606250248288764,0.1297315381357748,0.12082958272800116,0.11883056200669585,0.11721513280108549,0.10946335778758659,0.08905471356695172,0.08845712657812792,0.06865824986902475,0.06862328851188573,0.062335442362732675,0.049770232931133744,0.04389920243443979,0.05769364423883696,0.05863746886701856,0.046705129335942897,0.03486711786021837,0.02959552693630946,0.01786777614759955,-0.006840696707665449,0.03342161733234371,-0.010828939641759818,-0.016153212562565546,0.004427492344161116,-0.014091926132129791,-0.019749599874499656,-0.025563983957999633,-0.00556266009070936,-0.02474510809719361,-0.044139620269352746,-0.031270304306315104,-0.03813323514574745,-0.03224535654394338,-0.039603485332332704,-0.014721546916003936,-0.003084031063900142,-0.024181364228018375,-0.013027519374940523,-0.002106665129105353,0.015087264654372568,0.012569705291080039,-0.009651318569730548,0.026410149182633548,0.003795995759212132,0.019987460672707888,0.02950610822090528,0.0258623999192689,0.03505748071520841,0.05709970147414495,0.03351374204162113,0.048783652999610995,0.050931827318936564,0.0464639097846298,0.05488162290758044,0.056697459724145936,0.07141263601755236,0.05354642215875486,0.055090224342986764,0.050057186723403764,0.06444550754201755,0.06576963902243102,0.08002720689318421,0.06173567991715241,0.056386453416137676,0.05098711830106725,0.08453031309057918,0.05954693132527792,0.06051609728412497,0.05494964604647481,0.04284994107368153,0.043713569656360765,0.03804790768043916,0.03885094342648106,0.026629643973026165,0.020879779298880338,0.021602487657137803,0.04179513528699065,0.01647698610522575,0.03012491748038986,0.043750566738651346,0.018365420581591206,0.012453239845415109,0.013017865421756047,0.03305574070603668,0.020581582079380024,0.02108243353166425,0.008565408027387474,0.022019175043852177,-0.0035382978486351207,0.00987050305929598,-0.0157325610046221,0.010626642839755963,-0.00202491132405157,-0.01469697869579615,-0.014391786878642277,0.005391666544724468,-0.007327744521103155,-0.007058680242406486,-0.000294434189715258,-2.579555143342805e-05,-0.0062471931597223,-0.005956721011171245,0.02684445276597503,0.02068323304450976,-0.0114374490225736,-0.011027602350966337,0.0024258563913307583,-0.01655560661144866,0.0035164541605975735,0.004168733160054915,0.024400400144696455,0.005738111141170905,0.026169890216567984,0.04021857508997433,0.015403205016019977,-0.015775719918568278,-0.0013232780655969606,0.01328445802906113,-0.01742845846905039,0.004021615418260869,-0.006828675017180658,0.02801145022080343,0.01758109884758995,0.0398715595262328,0.08189970631933031,0.09819138296919702,0.10825368564458822,0.12509505336484697,0.1487270514958936,0.17916061992838123,0.15792245918523048,0.1500035316437096,0.14241601575882437,0.11567317377542488,0.1347637163607469,0.10222162100372603,0.1285215095346276,0.12919250690069506,0.14972641929156869,0.1446400802393928,0.15292573514667918,0.2070767400230408,0.268105858131945,0.23854132162068345,0.25484400503715726,0.25203043825524546,0.21710120646877928,0.17604463187438218,0.16134611735514218,0.147006689838513,0.13301923429134968,0.17136123018703633,0.17754800186034272,0.21655183926732435,0.21688265458158537,0.21101993629748922,0.19895125753364,0.2326484658489382,0.2666099211585379,0.26832915252025796,0.2897745164447756,0.2984368672945411,0.32028910629189755,0.35530997770486267,0.33849496243094984,0.36079375343771747,0.3961873597529614,0.399160487858218,0.42816652237818037,0.44418435924764327,0.44717975072377303,0.4891015576819175,0.498431247441223,0.5336111656629923,0.5426123405798374,0.5513811266785089,0.5598685006140657,0.5875171807134243,0.6277744211910102,0.7000772034453333,0.7718740404628192,0.8755916067688493,0.8941948950911653,0.8730986750119066,0.7927315832137641,0.7244922175810141,0.5968155561050784,0.3836201176637707,0.2082792594845603,0.07719742922937808,-0.0682036287611149,-0.13704473370596806,-0.19439621409943159,-0.2663263820310707,-0.33339791860262985,-0.3501555391395714,-0.2386214552026041,-0.12872593173612976,-0.07239857033633848,-0.02408425074844651,0.02279002799152784,0.05530505627389674,0.002058014806356325,-0.0329037050312533,0.008980114503352973,0.0563094931544932,N
0.5875171807134243,0.6277744211910102,0.7000772034453333,0.7718740404628192,0.8755916067688493,0.8941948950911653,0.8730986750119066,0.7927315832137641,0.7244922175810141,0.5968155561050784,0.3836201176637707,0.2082792594845603,0.07719742922937808,-0.0682036287611149,-0.13704473370596806,-0.19439621409943159,-0.2663263820310707,-0.33339791860262985,-0.3501555391395714,-0.2386214552026041,-0.12872593173612976,-0.07239857033633848,-0.02408425074844651,0.02279002799152784,0.05530505627389674,0.002058014806356325,-0.0329037050312533,0.008980114503352973,0.0563094931544932,0.14165506484586826,0.18062019048876274,0.21227268037658414,0.24968677693179844,0.24095399928849692,0.26412794199683104,0.3192830005269881,0.39349591732445166,0.4088601764947289,0.5084049452086473,0.5102490367112891,0.53792253327038,0.5524988110960313,0.5800302187106603,0.5425956830626727,0.5572162167242976,0.5134743025519448,0.5283854540583445,0.4980249668398073,0.4874178155703019,0.4836084904889958,0.45414454616848676,0.4445491134488871,0.43536139052260575,0.4266128514139756,0.3988382947628856,0.39755204806993943,0.37729211794930584,0.35107801898738783,0.34492371169499336,0.33285607165285735,0.3343874131706371,0.3235412229301508,0.3068301466386369,0.3102597108747108,0.30135041233377946,0.3061046921451708,0.29853815514617327,0.2916538728055977,0.27246075913149026,0.24746076844002496,0.2491471575135693,0.23203395152068135,0.25460458897408755,0.21938535959682337,0.26933342921137693,0.20300205851108516,0.2218294654569677,0.18934821098989535,0.1965255636408154,0.21086268754217252,0.19336159800609606,0.17000491795624978,0.16027613731581059,0.16416339740587366,0.15566137339685895,0.17374558156717182,0.17291459938588602,0.15965146513414563,0.1729291834825846,0.1477493017645549,0.14257766032493852,0.1314032002596448,0.14669764550875666,0.12345957010889812,0.13314830465090677,0.11076107238532787,0.12125775467112769,0.08013985663447432,0.09785326288767954,0.07040397299136314,0.09524064920724486,0.06836844980976509,0.04174804549005189,0.060841598904486975,0.05414407250427431,0.04762261742008188,0.015258784522237162,0.0350045456479364,-0.010133189434463976,-0.003213703049435204,-0.009243968258375016,-0.008754492318427268,-0.014765735272237443,-0.027300993100686306,-0.03988399284730646,-0.026541369383794217,-0.045772129104989415,-0.03910576551069018,-0.05853624902088264,-0.013094178772890057,-0.013247744927793006,-0.03300240365724673,-0.05286051878963526,-0.04032498654000077,-0.03437350949157001,-0.047987294583859405,-0.009668122770519488,-0.003869204832148968,-0.004574007805230354,0.007736202655715629,0.03958426304191548,0.05200580781610138,0.09051243402215431,0.11613931817245197,0.12891018137218535,0.17433532737743535,0.16796109154343086,0.23327425570867538,0.27932127755380554,0.3321144398531298,0.3396866344646016,0.3670360841389259,0.3361996569586956,0.30567387586852496,0.2754700870822686,0.24559810844440128,0.21606638044896243,0.19338028179194622,0.17754594464494755,0.1945611990481409,0.21193949157950243,0.18419696362601834,0.19581202072716158,0.20129882358764223,0.1941595510070498,0.20688437244583938,0.17448999367925216,0.1684535761031092,0.16277891577580414,0.196450628412823,0.18498735817762474,0.20636092179295742,0.19558255480983838,0.21112761863212395,0.2204961700559347,0.2626670383567673,0.2596509588643178,0.2764170098080297,0.28046047827509296,0.28476243261512885,0.28930620649037325,0.3005718759433955,0.3185399042932354,0.375680082962039,0.3679991206299886,0.38644683335176816,0.4115023719140057,0.43663928725415596,0.4553290727978145,0.46104103877413977,0.48623121592191015,0.5113680002347316,0.5364118551276217,0.5353280224056083,0.5665552223169072,0.5845588393896658,0.5632959239534113,0.6001857612009219,0.6691796621879071,0.6597497765388072,0.6823025585246572,0.7237760060101608,0.8100937025022129,0.9021939507027051,1.0,0.9604709325777663,0.8809929797420708,0.7874677423268477,0.6603052528536513,0.45391894173533476,0.2331877631309405,0.07598473398979536,-0.08927611710502592,-0.17822515287418592,-0.3599127363146143,-0.4004859950988891,-0.4169588395844886,-0.27937681864446196,-0.1826541796869588,-0.13323180973993748,-0.04655891698932393,0.01247012497344567,-0.014536468153453172,0.021970775137441407,0.05060505677316026,0.11694646029180857,0.1820986557037429,0.2331573930570067,0.23122484713637578,0.2803616831745998,0.30917692308276784,0.3307543474660161,0.3711725234298603,0.4760028628855696,0.4828736037218848,0.560817079630591,0.5929438974655759,0.5988233500377707,0.5915235992461219,0.6230988100278089,0.6026405334670756,0.6016913599665467,0.5618275428762344,0.5610838171317931,0.5540269508737152,0.5472062363633852,0.5341718633424377,0.5214676179063206,0.5221327814836622,0.49072053243252567,0.4727557651420285,0.4552774246661501,0.4318202584725413,0.43490573479671224,0.41257700227041605,0.4103475278841907,0.41524522001108705,0.36880877193903605,0.362032623157305,0.35594604526135676,0.36356182922351604,0.3329093243609088,0.32898305364646496,0.33229971500402833,0.3363706938271693,0.3217093816258883,0.30781648521170035,0.30769293665671466,0.3213417965656202,0.28378292515344994,0.2729942321611935,0.2499852169502644,0.28623283918336817,0.2842604875921975,0.2700552774016968,0.23711207157188618,0.24390604471137106,0.2254460282109515,0.19471762824117106,0.24268331805239884,0.2523632791469514,0.21724530488300786,0.195797588727324,0.21399640695764519,0.19384639778381701,0.1743181208986008,0.16838850199277988,0.16953909658904132,0.18424695065255675,0.16700293291303686,0.15027498517540597,0.14053754945993477,0.1442643164119682,0.10944477825662866,0.14652186070988746,0.11250946075643238,0.11784922427903992,0.09753174741575735,0.08401952994596909,0.07078558683533909,0.0578006791443787,0.058031546390659605,0.058451974318368814,0.039537292321464045,0.046744199459003745,0.021558538023628948,0.015934741859436354,0.0038491427078657927,-0.0017330102083688663,-0.02033731787475351,N
0.8809929797420708,0.7874677423268477,0.6603052528536513,0.45391894173533476,0.2331877631309405,0.07598473398979536,-0.08927611710502592,-0.17822515287418592,-0.3599127363146143,-0.4004859950988891,-0.4169588395844886,-0.27937681864446196,-0.1826541796869588,-0.13323180973993748,-0.04655891698932393,0.01247012497344567,-0.014536468153453172,0.021970775137441407,0.05060505677316026,0.11694646029180857,0.1820986557037429,0.2331573930570067,0.23122484713637578,0.2803616831745998,0.30917692308276784,0.3307543474660161,0.3711725234298603,0.4760028628855696,0.4828736037218848,0.560817079630591,0.5929438974655759,0.5988233500377707,0.5915235992461219,0.6230988100278089,0.6026405334670756,0.6016913599665467,0.5618275428762344,0.5610838171317931,0.5540269508737152,0.5472062363633852,0.5341718633424377,0.5214676179063206,0.5221327814836622,0.49072053243252567,0.4727557651420285,0.4552774246661501,0.4318202584725413,0.43490573479671224,0.41257700227041605,0.4103475278841907,0.41524522001108705,0.36880877193903605,0.362032623157305,0.35594604526135676,0.36356182922351604,0.3329093243609088,0.32898305364646496,0.33229971500402833,0.3363706938271693,0.3217093816258883,0.30781648521170035,0.30769293665671466,0.3213417965656202,0.28378292515344994,0.2729942321611935,0.2499852169502644,0.28623283918336817,0.2842604875921975,0.2700552774016968,0.23711207157188618,0.24390604471137106,0.2254460282109515,0.19471762824117106,0.24268331805239884,0.2523632791469514,0.21724530488300786,0.195797588727324,0.21399640695764519,0.19384639778381701,0.1743181208986008,0.16838850199277988,0.16953909658904132,0.18424695065255675,0.16700293291303686,0.15027498517540597,0.14053754945993477,0.1442643164119682,0.10944477825662866,0.14652186070988746,0.11250946075643238,0.11784922427903992,0.09753174741575735,0.08401952994596909,0.07078558683533909,0.0578006791443787,0.058031546390659605,0.058451974318368814,0.039537292321464045,0.046744199459003745,0.021558538023628948,0.015934741859436354,0.0038491427078657927,-0.0017330102083688663,-0.02033731787475351,-0.026002053293323467,-0.038250720768396744,-0.031117191061747703,-0.017620698271661125,-0.023773852748265406,-0.03659859372036971,-0.017121937130782926,-0.023839914943369265,-0.030770772035501263,-0.024926820877626363,-0.03880461406432906,-0.026920341832244163,-0.002270003712145121,-0.023334205149811747,0.013860818871759663,-0.014144766618340918,-0.009873215350211914,0.0071875712339267645,0.011052463454816232,0.008227126657827644,0.005217170926014611,0.008528165206797429,0.037661984746736064,0.021146135456603245,0.017471258787192526,0.02014622853364782,0.04217432971231069,0.018580752298413262,0.04684463020796984,0.023001852485818854,0.044531225921062075,0.039959121288610594,0.03528417959470435,0.0695011744349714,0.0451432129416998,0.04019354193873086,0.061155354416371474,0.023557315702257577,0.05086910350716455,0.05212079340288043,0.033814699503134225,0.02844554008767685,0.023020701015281,0.037038256879504815,0.04450900382292077,0.025941718989314043,0.033324785094920116,0.034170294644915444,0.015484672098042673,0.00326316821655452,0.03649728872433775,0.03721153156448767,0.024902705081114588,0.02556559775316814,0.02620587639108902,0.007330913784831853,0.03392411219743341,0.02800918100242208,0.009082152840223914,0.03562791746034325,0.0036771643890891868,0.02369988936559228,0.04371191493072977,0.005230778933434905,0.012227955475496924,0.019217070077373694,0.02619885046722599,0.033173928287864175,0.02714647180285165,0.014614981983602062,0.002077824069169923,0.0285241211861857,0.02247416079970664,0.01641874683413968,0.029852238458093247,-0.0022072477560225704,0.004716077930446353,0.011633057287243594,0.012045339466209235,-0.0005454845461031661,-0.0001470530273513704,0.019738548988347263,0.0006275885119404992,0.02049772390407295,0.0013706217675130185,0.008227502451348633,0.0020789203716029747,0.008917050731759387,-0.010247603584273077,0.02906057337960826,0.003376852941935098,0.023170344048272656,0.03645598394749056,0.01724125880672691,0.004515134438172489,-0.008220672899756892,0.024520860015660333,0.01826421352112648,0.011998903006491372,0.01872168777054804,0.012440269962591217,0.012649421470957134,0.02584751959763772,0.0130457150500368,0.019731189800424175,0.02640939866752222,0.02658203019909852,0.026746973280921845,0.013907485311118645,0.04004835187792096,0.040187297567184234,0.01432350864797674,0.0014449676078622633,-0.004947578030619021,0.008141110607726565,0.02121591145551974,0.0017853293548337375,0.008332089763145619,0.0018664163238269699,0.008380152944772873,0.008377970854316012,0.02785166272750479,0.02131315123206386,-0.004740450682618134,0.014671359099566314,0.008068042995097804,-0.005056683241377223,0.01428535438206432,0.00761031735479503,-0.005587709950617584,0.007181651171801556,0.00043131595050611163,-0.006344174369333768,-0.006646613084122258,-0.006973523178692894,0.005672702367855609,-0.007694996478851277,0.004910618578261224,-0.014991308411519653,0.01057983209044238,0.0036500851771490844,0.01620876689238659,0.015769014527051022,0.021829213868181756,0.008400508510264842,0.027471927211683695,-0.005429033314162582,0.020169972061406,-0.006195846319671851,-0.026039057960389675,-0.00036614233583214743,0.005848235709466308,-0.013887058153031574,0.0054166406244272845,-0.02070850656731601,0.011716454161796246,0.011727458235028613,0.024821872535816927,0.0055226786153445215,0.018821559187885015,-0.019747653073117266,-0.01920073240458881,0.007477763903630231,0.021312437861289113,0.022316851244301137,0.010504459266390116,0.037873935097001196,0.03295874172583566,0.04775731043036671,0.07578441196188354,0.09755824590012861,0.11958929767277328,0.14188939872376216,0.16446978255055128,0.16784647462611124,0.17152367522948314,0.1820084130223405,0.13432703093051088,0.15844994761267406,0.13091842858496244,0.0972252681186988,0.11585893827805725,0.1283404335359211,0.14117183099545436,0.15435639986515623,0.14190403872438184,0.17529636725794548,0.2220436365505117,0.23665888881991423,0.19964672083579277,0.17598670657580692,0.1786720922440342,0.16870991457104093,0.152593480274413,0.13681525252216287,0.12786693151490172,N
0.14190403872438184,0.17529636725794548,0.2220436365505117,0.23665888881991423,0.19964672083579277,0.17598670657580692,0.1786720922440342,0.16870991457104093,0.152593480274413,0.13681525252216287,0.12786693151490172,0.1387376995694751,0.12393260393559603,0.16142115583192693,0.16671809200167995,0.20479516450972418,0.21065996798052386,0.21029339975768202,0.22317713769246417,0.2492973095916453,0.24315176402883082,0.2632077621710343,0.2639606903464927,0.31037344411708534,0.3114516106213061,0.3321552137503619,0.33997022724994735,0.3608644598221636,0.34932419220050603,0.3832990584536179,0.3912791236017454,0.41222136144229493,0.4395936260295742,0.453865377926088,0.48748920926618894,0.48194111616237856,0.48916348255356484,0.5480999502880805,0.5742265577393977,0.6389725914011708,0.761779137094288,0.8321207619267341,0.8044498860357815,0.7436835942273455,0.69524045048042,0.6135609736610661,0.45308220643309133,0.28520511512038504,0.14233940348082139,-0.021084645063268917,-0.06868880539665047,-0.12401949706269523,-0.12866796077834042,-0.17367147783573775,-0.27207711176079863,-0.29395577105410053,-0.21982134216305568,-0.16012310958677112,-0.0758316523694117,-0.025374830747189322,-0.0021916390243689543,0.01977583768119774,0.008102226724892041,-0.017652613877115524,0.00755829672769254,0.044812957310196695,0.061687495042290916,0.12323030591854049,0.14503165506859836,0.12715735197305175,0.13465414287918373,0.18708097490003806,0.21302179518298203,0.24503027455046447,0.2961645201384655,0.35998691535410093,0.40406569801189685,0.45445080172427643,0.4852048102351956,0.48338436741959556,0.4685345220908528,0.48619057091049495,0.4649184764024892,0.476241426372887,0.4487206278004187,0.44737639649912414,0.4137616470224567,0.39989588231434015,0.3863167083929929,0.37305423037471397,0.36663478798475696,0.34109202471473754,0.3354394128073034,0.33020522331250374,0.3189123824683182,0.31457666406410134,0.2847250839798145,0.2748610795220653,0.25900683625457216,0.23717583020564437,0.28086007048687955,0.2276163974008237,0.22041405799704045,0.22677067404568088,0.2207009314391035,0.22170554556377697,0.22329146353152385,0.21246635773394154,0.20872761506779586,0.20557889532807516,0.20951914705668692,0.20755179232357024,0.19317737179542604,0.16639355457249086,0.17918237340811996,0.19255070239293431,0.1610063535131908,0.16252133365908122,0.14510352083908554,0.14773430714997635,0.1314163648609553,0.1416277880721525,0.13936985329940926,0.12463212607461,0.14289063842785346,0.09666114299366875,0.10289816230580194,0.11610158077985298,0.11676343311059915,0.10486967206240558,0.09990016515996307,0.1018397570021104,0.11717095887935743,0.0743977785734619,0.07747412520881265,0.08089571349346937,0.058652369342357506,0.06271150850180202,0.047567760568822476,0.07168610066285207,0.05057160982958203,0.04918683311163665,0.041519735998630146,0.027550702816000167,0.026754408867996037,0.045609059320358615,0.03210922983430921,0.012227262335739376,0.03792800297438054,-0.0012779180487786396,-0.0014405758203554627,0.024423084510297066,0.01780909130104825,-0.014804987280682845,-0.027952674957950233,-0.01515508613499971,-0.008919676866939504,-0.022257964898203194,-0.016195291063944135,-0.049227374580108875,0.002100257279929825,0.007818272335992098,-0.0060866834734547865,-0.007129837108808117,-0.008313000643015841,0.003355355955488397,-0.0241141094716403,-0.012747432009581859,-0.008033513560564011,-0.022969214058287255,-0.005568968327691342,-0.014313854390833611,0.0027844040546730967,0.00024295023992448712,0.010556907783962786,0.007737903358603871,0.030779172776096826,0.008205087886720834,0.005001356687333302,0.014673818031882498,-0.014758877579947677,0.02717600179486761,0.017018607262822696,0.019755773632822958,0.048388921080759324,0.07043220765617376,0.0404032170790084,0.055778837143105935,0.03858526642879831,0.07330257943466262,0.0689601705355182,0.03205956048074552,0.060076251913833666,0.09452959856053562,0.05094598899535576,0.05929082349721428,0.054584261840169075,0.06282049403912203,0.05150994145519054,0.04014804088699967,0.02873547300597519,0.02377088393583571,0.025254609930437398,0.02668870219671946,0.021575085668571435,0.02291005041386357,0.030693446240043085,0.03842684221180787,0.01361898915663558,0.021250938655251295,0.0158348489209812,0.010366267644933284,0.017840663343970685,-0.0072300430288567905,0.0001348055486369532,-0.025046770897218955,-0.004797096779183761,0.0024023928907763547,0.022546879327353577,0.05563886696328642,0.010706420801955182,-0.0017795203801801818,0.00518677100378858,0.01861119159520601,0.012503279716567136,-0.006636688403105,-0.012814000473694381,0.02646485247281061,0.0007349404995271181,-0.005523812879772866,0.0011941854790186307,0.027391385867227905,0.021086736872778417,0.001778878244134053,0.001962676681068771,0.02814032521897666,0.028330511347393148,0.015533443779200202,0.015745521959717294,0.0029777381270670545,0.0032263353317404046,-0.015995953996937776,-0.002700253058855412,-0.015364990710723687,-0.021494012590251906,-0.0015860370460261373,-0.014115734805403537,-0.007088800649768483,-0.012985748868162728,-0.005802924581091246,0.007973729774597241,-0.004133841730099491,0.0033742594171341732,0.011016662518605972,-0.0006880199946734376,-0.005734067427525522,0.008887973892133427,0.010700939025312042,0.05820194528811083,0.06692840025699562,0.06938441196365619,0.10457191999027815,0.1075218579170314,0.1302316279294362,0.17271276506374517,0.1829908236580931,0.1545776578342699,0.15246403487741658,0.1506656224894236,0.12969549224450397,0.12205129192873593,0.10174652511826147,0.10777574705773531,0.1466421732967001,0.12737598761850458,0.13445712779305596,0.17438690040035654,0.1821861116172997,0.22283801953622218,0.24435797985395183,0.25324372980969384,0.21050462150527274,0.2071120646738088,0.2040730926753698,0.16889186950219753,0.15354769928353434,0.14503737976430225,0.13685510714342433,0.15498518339541076,0.17342589667925792,0.19216742499803377,0.18520641445533376,0.2110147108200924,0.23708890713421044,0.250419039943526,0.24449212654183838,0.26477926166772536,0.2787723232891646,0.31894352740279774,0.29429853848620213,N
0.5624673787500056,0.5882841901414991,0.6591228845292272,0.7879208281517741,0.864146933975854,0.8552441696740068,0.7806365117240798,0.7312234885005416,0.6484429027678653,0.45423440259559006,0.26547937961365764,0.14057345854752135,-0.03753955047168805,-0.11299356009524998,-0.18334739822453974,-0.24867666548526474,-0.34802854165528463,-0.3774669259942973,-0.18753549170306358,-0.11610451706166698,-0.046154831003672354,-0.029608553538451637,0.005081737691016029,0.03849195115937693,-0.0007873596073895826,-0.008715346345634851,-0.011214409842492685,0.037273705190275806,0.0913339927148844,0.11204942651751776,0.13198235183186666,0.15120372268200302,0.20227466414272618,0.22678121857525996,0.2572827436624691,0.300344798411136,0.3625316554143243,0.3789262574236364,0.45356205553732565,0.4565366232924573,0.45289025219073603,0.47517012008826354,0.49743764465740514,0.5002500339124235,0.4771583410643518,0.460700115229037,0.4704141873456264,0.4608554229277187,0.43856166495795323,0.42956295071934647,0.4208981275316064,0.386607562514693,0.38520567880039275,0.3842306397877177,0.3577168490397831,0.3576747832764723,0.31264797297597546,0.313632315054998,0.29566615457044604,0.30425509369010395,0.3004270957485187,0.3036920985372444,0.307565872942367,0.260075508041999,0.258704377512325,0.264473064609547,0.24489902526047666,0.2454763873365692,0.24671639228918135,0.22912905418773286,0.23820481544465433,0.2219604799396467,0.21938598722329472,0.21098667131130783,0.2292520988294378,0.2091982885826214,0.189810772195257,0.17758320433781402,0.17251012443440375,0.19407968257060726,0.20329567054890826,0.2001499069283611,0.19113135998216446,0.16323349865649056,0.15543416578068991,0.14822689228414376,0.18058792765788023,0.18102395498601276,0.15601874872298327,0.13154967678095117,0.1400914931708292,0.1361402998451792,0.13917316022406956,0.1426737922560804,0.12063071944649911,0.13150791243411575,0.1362962458166647,0.10898226903731253,0.1340206753304498,0.10092062724420474,0.10713193538324045,0.07465341855165838,0.06194484993632514,0.08197846610953376,0.06325003341686353,0.057720065969010685,0.03937076731653748,0.021173049564659773,0.03559212654224847,0.030616945710462574,0.019217938494800746,0.007867217043535806,0.02253129599273987,0.004700490139935626,-0.0001643392938785716,-0.011584016515127393,-0.01658851915551652,-0.008704890557679736,-0.020447595309914555,-0.03234494149593759,-0.044417793255402675,-0.01119677861104079,-0.010673463552671144,-0.023365857488686286,-0.029790955848441058,-0.01696170049732616,-0.036869865084899,-0.03753495281921358,-0.00596196142612429,-0.013628483313432006,-0.008546386845154208,-0.010206073796863363,-0.005606303074895387,-0.02073386116355889,0.002901158554093575,0.00032547475437280714,0.017034616880249657,0.02054611843735442,0.017366424913216594,0.007503712872276091,0.03645323539432894,0.026245050383159038,0.041868689711312565,0.03784472875363064,0.05316969404396972,0.029367430005083815,0.06391750383119028,0.026863519141953084,0.028680909091914814,0.05637981486057472,0.07097756945289761,0.07897838732225458,0.06739162945667783,0.06871342529974353,0.06995240398939971,0.06461501728896506,0.059203699584732566,0.05372239599541142,0.05467292181370998,0.04256415895036752,0.036893713106497805,0.03766447858492792,0.06437366379741113,0.06503846071583817,0.05915556756125023,0.0662213573623848,0.034252079252671944,0.04122697510869942,0.028663625504216698,0.016057399188064415,0.016405355398458048,0.010213642124131056,-0.0025171760954687335,-0.008790253404109662,0.01738782757116366,0.02403332496741308,0.030642238100032436,0.01772144896280704,0.017763015878309616,0.017771745214387357,0.0047523545238079305,0.017694802040590728,0.017611027927015688,0.017498213411330378,-0.002137379295843595,-0.0023060797424763026,-0.002501510157979894,0.01027375726829537,0.010028390835481005,0.022756337013900108,0.028964328784440687,0.002660819153808026,0.008828443002024927,-0.017513501944926627,-0.01138243825333491,0.020726047175727187,-0.0056605455371461265,-0.012560665089165568,2.9783264317469336e-05,-0.01337107581634551,-0.02676528970224964,-0.0011573031272931146,-0.0015196772028077585,-0.0018505364013668977,0.00435764059629876,-0.008878280052069403,-0.00905795824445787,0.010327124787762898,-0.002697147413219502,0.010363882331611807,0.010532634542819387,0.004318641269034664,-0.02776128287427273,-0.001219685784883799,-0.0005187990436344484,0.01334441929623644,0.014391398542426916,0.02862883082051627,0.0365761729516104,0.04474540338264993,0.06614648387220781,0.11378915245184007,0.12270482211071629,0.15138949454969142,0.1738623974430455,0.1511456691325915,0.15472940392060788,0.15213228130107168,0.1498612042759235,0.10893515183821713,0.13333200990992422,0.11258963538484824,0.11819387188666557,0.10466300862592547,0.12398723673127619,0.13718189732136174,0.15724704111861987,0.19068386674350435,0.2569891189662577,0.25869159767283834,0.2542748064235432,0.26323195816569794,0.22707700016262863,0.204289554982821,0.16887194930729568,0.15980715029427056,0.15109561881724476,0.16222418006144623,0.18018807277152252,0.19847989076371841,0.21708949310641135,0.22950758027602777,0.22922376730152863,0.2487155188289568,0.2684738238455407,0.2819847601459086,0.2892312293480669,0.2966928893387183,0.3108479518484181,0.33817314514327523,0.3916418094421358,0.3672586026331698,0.38196387494040607,0.3772456530974347,0.39856071309842606,0.4133859503993183,0.4411815971924617,0.4559186553929738,0.4705549181629695,0.5175403976487781,0.5058575955646906,0.5394314116979263,0.5597300617352959,0.5926952247090154,0.6967566119634778,0.7743849827470194,0.8385164377973686,0.8630942087723567,0.822057334747625,0.7608203674452414,0.6728084187606216,0.4929593007548683,0.30566528387442715,0.17582167519174768,0.044857095795412166,-0.07432088421690335,-0.11032142330052673,-0.16719710662420983,-0.18653588400906018,-0.25936764397849243,-0.2947559007570169,-0.26022302437544065,-0.1687505464014794,-0.117771437717996,-0.042248483093514325,-0.03308926762990816,0.04623845391424679,0.0008635944434399584,0.01930664102722837,-0.002329402245180151,N
0.5597300617352959,0.5926952247090154,0.6967566119634778,0.7743849827470194,0.8385164377973686,0.8630942087723567,0.822057334747625,0.7608203674452414,0.6728084187606216,0.4929593007548683,0.30566528387442715,0.17582167519174768,0.044857095795412166,-0.07432088421690335,-0.11032142330052673,-0.16719710662420983,-0.18653588400906018,-0.25936764397849243,-0.2947559007570169,-0.26022302437544065,-0.1687505464014794,-0.117771437717996,-0.042248483093514325,-0.03308926762990816,0.04623845391424679,0.0008635944434399584,0.01930664102722837,-0.002329402245180151,0.03350152414963172,0.05539338002336657,0.11540511533755327,0.16812291019936226,0.1681323676903869,0.17398890935762507,0.205258118931253,0.23601754684941886,0.2793327144146595,0.3287734642642853,0.390904574757029,0.4722891803843015,0.4950123006121763,0.5241162496957631,0.5141720415562155,0.5172205624208969,0.52031846573199,0.5040216526363686,0.5073669184210519,0.4849123777623324,0.49518426758186607,0.46024491019697783,0.43861564204609677,0.4043393378406367,0.4159328397162655,0.3759549794920278,0.38840566129018383,0.37533425606817367,0.3627588518350865,0.3636993275437368,0.3391884188127022,0.34772953565138076,0.34385373304712075,0.3015848259170838,0.2989155689897219,0.2773757190269154,0.26296969871516346,0.2557078790923814,0.27509381492548246,0.27564812051701143,0.24438086566292497,0.25277690242104045,0.2553528694798969,0.2391149726060072,0.2690461351115042,0.228179431343735,0.20748790857928262,0.21346731269510968,0.22661968735864693,0.2209478427082646,0.23543511770886838,0.2180894198911892,0.20789180630533036,0.21133141259180974,0.20240550396962714,0.1811029537707083,0.18640062045444258,0.18579462884798031,0.17927100273785615,0.160316670744963,0.18090116086765537,0.1825243742484817,0.15217247087166702,0.14831052621703486,0.14492669439959044,0.12900472036670224,0.12001845539475307,0.12444477335152931,0.10977095085755698,0.11496347042696495,0.0945121052166637,0.07438588168368121,0.07405518753202214,0.08049920757379656,0.0677004239601823,0.04862991350130278,0.055752913082653295,0.03705825593769753,0.044505155615289484,0.05857281225553382,0.027249372510270896,0.041482346402219095,0.003772288124814297,0.005066364042180239,0.00634839780705524,-0.018401479874648262,0.015265655233446166,-0.029137175036603104,-0.015174045096129829,-0.04034024425473979,-0.026679133090329234,-0.013197231322540443,-0.01940402557588027,-0.019320585390399228,-0.01945696788620419,-0.026321394727789778,-0.033423906782707076,-0.0212757120010131,-0.00287567402410691,-0.03670779864822783,-0.012303497475654726,-0.007637514450214742,-0.02920359656600498,0.0074795614417115,-0.001550780403074344,0.021691253915743842,0.005733865310973934,-0.003927862295895432,0.01220846157730873,0.015162104827202436,0.0049412714630772655,0.02054308683868407,0.04248115586894091,0.038272648368337193,0.06640884844054405,0.048919358783548715,0.050793106286035374,0.05904077892992718,0.08666547550160494,0.05569567288859321,0.037617237078475405,0.04543225984799545,0.05315364773272806,0.04779041249194318,0.055340297271655556,0.05631364291833664,0.07020951073195487,0.038548686134297364,0.05880759211953093,0.059510137933463415,0.040659766901411626,0.04774678814548327,0.0547814793714817,0.05526837812876104,0.049209914251775635,0.06260090600307806,0.030461598900688117,0.037269747885531994,0.024543299355602094,0.01827617386261506,0.024967670664299023,0.025124332867523722,0.01874707731829736,0.03832752620344971,0.012386548894468084,0.02540081174514241,0.0253854291340758,0.025337050360785218,-0.00723496554983879,-0.0008507271782019509,0.018497851329559143,0.031317102838886904,-0.007879397044021795,0.011377759321449453,0.011111908536216393,-0.008675675377635006,-0.00899477680257814,-0.002839685471903409,0.00979249576988928,-0.023080395691557953,-0.0039827490056450815,-0.00438908168910958,0.008197126182422663,0.007789315763610867,-0.01860278039152169,0.02000119040442462,-0.006354302441919296,-0.006687238984968659,0.006014345299637636,-0.0007314483535271662,-0.007421219241638681,-0.007547829559272912,-0.001101602677675064,-0.014064809694271126,0.005558377255734599,0.01229262930659988,0.012647919340674284,-0.006360339800331005,-0.012229635166820707,0.0015504856530924797,0.0025026397316533205,0.0036365997361590178,0.01146395962821064,0.025998128993913457,0.04075429390707713,0.05574567664336384,0.057988963321971294,0.08648589087369203,0.12175441055202679,0.15081020737351872,0.15417019139016122,0.20332484529787184,0.16832072897419653,0.15313736860235544,0.1382882911044762,0.14327525487082707,0.11611949873275088,0.13480486899526065,0.10836231036094732,0.1277707468979798,0.1345507384355382,0.14170203406653792,0.14922737774520756,0.18961963587809136,0.21739293442487792,0.23904578078705432,0.2545774292089381,0.23799327393595393,0.22178093205885513,0.19293966735454465,0.1709584656577512,0.18832168048986114,0.16054581911498192,0.15260426961625523,0.17748428780774872,0.19618703694220435,0.20220362381341112,0.22151500524245954,0.23461396368484003,0.260981171176,0.287605295719082,0.28847736802637797,0.28957231032367897,0.3168636024499357,0.31834528207258017,0.33298412923599324,0.334763670333173,0.36264742876144324,0.4036119245597988,0.4121410335676029,0.3947019431045746,0.42274144171023703,0.43774102056445324,0.4721543838348381,0.4739568864814394,0.5210848465423308,0.5355162236512191,0.5431970310975338,0.570070604589586,0.6225830652730394,0.661690520593054,0.7783092889294079,0.8424147296643698,0.8344471359062173,0.7803297520370588,0.7319743149733128,0.6373180009026804,0.41180349517880277,0.2892804399976798,0.13969911175798996,-0.030530169501346745,-0.08503445838702493,-0.13436822445453114,-0.17860903371335143,-0.2178216871916484,-0.23905768567438732,-0.2878313326187249,-0.23418373380425261,-0.1690663015788694,-0.06644120937081201,-0.03671605935210896,-0.0018453221974780306,0.03824202513403496,-0.0008589795134710875,-0.015106669923602826,0.008566375028125614,0.018247349674869823,0.07899039698286206,0.11938807863914262,0.15250872188123116,0.17192555842876234,0.19070555603525224,N
0.6225830652730394,0.661690520593054,0.7783092889294079,0.8424147296643698,0.8344471359062173,0.7803297520370588,0.7319743149733128,0.6373180009026804,0.41180349517880277,0.2892804399976798,0.13969911175798996,-0.030530169501346745,-0.08503445838702493,-0.13436822445453114,-0.17860903371335143,-0.2178216871916484,-0.23905768567438732,-0.2878313326187249,-0.23418373380425261,-0.1690663015788694,-0.06644120937081201,-0.03671605935210896,-0.0018453221974780306,0.03824202513403496,-0.0008589795134710875,-0.015106669923602826,0.008566375028125614,0.018247349674869823,0.07899039698286206,0.11938807863914262,0.15250872188123116,0.17192555842876234,0.19070555603525224,0.20242032424893314,0.2526258486302356,0.2634119449805204,0.34531398555432485,0.40742287357904716,0.44980211240711926,0.5180003316240858,0.5081060893774925,0.5306448381656353,0.5206890027589379,0.5172790137835882,0.5074673688807824,0.4848021454891448,0.4883160470579356,0.46606502633072616,0.47657141974330547,0.4353955771713914,0.43354595283102865,0.4060728353404419,0.4309840018230312,0.3718457146856109,0.37814139388486445,0.37191678341149875,0.3596918970517151,0.3349885566228029,0.3238176164450527,0.30670109254849115,0.30314837903004616,0.29367833932619936,0.31079365067151515,0.30251936140639707,0.2623661292504761,0.2553229274440456,0.2489049245092941,0.2496150095087564,0.22496582982536098,0.2399412776544479,0.22306263031976567,0.22631512309612214,0.21720671544270934,0.2152295647830819,0.20738391154473068,0.18716708619982025,0.20655887803343254,0.18757481664527373,0.20168722126809654,0.18390598321812845,0.17970881064794375,0.17608899644772552,0.17953343354109594,0.1575391372517115,0.14258388716103415,0.14115201038485015,0.14673078873451637,0.1138178011063545,0.12037505040018993,0.10790248038440038,0.10887375964707306,0.09727852153141793,0.11858568312931599,0.09479851748259246,0.07788302855460225,0.09381208154612367,0.09707832412532263,0.06816659966994622,0.0590410942835905,0.056683991311880864,0.041579012702474,0.02670042794555622,0.018524132443753085,0.010529555712555934,0.0026942008392911053,0.0014936844560035829,0.0004072773387396942,-0.03307842197486552,-0.02100799171111068,-0.02838252388114594,-0.03572495423444488,-0.05604635314319849,-0.063365399953962,0.0,0.0,0.0,0.0,0.0,0.0,0.0,0.0,0.0,0.0,0.0,0.0,0.0,0.0,0.0,0.0,0.0,0.0,0.0,0.0,0.0,0.0,0.0,0.0,0.0,0.0,0.0,0.0,0.0,0.0,0.0,0.0,0.0,0.0,0.0,0.0,0.0,0.0,0.0,0.0,0.0,0.0,0.0,0.0,0.0,0.0,0.0,0.0,0.0,0.0,0.0,0.0,0.0,0.0,0.0,0.0,0.0,0.0,0.0,0.0,0.0,0.0,0.0,0.0,0.0,0.0,0.0,0.0,0.0,0.0,0.0,0.0,0.0,0.0,0.0,0.0,0.0,0.0,0.0,0.0,0.0,0.0,0.0,0.0,0.0,0.0,0.0,0.0,0.0,0.0,0.0,0.0,0.0,0.0,0.0,0.0,0.0,0.0,0.0,0.0,0.0,0.0,0.0,0.0,0.0,0.0,0.0,0.0,0.0,0.0,0.0,0.0,0.0,0.0,0.0,0.0,0.0,0.0,0.0,0.0,0.0,0.0,0.0,0.0,0.0,0.0,0.0,0.0,0.0,0.0,0.0,0.0,0.0,0.0,0.0,0.0,0.0,0.0,0.0,0.0,0.0,0.0,0.0,0.0,0.0,0.0,0.0,0.0,0.0,0.0,0.0,0.0,0.0,0.0,0.0,0.0,0.0,0.0,0.0,0.0,0.0,0.0,0.0,0.0,0.0,0.0,0.0,0.0,0.0,0.0,0.0,0.0,0.0,0.0,0.0,0.0,0.0,0.0,0.0,0.0,0.0,0.0,0.0,0.0,0.0,0.0,0.0,N
-0.008780102841485627,0.008410641211165663,-0.03218143946396083,0.011650328865668231,-0.0022917068023288086,0.0015441456313272884,-0.003499107636754746,0.004804050989435396,-0.009090778348110883,-0.00518230816018385,-0.005682502577432235,0.011635820334342958,0.002342401728726958,0.010884232071348235,-0.01605674812443292,0.01484890459397257,0.010289813338821185,0.010270488214563864,0.010356734131012249,0.015002035394651378,0.019772093779181096,0.0024570745498952496,0.025280486228206438,0.021593729187994275,0.035844711764638444,0.0458232537065138,0.055982187785779874,0.07966184840744209,0.09020750169455156,0.10540266920648979,0.11636722921778629,0.1364398598624107,0.1434077344417285,0.119501209432363,0.10027630876695245,0.09462526662474416,0.08477662355609816,0.061846177734155634,0.07471955331818411,0.0745170269963029,0.08790421322633762,0.11488316163363547,0.1065729632023477,0.11185717274107684,0.15295561994626597,0.1676541331119067,0.16483962174680683,0.1578420224636659,0.14221498617884537,0.14017456684593785,0.09839039597613192,0.0968473654444991,0.08665777931197066,0.1033668995192383,0.09364224722695214,0.1152474611251956,0.12373680807799974,0.12799036320677645,0.14577531369801172,0.15041955304080287,0.15968889959325094,0.16468522736834862,0.1831728041819338,0.18847642067813494,0.19391474000807496,0.20391775219165847,0.2273583430496472,0.25533291731581265,0.25227355068486745,0.26260061892896813,0.27296298658327317,0.26556433980528926,0.2848211151813911,0.29071497935966695,0.30099642475187344,0.32897062482031286,0.3257271328013618,0.34011889531853245,0.37655857661410014,0.3816868904666191,0.41323930222569144,0.45784752281355084,0.49325346620680544,0.5727424685119222,0.5851743807094182,0.5571660166787429,0.524218995176556,0.4596180338856327,0.37219615239022946,0.22634541843886097,0.1242158654105544,0.012421106847740865,-0.04244149967342983,-0.08487129304627336,-0.1282565225997356,-0.15487031726802136,-0.19141227536126146,-0.22012862876387296,-0.16547717532486897,-0.09854235803391964,-0.05484197655258059,-0.025445815272821436,-0.0014184485988391721,0.026177966417620383,0.004067292233627001,-0.0010423744705356263,0.0020113312814814383,0.013278604240716299,0.04169735985066522,0.06954225491445917,0.1057509299957738,0.11037815882688028,0.1367993592511022,0.15395595510438118,0.16633960922232058,0.21399213765720598,0.2480772172721317,0.2864154355878623,0.32460681286628956,0.34491834116845554,0.35183471639412395,0.3631705059750242,0.3745191912965175,0.36814084176776357,0.3529568464493088,0.33788675369749094,0.3451799432080868,0.31265066312651696,0.3292028584334323,0.29265269975020614,0.29634478816443843,0.27364310801616937,0.26900679628542945,0.2691233718674648,0.25179127787442573,0.23480240017261828,0.23594736567195895,0.23302083889934805,0.22603563151764366,0.21055952471095193,0.20882236173256494,0.21194587541625026,0.20216302373485234,0.188368897179182,0.17056984467581682,0.1798783309287491,0.16297252567616008,0.17318246825395026,0.17051621026968938,0.15053186041506383,0.15322532854628113,0.14304606049277346,0.1599884473248034,0.14628112664207166,0.13747310896774456,0.13800561579745427,0.1434314505121738,0.13597113034112515,0.12895151297817867,0.12681104551243852,0.10732433802810062,0.11936721254704924,0.11404991622921885,0.11358394539139731,0.122404764602562,0.11384021289006278,0.11010003637755619,0.10673021974029118,0.10816392790244933,0.11438992676255647,0.10762097990127004,0.0922886058223997,0.08615538104852748,0.08032022841186258,0.09698869758960964,0.06948862916668622,0.06890720539579683,0.077453953595355,0.06845032579863321,0.059656040514708325,0.06883047400102796,0.06485018511470717,0.06547390768062074,0.06624072439993164,0.049357794480592646,0.045914465047064236,0.03811731731470474,0.034835895173890664,0.022720225055625678,0.015083351458780987,0.020794339906545257,0.022058988258006302,0.014414586524224152,-0.024377147076911458,-0.001014066661955111,-0.00439019087533613,-0.016746673035777034,-0.02032424939386694,-0.006249796015371161,-0.01453077728249218,-0.009628352479337644,-0.013772550335417664,-0.013641561890298642,-0.027019327413165876,-0.018362106730138047,-0.00989384270047373,-0.028280599157849338,-0.01575405790429685,-0.012308252325187834,-0.009053200050263015,0.002902250574707888,-0.011988542487612584,-0.00039492829466974836,-0.006750155232632084,5.827719799331148e-05,0.015592587764988548,-0.00013592805170830024,-0.002682610618510355,0.007958558865761644,0.014018392552066598,0.03327858579502707,0.034638244737172884,0.03587882824823454,0.028118429759375216,0.03358202092951765,0.03894350982897736,0.04420823274163714,0.040493600484715946,0.027804533583383556,0.050584403840379634,0.04217980967184465,0.038146000186716336,0.04293095597298331,0.03876314001584695,0.043421723642186605,0.03469089599216634,0.03034941746834718,0.03928814426969548,0.03929072322618947,0.030359931599872332,0.04360540782107178,0.043478657902098684,0.029981892824682846,0.025336433050050716,0.033987987631735585,0.0337189466937618,0.01119926116933011,0.010868963266151943,0.010510048577273924,0.01456765059826985,0.02304298489991339,0.018161732716496046,0.03103197918751473,0.012772141901771936,0.003377790779319437,0.016181239632155873,0.002300670139524287,0.010619221314729206,0.014474309300251195,0.018310354764364694,0.017683975254683095,-0.009623764731183003,0.007489283750202671,0.011254088037766013,0.015003424016929792,0.01429454980444766,0.018016244623624833,-0.0004937067714405945,-0.0012396290895149815,0.006891680742649068,0.0061258128139479555,-0.012423946496011282,-0.01320568769111297,-0.018436570869568687,-0.005893847843686766,0.0022083273028848122,-0.0030120434742851475,-0.008217642388477756,0.008816865240270482,0.0036596141495910017,-0.0147949205125237,0.002342506474863218,0.015085238358992406,0.014553664296472616,0.009643559515949989,0.009250626477748998,0.01338278867528199,0.004272461850599765,0.01303451395193941,0.017457407070541574,0.02643659574697798,0.004428793489212439,0.01809948523704669,0.023017499422383732,0.023634093099830084,-0.0022627840108483312,0.020879737879908267,0.017523320791194258,0.01433842595823123,0.04688315774875128,N
0.20391775219165847,0.2273583430496472,0.25533291731581265,0.25227355068486745,0.26260061892896813,0.27296298658327317,0.26556433980528926,0.2848211151813911,0.29071497935966695,0.30099642475187344,0.32897062482031286,0.3257271328013618,0.34011889531853245,0.37655857661410014,0.3816868904666191,0.41323930222569144,0.45784752281355084,0.49325346620680544,0.5727424685119222,0.5851743807094182,0.5571660166787429,0.524218995176556,0.4596180338856327,0.37219615239022946,0.22634541843886097,0.1242158654105544,0.012421106847740865,-0.04244149967342983,-0.08487129304627336,-0.1282565225997356,-0.15487031726802136,-0.19141227536126146,-0.22012862876387296,-0.16547717532486897,-0.09854235803391964,-0.05484197655258059,-0.025445815272821436,-0.0014184485988391721,0.026177966417620383,0.004067292233627001,-0.0010423744705356263,0.0020113312814814383,0.013278604240716299,0.04169735985066522,0.06954225491445917,0.1057509299957738,0.11037815882688028,0.1367993592511022,0.15395595510438118,0.16633960922232058,0.21399213765720598,0.2480772172721317,0.2864154355878623,0.32460681286628956,0.34491834116845554,0.35183471639412395,0.3631705059750242,0.3745191912965175,0.36814084176776357,0.3529568464493088,0.33788675369749094,0.3451799432080868,0.31265066312651696,0.3292028584334323,0.29265269975020614,0.29634478816443843,0.27364310801616937,0.26900679628542945,0.2691233718674648,0.25179127787442573,0.23480240017261828,0.23594736567195895,0.23302083889934805,0.22603563151764366,0.21055952471095193,0.20882236173256494,0.21194587541625026,0.20216302373485234,0.188368897179182,0.17056984467581682,0.1798783309287491,0.16297252567616008,0.17318246825395026,0.17051621026968938,0.15053186041506383,0.15322532854628113,0.14304606049277346,0.1599884473248034,0.14628112664207166,0.13747310896774456,0.13800561579745427,0.1434314505121738,0.13597113034112515,0.12895151297817867,0.12681104551243852,0.10732433802810062,0.11936721254704924,0.11404991622921885,0.11358394539139731,0.122404764602562,0.11384021289006278,0.11010003637755619,0.10673021974029118,0.10816392790244933,0.11438992676255647,0.10762097990127004,0.0922886058223997,0.08615538104852748,0.08032022841186258,0.09698869758960964,0.06948862916668622,0.06890720539579683,0.077453953595355,0.06845032579863321,0.059656040514708325,0.06883047400102796,0.06485018511470717,0.06547390768062074,0.06624072439993164,0.049357794480592646,0.045914465047064236,0.03811731731470474,0.034835895173890664,0.022720225055625678,0.015083351458780987,0.020794339906545257,0.022058988258006302,0.014414586524224152,-0.024377147076911458,-0.001014066661955111,-0.00439019087533613,-0.016746673035777034,-0.02032424939386694,-0.006249796015371161,-0.01453077728249218,-0.009628352479337644,-0.013772550335417664,-0.013641561890298642,-0.027019327413165876,-0.018362106730138047,-0.00989384270047373,-0.028280599157849338,-0.01575405790429685,-0.012308252325187834,-0.009053200050263015,0.002902250574707888,-0.011988542487612584,-0.00039492829466974836,-0.006750155232632084,5.827719799331148e-05,0.015592587764988548,-0.00013592805170830024,-0.002682610618510355,0.007958558865761644,0.014018392552066598,0.03327858579502707,0.034638244737172884,0.03587882824823454,0.028118429759375216,0.03358202092951765,0.03894350982897736,0.04420823274163714,0.040493600484715946,0.027804533583383556,0.050584403840379634,0.04217980967184465,0.038146000186716336,0.04293095597298331,0.03876314001584695,0.043421723642186605,0.03469089599216634,0.03034941746834718,0.03928814426969548,0.03929072322618947,0.030359931599872332,0.04360540782107178,0.043478657902098684,0.029981892824682846,0.025336433050050716,0.033987987631735585,0.0337189466937618,0.01119926116933011,0.010868963266151943,0.010510048577273924,0.01456765059826985,0.02304298489991339,0.018161732716496046,0.03103197918751473,0.012772141901771936,0.003377790779319437,0.016181239632155873,0.002300670139524287,0.010619221314729206,0.014474309300251195,0.018310354764364694,0.017683975254683095,-0.009623764731183003,0.007489283750202671,0.011254088037766013,0.015003424016929792,0.01429454980444766,0.018016244623624833,-0.0004937067714405945,-0.0012396290895149815,0.006891680742649068,0.0061258128139479555,-0.012423946496011282,-0.01320568769111297,-0.018436570869568687,-0.005893847843686766,0.0022083273028848122,-0.0030120434742851475,-0.008217642388477756,0.008816865240270482,0.0036596141495910017,-0.0147949205125237,0.002342506474863218,0.015085238358992406,0.014553664296472616,0.009643559515949989,0.009250626477748998,0.01338278867528199,0.004272461850599765,0.01303451395193941,0.017457407070541574,0.02643659574697798,0.004428793489212439,0.01809948523704669,0.023017499422383732,0.023634093099830084,-0.0022627840108483312,0.020879737879908267,0.017523320791194258,0.01433842595823123,0.04688315774875128,0.05739437597265437,0.06365441739152497,0.09677692791873925,0.10788565845355608,0.09254252975616716,0.10852303840227333,0.09361785314188074,0.08782600372462025,0.08226353269072728,0.07248990882497582,0.08961511259093423,0.07142758913692443,0.08458743139786556,0.0713261446831279,0.08941531110341339,0.09886111789844089,0.1263272858497324,0.14515065693853316,0.15533063375700254,0.16130975851857243,0.14975433528527693,0.12510532306858635,0.12290998973019532,0.11650086236138169,0.09254144962714593,0.09102106218286399,0.09415829810741891,0.10194676187261181,0.10104799103508139,0.11811780178867205,0.13981671671625764,0.13947307168803133,0.1481847533598466,0.16149802802574084,0.17495842105598447,0.1796667849561507,0.1889424243124933,0.189440553129998,0.2033663636979867,0.21737317810655749,0.2314448977376615,0.2500082024819167,0.23749382663443616,0.2560962926895805,0.2658000320577598,0.2932461762862793,0.2806410858056964,0.2901740199287323,0.3129309887697629,0.31777722470027797,0.3269027799315107,0.35360838703945563,0.3578667595915205,0.3840822852297653,0.41888731239320776,0.497794788229569,0.5496627964606339,0.5566733163289332,0.518781040261244,0.4848203964378917,0.42363364239196877,0.3218360730528152,0.18826019205434463,0.07173168222112067,-0.023363368668825945,N
0.4848203964378917,0.42363364239196877,0.3218360730528152,0.18826019205434463,0.07173168222112067,-0.023363368668825945,-0.10152696224499021,-0.14503955374405716,-0.18949833783598513,-0.2127164805638827,-0.14805049188319108,-0.09325969254231621,-0.07054362712546172,-0.03099113455312337,-0.010117794217807471,-0.03454851060512329,-0.05091765026819862,-0.028075624524439954,0.002917877241720415,0.033225159702966175,0.08067170518993866,0.0786493877908925,0.10275337022138827,0.13970111445890254,0.1628779725903885,0.16788792507001374,0.19477279170765466,0.23469103375343248,0.2832440039680667,0.32270028553343705,0.33532704541140285,0.3300530293097393,0.3380246331737807,0.345947948938142,0.3271957822906008,0.3306849205466626,0.3297848036754486,0.33341414121793467,0.3238268015437347,0.30993817819910013,0.31399364171994604,0.28713516695838054,0.27382433166400516,0.2607510280413425,0.27459856754427203,0.24428391963127313,0.24537023812837688,0.24676668645264196,0.2262689319190509,0.21499779250384074,0.2040781664675737,0.1979654732055212,0.1922263809730075,0.17798270282343373,0.1952378097984256,0.19511687553494986,0.17762661660105397,0.16943596622775106,0.17054977726562792,0.18097205538544012,0.16515503051259883,0.17198346982882612,0.1303569496276457,0.15137266664207952,0.1505970893398824,0.15469256368940706,0.14143816355343009,0.12860697770292445,0.1339713877180456,0.13086447839848792,0.12816958768346517,0.12588166844068466,0.11066343656624342,0.12694722841714073,0.12139978879293342,0.11178907374995233,0.11588243234558412,0.11145186632083155,0.09848812487732182,0.08586913070646499,0.10469164093183296,0.09273081046564177,0.08997017437671961,0.09195415033426999,0.089782840782067,0.07899975376769021,0.08625500604641607,0.08042806950550788,0.061505042379099546,0.07391027450654995,0.07319050071086108,0.06377460538379198,0.058978837713712776,0.04545593576862319,0.054296996467906686,0.027715581960122866,0.0501286748946812,0.032642369735348196,0.02856620228834858,0.024551564529699945,0.03391289785175173,0.016638136394343805,0.012704621474857363,0.02653868822353335,0.004796358378261223,-0.00810144077625131,-0.0032847289335464136,-0.02076527527042234,-0.01612109479784074,-0.002698479694856812,-0.020505382883863454,-0.016228328065980284,-0.02098533304754058,-0.017010354823581673,-0.022086279778959297,-0.018443455318362875,-0.019417188271803547,-0.02500943721736541,-0.008557123852903142,0.003278821525577224,-0.011717853076607082,-0.0002177046807731066,-0.002211349977897946,0.004524730266787571,-0.0022243883792718404,-0.00023499922671029475,-0.01172183801483849,-0.005573233663353508,0.0004410793625292969,0.006327357553021684,0.012091855192938566,0.017740794930307138,0.023280338953878352,0.03316042612298575,0.020723821273367214,0.0259711040569888,0.04002023138658049,0.04510129957023729,0.05010739706224068,0.04615592531214508,0.0332517659816341,0.03806276220010811,0.042817937092565116,0.056409315717535664,0.04773392067284951,0.04345874237900196,0.04358734033954139,0.04812305676430423,0.0437374198027532,0.04820877461096808,0.04820819003602866,0.03485035925569885,0.034800657403250335,0.039173362363700545,0.021307116520550697,0.016754481634291867,0.016629259184259743,0.016489032251939182,0.01189130077251889,0.020612809108812545,0.011547723047000084,0.01580422055301749,0.024495633483170028,0.02429134929810286,0.0018606329802937154,0.028306070172061677,0.014751083728499618,0.018966512334738832,0.009845813429346926,0.009608734113016649,0.0004801838863582791,0.013567543326441252,0.01776407536561371,0.008626167345850819,0.003929444661537022,0.012561758827105356,0.012303884087864788,0.0164874548767882,0.007336986485527137,0.011515565514031326,-0.01097173874104083,0.010976719803072531,0.0018160721839245442,0.005985759668515158,0.0012672338251245902,0.005436704664249854,-0.003724412510796503,0.0004477895399044998,0.00017891812988784177,0.02657709745387064,-0.013677779675623808,-0.005044280727368926,-0.005290423388801227,-0.0010819001477722875,-0.005747093149255239,0.007380506613306145,-0.006133891872598759,0.007039921718245829,-0.006420028558590463,-0.019846177105116117,-0.002126483046069208,0.011194999262278344,0.0023498789777730397,0.020227689901623606,0.007065185096269842,0.0028640547259615613,-0.014588161614778569,0.0035979073412143116,0.00854798049619928,-0.004173587491528942,-0.0034515617071201607,0.010722631633186751,-0.0016368941595002102,0.012805093478471075,0.027394405873667368,0.0465838479490887,0.03927516465924771,0.04547171403233314,0.05629413860058081,0.1073015072832287,0.11406824241577611,0.1165964603137889,0.12378064932971995,0.12229538796093431,0.09881463580155003,0.08889426008887517,0.07476324949235146,0.08753266733024997,0.06943589561344932,0.07380251305342254,0.08285990518924861,0.09216668467111286,0.11505651134790357,0.11153619974039845,0.13493316195252078,0.1630285410397217,0.16027120926797064,0.16221106975344785,0.15995857051071438,0.1623988099972113,0.1295335677573972,0.11912884958194032,0.10007270610252503,0.10346670755038906,0.12486100079678181,0.11981042700839932,0.12830264516352147,0.14588606144272034,0.16366457513878468,0.12830270236862348,0.1731064866576745,0.1647494075444284,0.174321886264576,0.1884800781901828,0.18943540170932568,0.22161244805349165,0.2272259576623423,0.22403527428077233,0.23424247089844508,0.24894144270675153,0.2681126444338422,0.26507209385331076,0.2797924487938875,0.2944747918545889,0.2868749412976297,0.3102929543787389,0.306930819615007,0.34786106992091315,0.3530632808218912,0.3669435190256283,0.3939112975523923,0.4472620254539706,0.5180698153528759,0.5618556205650358,0.5652448616792021,0.5148601500060226,0.49508630887209715,0.43921416456832846,0.3205268563250903,0.20118263479307813,0.10778722499224766,0.00028736541102145996,-0.06360570615804355,-0.0839510032284622,-0.12301561201546546,-0.16751293202150438,-0.2130324070150027,-0.17515799029381124,-0.12498868518661838,-0.07139273976923245,-0.054333585814269746,-0.007115103794693809,-0.005239704478647864,-0.026444084459154714,-0.017357384935410627,-0.009039677035176412,0.029664732309157643,0.04992281819248925,0.08289098412808506,0.09306740339676131,N
0.49508630887209715,0.43921416456832846,0.3205268563250903,0.20118263479307813,0.10778722499224766,0.00028736541102145996,-0.06360570615804355,-0.0839510032284622,-0.12301561201546546,-0.16751293202150438,-0.2130324070150027,-0.17515799029381124,-0.12498868518661838,-0.07139273976923245,-0.054333585814269746,-0.007115103794693809,-0.005239704478647864,-0.026444084459154714,-0.017357384935410627,-0.009039677035176412,0.029664732309157643,0.04992281819248925,0.08289098412808506,0.09306740339676131,0.1027200846936579,0.09412178300588205,0.11175885496391894,0.16012239821832328,0.19926429787980202,0.22923042681808647,0.2811727192033187,0.3240278478097055,0.32673107954785724,0.33820563793117564,0.34515899757386315,0.3476285381856041,0.3367621829319801,0.32592544370866855,0.3195944178513169,0.3266874384429118,0.31612645222333496,0.2834949647426192,0.2999206122860097,0.2854381909289809,0.24895830463509086,0.2616042454207444,0.26118209927410563,0.23437916328224098,0.23009554386552214,0.221684464181031,0.20471732378091625,0.21475920216602085,0.20738457850853825,0.1959371080538953,0.18487167837551172,0.18308606273582406,0.15948232166786172,0.1585073116418136,0.15350524572334423,0.17558979431080415,0.18032814890884186,0.1543936806950351,0.1466729744500183,0.14828159311677844,0.14589050089887293,0.1261699205918936,0.13355959540817214,0.1280651955938493,0.127461973466333,0.11397361802059518,0.10093023856364124,0.11054910528350093,0.107276733847767,0.10888547167319268,0.08870847604728932,0.10451180194679772,0.10296442644214693,0.09294891928855789,0.09223506616823378,0.08748513039688059,0.07869251023854548,0.08806949340440984,0.08005772427385963,0.08131252212261511,0.0651624214430885,0.0804812615325545,0.05615819076313489,0.06328564708647554,0.05297142255022267,0.05186870414126025,0.033304029494672656,0.050593253644054245,0.03262383461524856,0.023823477206319266,0.015293338601469817,0.024797649114861233,0.0034425819756028716,0.004543090039375164,0.0014245322069181552,-0.005924563089134841,0.0002597869594174456,0.0021912049978118687,0.004302639245136668,0.002139296215340694,0.00013409165829084,-0.015055530870855866,-0.007889609367271197,-0.009484732169052768,-0.006518084355835792,-0.016773007579600197,-0.00026197440506784867,-0.005873171452385504,-0.011392914461215514,-0.0034946919690465802,4.203219160574538e-05,-0.005230277692365313,0.025123361575902316,0.015554064956605579,0.01938491765529395,0.023280946488833207,0.027238677473172553,0.03569838559408615,0.039768613520288876,0.05277705230135402,0.07027573264555802,0.08337255600135858,0.08317507243855002,0.09634133816060463,0.109534205124617,0.12274763970466256,0.12708732985467663,0.1403215420377393,0.14022311890926603,0.157890586011649,0.17553924865155585,0.19315908418095343,0.19296373075733658,0.1882729183646798,0.21462473904108995,0.20979130521982217,0.21819642519981014,0.23093647382877436,0.23910673497230905,0.23824520318819653,0.2372202736242155,0.21379209258022802,0.18571440862574315,0.1618521706206929,0.1110746104819505,0.06002040073478018,-0.004667129839621367,-0.029686971943703087,-0.05950271114283818,-0.04969780524892029,-0.02250803993464258,-0.0001644795811998804,0.04398646881413683,0.08771589475952724,0.16656491770003137,0.25830396863199084,0.291820126607029,0.3382028711427577,0.29078560767386574,0.16288441573373172,0.061135093793398036,0.021070779908912412,0.01601019121705205,-0.02072284887032096,-0.035820231879254844,-0.07373691890541402,-0.09004716063128963,-0.0714252603539777,-0.026756293763100136,-0.009357204894117553,-0.032547607563567886,-0.08742689978073728,-0.08510181079016296,-0.016660341022932807,0.03794028627074542,0.074290141940535,0.06575978026188134,0.061265095426993404,0.03417594146170585,0.03340757743384941,0.02344164941495969,0.03986148243160111,0.06048003443284677,0.08977325630770082,0.13666066191955273,0.17451039326905207,0.2389040242973402,0.2587694874042178,0.2519108279605093,0.293901047358846,0.27366954170631486,0.27123044871072766,0.2643876341173709,0.2487190690175163,0.23313299868793677,0.2309802901846171,0.21561585652753332,0.20927597495534025,0.19420105625639475,0.20595684933386546,0.1912308245944949,0.17225513402825196,0.17570483884553992,0.15715229298817568,0.13882695249214047,0.10296269926093556,0.1295577593035591,0.11196749808410833,0.09908192138738786,0.10423955216425376,0.1096713603340542,0.10205165999293381,0.09916127450213624,0.11878051696460505,0.10314349330943802,0.11002421530163667,0.1172066022467054,0.10247402332907223,0.09249178082028348,0.07392987625075373,0.05123331019022248,0.033290578933605264,0.02454605723470935,0.02500008801989014,0.03909675685977412,0.03572910132808967,0.04600407875858242,0.06547754484303332,0.09859285600194419,0.09202279139884834,0.09464854084781563,0.08869285343060045,0.06526573573536733,0.077690866129815,0.04597563541624596,0.045662334052135975,0.05008411900196661,0.028130053543991885,0.046453988776129815,0.04283753928387057,0.04838326024846265,0.06308643504155739,0.055835047496604125,0.07550634275690743,0.07765611392483215,0.07116616106571631,0.07380562671344285,0.09001170144741755,0.07089482232422567,0.06977387995676197,0.07330942986545085,0.07260554407587408,0.08987298568836491,0.06733257803350562,0.07607679093911025,0.07610112320617143,0.07628321237185678,0.07216871934404608,0.0504151928654427,0.05100620532984021,0.05615482718582359,0.0525177392255084,0.044526802965103314,0.027725886583006308,0.024321827870943995,0.020970402994751967,0.013214997260240943,0.027705948743107334,0.0022162219529161782,0.007834604106206311,-0.00433449377463902,-0.00764098847278387,-0.0065414426163845334,-0.009935558314249497,-0.004503089365352431,-0.008029903312527866,-0.002750516908662698,-0.010893472436844265,-0.00580453176092369,-0.014154806359557674,-0.00040074103708387604,-0.017874743382380917,0.004519047573674271,-0.00876936645956326,-0.0044179105058157935,-0.00020552249190816744,-0.0005791245194949762,-0.027761080663823278,0.0026790690060636848,-0.01146792400761922,0.0008994280097307517,-0.004656797512991405,-0.010360412400229417,0.010452944668451319,-0.004428688238481668,-0.006120690953352913,N
0.08771589475952724,0.16656491770003137,0.25830396863199084,0.291820126607029,0.3382028711427577,0.29078560767386574,0.16288441573373172,0.061135093793398036,0.021070779908912412,0.01601019121705205,-0.02072284887032096,-0.035820231879254844,-0.07373691890541402,-0.09004716063128963,-0.0714252603539777,-0.026756293763100136,-0.009357204894117553,-0.032547607563567886,-0.08742689978073728,-0.08510181079016296,-0.016660341022932807,0.03794028627074542,0.074290141940535,0.06575978026188134,0.061265095426993404,0.03417594146170585,0.03340757743384941,0.02344164941495969,0.03986148243160111,0.06048003443284677,0.08977325630770082,0.13666066191955273,0.17451039326905207,0.2389040242973402,0.2587694874042178,0.2519108279605093,0.293901047358846,0.27366954170631486,0.27123044871072766,0.2643876341173709,0.2487190690175163,0.23313299868793677,0.2309802901846171,0.21561585652753332,0.20927597495534025,0.19420105625639475,0.20595684933386546,0.1912308245944949,0.17225513402825196,0.17570483884553992,0.15715229298817568,0.13882695249214047,0.10296269926093556,0.1295577593035591,0.11196749808410833,0.09908192138738786,0.10423955216425376,0.1096713603340542,0.10205165999293381,0.09916127450213624,0.11878051696460505,0.10314349330943802,0.11002421530163667,0.1172066022467054,0.10247402332907223,0.09249178082028348,0.07392987625075373,0.05123331019022248,0.033290578933605264,0.02454605723470935,0.02500008801989014,0.03909675685977412,0.03572910132808967,0.04600407875858242,0.06547754484303332,0.09859285600194419,0.09202279139884834,0.09464854084781563,0.08869285343060045,0.06526573573536733,0.077690866129815,0.04597563541624596,0.045662334052135975,0.05008411900196661,0.028130053543991885,0.046453988776129815,0.04283753928387057,0.04838326024846265,0.06308643504155739,0.055835047496604125,0.07550634275690743,0.07765611392483215,0.07116616106571631,0.07380562671344285,0.09001170144741755,0.07089482232422567,0.06977387995676197,0.07330942986545085,0.07260554407587408,0.08987298568836491,0.06733257803350562,0.07607679093911025,0.07610112320617143,0.07628321237185678,0.07216871934404608,0.0504151928654427,0.05100620532984021,0.05615482718582359,0.0525177392255084,0.044526802965103314,0.027725886583006308,0.024321827870943995,0.020970402994751967,0.013214997260240943,0.027705948743107334,0.0022162219529161782,0.007834604106206311,-0.00433449377463902,-0.00764098847278387,-0.0065414426163845334,-0.009935558314249497,-0.004503089365352431,-0.008029903312527866,-0.002750516908662698,-0.010893472436844265,-0.00580453176092369,-0.014154806359557674,-0.00040074103708387604,-0.017874743382380917,0.004519047573674271,-0.00876936645956326,-0.0044179105058157935,-0.00020552249190816744,-0.0005791245194949762,-0.027761080663823278,0.0026790690060636848,-0.01146792400761922,0.0008994280097307517,-0.004656797512991405,-0.010360412400229417,0.010452944668451319,-0.004428688238481668,-0.006120690953352913,0.0009355929222088701,0.0034116705031009974,0.005754505724485306,-0.005364416035058071,0.0011650155760948718,0.003127036034404633,0.0005252018640398879,-0.002193080671453644,-0.0005804079345395356,0.023142428178654164,0.006765114168722756,0.0036177205626090653,-0.004071561931230937,0.01480795842718546,0.024709379557865785,0.01674891758836884,-0.00018187340241527408,0.013915534541715844,0.02349397528746497,0.024113270745762628,0.01577699073222018,0.02959564211799576,0.030021672270935044,0.01705830357713097,0.012927935187101218,0.01763355408705923,-0.004372840372915506,0.026901162727974184,0.013693774748071286,0.02710995677308032,0.027157967055900744,0.031616178168892464,0.022711903898122134,0.02711095369433795,0.02259650432863887,0.03139025076292784,0.0312751212310136,0.04002867538646628,0.030989662761677483,0.03526688261490588,0.01731099863773761,0.012674344180261431,0.025802108415672192,0.01670076339987127,0.029810094294805488,0.007360899143788105,0.02934365355093542,0.011325777457250018,0.024409832194970314,0.010826226605286891,0.010570285720488952,0.014754761321602486,0.018936217712782283,0.00978341467526161,0.01840367105475771,0.009246276161555426,0.031193869404172223,0.017588544221255994,0.012868872446039037,0.0170346842234598,0.0034225531067510317,0.016470813468640173,0.029515936576173272,0.01589431134232867,0.002268563595088943,0.001969643567208099,-0.007222432847835947,-0.0030890058592106576,0.01436994358225096,0.009603804984814824,0.004832145876272916,0.013386755016277885,0.0041607432581802105,0.008261269765356839,0.012356819151895614,0.020891296223764413,0.016089217130049332,0.011282051185255942,-0.002418139614982166,0.01053930406028489,0.023491156021469166,0.0008864066333476912,0.013826697794291385,0.017873167232149465,0.02191326803596907,0.0037273063070603534,-0.005578136924919817,0.016215769984039105,0.011338811858925246,-0.00687746156120749,0.01933709651420798,0.0055495942487550865,0.018418465855481136,0.013505483435530541,0.013030307616077383,0.003661608500420278,0.012062779411335085,0.011570810868868056,0.019961286824740725,0.015014945005605072,0.010063346328136876,0.02288184200884434,0.0045877523291450685,0.01739491752517793,0.007976655155831576,0.01188350329655186,0.01578344101937912,0.015232118727951629,0.00578510790870239,0.022992692258486158,0.004640088308358348,-0.01372256413382729,0.007898716913898712,-0.001597417286832866,0.011115875519627137,0.006044416477867878,0.0009642210223450922,0.009207408990874785,0.004111307029152514,-0.0009920158831559838,0.002785623302522412,-0.0023306903710737796,-0.0030088281674218995,0.0007519639419142469,0.004508860449489554,0.003819032088039154,0.007571223169667517,0.024654158911318707,0.019517872928248137,0.01882639080871824,0.009248852180611436,-0.004770235961914995,0.00787677937837873,0.00275229300367557,0.002076640950620299,0.001406953247049101,0.009631945661265082,8.940393034724232e-05,0.008331180875447606,0.0076950136268968536,0.007069520655579333,0.02423101270642531,0.028073246056632164,0.018596913450234114,0.004690298014149684,0.013017051388958952,0.016914417269064935,0.0030511703872856213,-0.0019092107246324553,0.002033544961861886,0.005992159101223991,0.014410939303856299,0.013958701721136793,0.0001919211988611892,-0.00022593958878258796,-0.0006262072982279671,-0.009896321747090073,N
