0.5792278968763475,0.6381868789897811,0.6577030165129614,0.6450888515353159,0.6135974387470464,0.5782200488008197,0.5511330132445079,0.5394935305026431,0.5437741121963529,0.5589796122898134,0.5772122007252919,0.5904941529037954,0.5940787257734783,0.587108872944574,0.5724411139154186,0.5550853713696898,0.5398851602704554,0.5304098702390979,0.5274793792917052,0.5294046616199748,0.5329585420140877,0.5345338140597393,0.5320040046404425,0.5248989664591284,0.5144340164993577,0.5028109186785483,0.49206679012757626,0.4838242172626772,0.4784406114379123,0.47518170909397606,0.4726632953430091,0.4692775842940221,0.46422289352945967,0.45736051922545234,0.4492312385497245,0.44072971423459584,0.4325469394748734,0.42532359942705106,0.4191727346824492,0.4138233028047849,0.4087961331261825,0.4034730059542711,0.3976666035092606,0.3913633603979281,0.3847457954882906,0.37807079970967655,0.37142420835789663,0.3650165198152198,0.3588924833855929,0.35302442631769937,0.34734546629317054,0.34136899676496446,0.33567038887756057,0.3301487341430708,0.32466741171700314,0.31912033670689266,0.3130777490539229,0.30721522370399923,0.3015730687141972,0.2961435717376114,0.29089520712061473,0.2854065088490812,0.28025506941659967,0.2753367175020565,0.2704929498693902,0.2655879404284398,0.26020308036980877,0.25495858251999975,0.24989073438660284,0.24500227252849816,0.24028067373626477,0.2353702448896326,0.2308026246306651,0.22647773227050788,0.22223655568969666,0.21793828239220966,0.21320487015676548,0.20858246914026124,0.20410327059943464,0.19977516865803202,0.1955958910481545,0.19127123750819316,0.18726859099220783,0.18349531828973945,0.17980197198895992,0.17605471622256044,0.17192698056827452,0.167887958406879,0.16396663419577423,0.16017391543632348,0.1565135413969664,0.15274676261433803,0.14927246638829314,0.14600624114593988,0.14281173963984725,0.13956653151087361,0.13599629523417286,0.13249639773941277,0.12909282085848622,0.12579808082230703,0.12261952162478085,0.11936734313980059,0.11637464748923604,0.11356534960950149,0.11081732377367784,0.10802120874418245,0.10495207760728699,0.10193820240353693,0.0990033862908867,0.09616157507314299,0.09342289586358403,0.0906404848820965,0.08808745115496537,0.08569553448060115,0.08335610886108422,0.08097213115525878,0.07836215862781094,0.07579391394670895,0.07328855218954863,0.07086045232007268,0.06852136644693353,0.06616089795139612,0.0639991524090663,0.06197562988433983,0.05999503769677669,0.05797271583416961,0.05576639673932948,0.05359107568539171,0.05146595159963486,0.049405891106954695,0.047424065221405694,0.04544228332307244,0.04363393618791335,0.04194547102725939,0.04029331929524398,0.03860338175975264,0.03676636651387274,0.0349503441777028,0.033171705827300994,0.03144466817749866,0.029782698298099586,0.028133713036612114,0.02663120385744142,0.025228648737330342,0.023854247520346344,0.022444832010605317,0.02092029332625567,0.01940975254767381,0.017928076712669765,0.016489304229990343,0.015106965723111048,0.013750179747517277,0.012517398098328468,0.011367358176115306,0.010237781253797327,0.009074563340887794,0.007822119888923002,0.006577069192911688,0.005354546425194138,0.004170772023520704,0.0030421609586645413,0.0019582951446786533,0.000990449776708615,0.00010348261136404187,-0.00075688615770943,-0.0016396142699799006,-0.002585415197117626,-0.003533040526965931,-0.00447688109199776,-0.005409355408624581,-0.0063213894986243425,-0.0072141409762286005,-0.008042387466665293,-0.008834020444623775,-0.009628654756664861,-0.01045756512634433,-0.01133194277117188,-0.012200171563859111,-0.013044625287338402,-0.013847562727944726,-0.014593740754064317,-0.015271645680438846,-0.01586010528174416,-0.0163908509051204,-0.01690759451178092,-0.017447665521233967,-0.018020759023593527,-0.018604630713519216,-0.019189236232931707,-0.019760086031106232,-0.020301590288403618,-0.020790045515505843,-0.021215826476636186,-0.02160129347211056,-0.02197894921414952,-0.022376828471141877,-0.022791858807843034,-0.023217239537332266,-0.02364445018899904,-0.024060679684711792,-0.024452066653880136,-0.02478938801893335,-0.02507690419600508,-0.025333501041883626,-0.02558575067317244,-0.025856187934855713,-0.026132949990145503,-0.026421642343763235,-0.02671428109961971,-0.026998351738174324,-0.02726030921583129,-0.02746625473539111,-0.027630726834561952,-0.02776934217014695,-0.027903829181629078,-0.028052800301602003,-0.028199223316079387,-0.02835968676316874,-0.028528250451456374,-0.028694155740496077,-0.02884529138737272,-0.02894552756122727,-0.029016641843980097,-0.02907053241475876,-0.029123359344748342,-0.029188661956630942,-0.0292440913925128,-0.029313305475266664,-0.02939097056354979,-0.02946739556219809,-0.02953203252588917,-0.0295483365521956,-0.029545334310129987,-0.029532757203388906,-0.029522628038362576,-0.029524286138721153,-0.029511360812680118,-0.029511758689141798,-0.029519450820985428,-0.029524435386311363,-0.029516539751553137,-0.029459653080838567,-0.02938741997629305,-0.029308511043041142,-0.029232794109720857,-0.02916760873234523,-0.029102607513294843,-0.02905233690622139,-0.029000263699772103,-0.028926725371347307,-0.02881867771313732,-0.028664060016776332,-0.028501012517135535,-0.028348919770067395,-0.028222975575511663,-0.028127047992209126,-0.028036457829349912,-0.027951138337044018,-0.027837567706932822,-0.027667915953109152,-0.027435418271280935,-0.027147424973166554,-0.026873786551158487,-0.026659481583558,-0.02653020128178847,-0.026478131286685053,-0.026444659202908297,-0.02638799642378226,-0.02623585995061403,-0.025943721773689102,-0.02552084430208917,-0.025021233071994137,-0.024580646655799423,-0.02430136095377132,-0.02423461023217053,-0.024350679775959373,-0.024521798628592575,-0.024611488543544197,-0.024457853615505027,-0.02396989848083173,-0.023180515249829576,-0.022242150561605382,-0.021442818833026782,-0.021042638680681056,-0.021198387175778228,-0.021880465156993198,-0.022825692626039097,-0.02363327466596615,-0.023792324005961908,-0.02285502677350585,-0.020580415064156816,-0.01701273356950889,-0.012550356727325289,-0.007790207998287557,-0.0034100675070606033,0.0,0.0,0.0,0.0,0.0
1.0006505165814363,1.10173490966892,1.1341476022445718,1.1104960739329583,1.0537484320598403,0.9899760322011781,0.9403897439666197,0.9177158481957945,0.9230883871147773,0.9481257844561217,0.9793015478209198,1.0027033418475764,1.0100198854973335,0.9995311059959645,0.9759144024292803,0.9476088965743329,0.922757009229275,0.9075913662029457,0.903657238371883,0.9082293510227346,0.9159162453277462,0.9204913004866461,0.9183766747095762,0.9087104147890219,0.8934742908261796,0.8763194279857047,0.8605068574028123,0.8488378254615068,0.841952049774842,0.8386720024592788,0.8367226106436633,0.8333015056048937,0.82716822268814,0.818115821312014,0.8070582301721656,0.7954713194897086,0.784323421459134,0.7747270834965694,0.7668604938296751,0.760283383845267,0.754220028335754,0.7475231292618526,0.7400123755921642,0.731727277112895,0.7230187247919536,0.7143224147628574,0.705599195968406,0.6972443181843596,0.6893083731365152,0.6817377646100267,0.6744248011899608,0.6664036315187251,0.6587980662514507,0.6515045719540584,0.6443515607527946,0.6371859037048951,0.6291100501477537,0.6213377499006222,0.6139145838582701,0.6068078140895564,0.5999470062198292,0.5924585389944056,0.5854401575496293,0.5787839669539621,0.5722966916482688,0.5657967485565837,0.558424276595177,0.5513097672116857,0.5444942435985306,0.5379563328012472,0.5316464908933382,0.5247834025803625,0.5183910323789833,0.5123645447844851,0.5065104124864258,0.5006433775465466,0.49397012709778815,0.4875196633347249,0.4813284094198953,0.47538108296034787,0.4696402641997552,0.46341207311039706,0.4576288919079711,0.4521923676903031,0.4469188536187486,0.4416313999658327,0.43561355663898854,0.429790451696046,0.4241948320138721,0.41881537735424423,0.4136225357319103,0.40800319764052284,0.4027944607776264,0.3979052942269038,0.3931655220890668,0.3884109475470381,0.38300213785224974,0.3777640236134485,0.37272591478605865,0.36787906338957427,0.3631993593621659,0.35814730954473323,0.35346801061072824,0.3490779226487309,0.34482151361545327,0.340549015034992,0.3356945047611528,0.3309900287383809,0.3264623200215145,0.3221050375638926,0.3178986707078182,0.31337064878062876,0.3091804656096972,0.3052516337447475,0.3014425914863822,0.29761725569818187,0.2932766238474327,0.28906701666594387,0.2850121578330861,0.2811071298439207,0.2773358406885456,0.27328546571863216,0.26953752267379444,0.2660225740659756,0.26261290729345577,0.25918619402335863,0.2553053353840795,0.2515393935011128,0.24790981238754137,0.24441316489168616,0.24103654735817168,0.23742188794354985,0.23407968314999827,0.23094679346438152,0.22790778841564174,0.22485227316042136,0.22139812145205667,0.21804361273655273,0.2148070981238648,0.21168551480640738,0.20866799896267108,0.20544437832083112,0.20246163688799565,0.19966307697655525,0.19694563389281186,0.1942112142916378,0.19112811810298702,0.18813251635617917,0.18524098976698516,0.18245132203396536,0.1797544296206045,0.17688235967519886,0.1742241616124539,0.17172786778730423,0.16930056901229262,0.1668546010303813,0.16410325755996347,0.1614277698415619,0.15884477840453906,0.156355282836416,0.15395477244015807,0.1514159851325745,0.14907864043574265,0.14689642125368435,0.14478508567397863,0.14266347138337374,0.14027942121939738,0.13795709988656402,0.13570344918177396,0.13351187010087273,0.13137217032658938,0.12908577435189106,0.12694496024563443,0.12491025362989451,0.12291277911812955,0.12089040017338192,0.11863935203559513,0.11645322246886564,0.11435082528349935,0.11233676026842841,0.11040863002017444,0.10839914642656381,0.10655593518696131,0.1048353414088976,0.10316513113291942,0.10147844425653504,0.09959106525400993,0.09774702795362074,0.09595743798249526,0.09422467043825733,0.09254825849289564,0.09079090120585993,0.08916887811931963,0.0876476369414712,0.08616693340363978,0.0846705258448099,0.08300420058104001,0.08137713982936948,0.07979881116827964,0.07827091627625164,0.07679279319672415,0.07524963229163187,0.07382484279439187,0.07248715246876877,0.0711830726254541,0.06986318128744305,0.06839847271622729,0.06696709930159835,0.06557788492859741,0.0642332093808394,0.06293356937816195,0.06158497362128415,0.06034239104739236,0.0591776982283888,0.05804312029108945,0.05689447535189834,0.055623532769480656,0.05437963090474555,0.05316944570846413,0.05199453816116079,0.05085538132563471,0.04967552882992595,0.04858537597982032,0.04756046979378838,0.046559517756325386,0.045544727155855676,0.04442798531910561,0.04333452913511627,0.04227032326129441,0.04123675461807149,0.04023407298607664,0.03920073640073033,0.03824338673080015,0.03733975913879809,0.036453653148168855,0.035552789475061214,0.03456708391316263,0.033601294891251805,0.032661974243436816,0.03175166452243106,0.03087150596404579,0.029973195297319236,0.02914308227419027,0.028360049654986206,0.027591043105483486,0.02680709179304551,0.025951640258237738,0.025111561305504543,0.024294083452690938,0.02350349963567184,0.022742677622045227,0.021973383410872883,0.021266610776344563,0.020603397339799406,0.01995414709384474,0.01929259865197527,0.018570391976763245,0.017858590728049035,0.017163644564382536,0.016490344429097845,0.015842519681905313,0.01518996893818326,0.014591281868604986,0.014030516449608463,0.013482414983771177,0.012924260522062447,0.012315670799471745,0.011714202125540427,0.011125564121956323,0.010554704701974263,0.010006001362219583,0.009456101684970514,0.008952817366558005,0.008482986217181207,0.008025256308453917,0.0075599655491523495,0.0070534493529891985,0.006550999413765999,0.006057172584130969,0.0055766231391426325,0.005113929736085116,0.004651605588548679,0.004227826059336283,0.0038315723965394563,0.0034444555054064874,0.003049071298540767,0.00261780506244774,0.0021866346756317045,0.0017627912456650448,0.0013572183086540978,0.0009842128609964184,0.0006433601569128894,0.0003771100164660509,0.00018773680157236136,6.687255574299345e-05,0.0,0.0,0.0,0.0,0.0
0.9232732035095397,1.0095963052888353,1.0299849424171028,0.9968057539651154,0.9321975250441046,0.8611396456577334,0.8042334197740364,0.7731357857706082,0.7684524570038639,0.7815809766460345,0.7990060878059272,0.8073549935382014,0.7981453433242304,0.7696666626788575,0.7266751146927264,0.6779151858765223,0.6325525935210198,0.5974044724364908,0.5748841471010918,0.5630084514663831,0.5568242839471175,0.5505058337358684,0.5397291660553271,0.5227207895030764,0.5004474534638501,0.4757616078317723,0.4519471393925942,0.43166399180165044,0.41596283498769077,0.40423248920307825,0.39469893171642706,0.3851626783304839,0.3739893299617882,0.3604236267692705,0.3447006823339335,0.3277778439907834,0.3108320435356324,0.2950654134812424,0.28128896434330497,0.26988385366140444,0.2608567562651397,0.2538841343298639,0.24862760281456298,0.24464233913319436,0.24144476303812423,0.23853378110441667,0.235353130541821,0.23160017221987522,0.2271086838342378,0.22191442614714507,0.21621080594369366,0.20968729793649912,0.20352119956880385,0.19771407841060246,0.1920641100374222,0.18632911138609326,0.17981768652512214,0.1734827464698266,0.16742605278814313,0.16173078833461085,0.1564474168284928,0.1510258796078236,0.1462464900412744,0.1418759596397223,0.13758194895911421,0.13309207506332182,0.1278229338059724,0.12265343093840607,0.1178027581875079,0.11346173875126124,0.10973673329815084,0.10617037433062142,0.10326484025472803,0.10074557986520476,0.0982696442353269,0.09557131424477411,0.0921852942270332,0.08881045703663057,0.08571852870865533,0.08318479225083117,0.08140589519139738,0.0801044966876443,0.07964245845597938,0.07974984832020543,0.08005779745145968,0.08023580554248633,0.07965906012017161,0.0789240794311986,0.0783418846651874,0.07828867549658582,0.0790657158935753,0.08020873047149435,0.08221689265758192,0.08492441562881253,0.08804720752829942,0.0912698254816434,0.09405030096349361,0.09659352080412097,0.09891390827709817,0.10113694488905087,0.10347393506971149,0.10618645065756906,0.10956844750084786,0.11361841402493593,0.11817157575278775,0.12295895307718904,0.1276169196224528,0.13204825397139064,0.13605127839140327,0.1395160043569921,0.1424439710846666,0.14478250859323707,0.14691571629685432,0.1490410611953263,0.1513086662114717,0.15378910723550288,0.15623268898246295,0.15878332179806257,0.16128942962026635,0.16351362321340634,0.1651342433863391,0.1654674047783202,0.16441477597097115,0.1617245933237753,0.15731704461401738,0.15139553647436899,0.14419708833707917,0.13721745839138216,0.13226545168653542,0.13160262098189868,0.13765682956239877,0.15216243251613695,0.17702865377171131,0.21274102294362282,0.2582437008127875,0.3106928322788947,0.36493820018941314,0.41555153745844,0.4561390483560103,0.48054048323086873,0.48372883499539066,0.4619946478214293,0.41556259008880875,0.34728845341383197,0.2628587191540923,0.1700712898035298,0.0770080821947434,-0.007044141334466721,-0.0746360439906837,-0.12077058718495266,-0.14358625538833103,-0.14527863059769006,-0.1291796974206737,-0.10076335434851048,-0.06599242740047068,-0.03025306900790907,0.001675344475419774,0.02837100676228302,0.04980743296100734,0.06736812711285439,0.0830801173725129,0.09809220276512368,0.11434953430441153,0.1324623122137623,0.1522241194212996,0.17284340811826107,0.19288644522321075,0.21193005786696292,0.22967513901888123,0.24635169556526326,0.2626066988640092,0.27916932261800115,0.29688064381468293,0.31602501651460396,0.3363905645927653,0.3573548718690625,0.3780355278412743,0.3978899778116835,0.4166039882031112,0.43441152513573866,0.45210304487411584,0.4707608551441274,0.49167725242195054,0.5155871553898942,0.5424721906066856,0.5714436844471092,0.6007293741627734,0.628682937585058,0.6535281257395734,0.6742102800180984,0.6907843240201027,0.7042100790922546,0.7169620736261634,0.7311307230007872,0.7481577389835296,0.7682848468715127,0.7902428048147336,0.8117946493085276,0.8299099186273187,0.8417982754462627,0.8457853697229226,0.8419686322128579,0.8320099952889155,0.8190146209194621,0.8064381255178795,0.7969280396126989,0.7913313610602236,0.7880864732649877,0.7833957171760083,0.771936198307755,0.748070709502475,0.7071903136858537,0.64709451739103,0.5685255805666254,0.475355942274416,0.3740353547512375,0.2724108340625116,0.17868609699973176,0.0996044951927943,0.03955041849565373,-2.613884487093065e-19,-0.020585459812678578,-0.02568073143558898,-0.02043491214640901,-0.010304779127262131,-2.9586633165965306e-19,0.007085315741799485,0.009895410127536926,0.008653722655207394,0.004729562571300416,5.012548115741519e-19,-0.004032058656610136,-0.00583715956044923,-0.005249209421851517,-0.0029304596166400357,-9.757339626679116e-19,0.002124764060032397,0.0032351316289501355,0.0030510265894194578,0.0017808668825670948,8.447944689028018e-19,-0.0019459764021787047,-0.0028396711760817553,-0.0025606974893184666,-0.0014268631745536298,-1.196498033934733e-18,0.0007643290381411528,0.0012369204383796302,0.0012283596446548313,0.0007488176402170583,7.104153404579916e-19,-0.0011491220148353006,-0.001617331352846562,-0.0013994550375716552,-0.0007440691739033008,-9.80102696610059e-19,0.00013033040802307855,0.0002657169690215297,0.0003089983137192021,0.00021121217675235224,3.1590062022858586e-19,-0.0006189535028836805,-0.0008273939647015784,-0.0006726276958370978,-0.00033115919057862117,-5.352646641289274e-19,0.0,0.0,0.0,0.0,0.0,0.0,0.0,0.0,0.0,0.0,0.0,0.0,0.0,0.0,0.0,0.0,0.0,0.0,0.0,0.0,0.0,0.0,0.0,0.0,0.0,0.0,0.0,0.0,0.0,0.0,0.0,0.0,0.0,0.0
0.8457853697229226,0.9260713550160379,0.9463113647948236,0.9176789681139393,0.8602964682024999,0.7969280396126989,0.7462478051031108,0.7191021981004597,0.7162253620427359,0.7299511605540832,0.748070709502475,0.7582511109568179,0.7527967668599267,0.730050692627028,0.6942277147499554,0.6531803800123491,0.6150096456484861,0.5860209471576888,0.568489777387076,0.5607203610033864,0.5582900505222231,0.5557440795213479,0.5492328921494016,0.5370969852689823,0.5201504985227976,0.5009256865500497,0.4822349113547963,0.46666461057559877,0.4553723687813467,0.44809833280744715,0.44356132257787617,0.4399318977493487,0.43600514767012494,0.43115047240328763,0.42542964005758815,0.41933793743060344,0.41329419722760813,0.4078099904049387,0.40303099893107436,0.3988651215807733,0.39511455228333064,0.3914897539343536,0.3880352929346232,0.38483477686396517,0.3819813435080185,0.3794687539971273,0.37703256566377535,0.3744769035105143,0.37153105364621414,0.3680005730313636,0.363822955710924,0.35854690507800757,0.35320122424419964,0.347854096646183,0.3424602539967829,0.33694916084866117,0.3308176587619411,0.324976877091615,0.31951657529248917,0.3145138083122116,0.3100753659863983,0.3058811045066375,0.30283006445553984,0.3008817658049866,0.2997927733199597,0.299183989126821,0.29819447597680665,0.2970690782867695,0.2953311733715194,0.29251836557852795,0.2882926122672437,0.28213796537184843,0.2747547899637871,0.26638612013627333,0.2573606676182607,0.24806923698929217,0.23858287310906834,0.2297756458167587,0.2217976344131944,0.2145703553895402,0.20784586171134065,0.20101287081125244,0.1942131746625923,0.18716274114023218,0.17968358057068862,0.1717810178070843,0.16328444499741615,0.15508938082713972,0.1476049248340233,0.141118412971455,0.13571617390282795,0.13077958848496085,0.1265824855207585,0.12275462155291017,0.11892298896616446,0.11483835295192851,0.11029322306770879,0.10574674740633709,0.10138293253269741,0.09739425201494677,0.09396053200102909,0.09138771567096964,0.08976189171655864,0.08879203198596962,0.08804562900171257,0.08711536773122028,0.08580162439505716,0.08427200443935233,0.08265153490927332,0.08120082492573477,0.08027020346141145,0.08010853048972794,0.08121975718543567,0.08359524487122211,0.08696560898002194,0.09087153915965691,0.09455887612556593,0.0978437610867533,0.10028923857624945,0.10156645782097153,0.10147287485790236,0.09959553755934922,0.09633065519476461,0.09173638287350236,0.08591079657330136,0.07906477887155386,0.0712354926770025,0.06365965092685218,0.057594846906433766,0.054656342254674,0.05665668288520533,0.06485732434875889,0.08107973074772955,0.10594919905007498,0.13889724220043112,0.17787272993976364,0.2186824501561081,0.2569151502178206,0.28687438690331757,0.30267787901985765,0.29908877699432196,0.2717457696182928,0.2200030454844707,0.14578867246633148,0.05413441110920089,-0.0473039174204944,-0.1499399704225915,-0.24343599410108757,-0.3189445802789291,-0.370032146581889,-0.39369661183531074,-0.39151352443414916,-0.3670010462009336,-0.32647706316099967,-0.2772503182271267,-0.22625772988899903,-0.1796424096766749,-0.1399447390688772,-0.10770727374688406,-0.0815038878218512,-0.058818847942687366,-0.037682323799330106,-0.01550382553095298,0.008882401651186683,0.03552904809646816,0.06358343816550721,0.09135535645071037,0.11789146600118282,0.14245430653809193,0.16497111418723304,0.18598572427370172,0.20636091449570204,0.22713365581262446,0.24892782909471242,0.2718576696140614,0.29552853832476,0.3191787450231257,0.3421393510444047,0.3639557227638379,0.384705750635451,0.40507135237581815,0.4261601864479681,0.44927483361586007,0.4753263233153558,0.5044947256393059,0.5360252235641668,0.5682106530256053,0.5991053043054632,0.6266304792531644,0.6493580910242402,0.6669790947525155,0.6802863153367471,0.6914975767532389,0.7028718867120162,0.7162403080225083,0.7323594095368374,0.7505919681373727,0.7689074622781812,0.7845371534160945,0.7947543010160012,0.7977397243211592,0.7934123392219198,0.7828179121304963,0.7687625060506937,0.7545634306326764,0.7429200166413666,0.7350179192769192,0.7295002201928924,0.7230871468391261,0.7110087636107352,0.6881003089615739,0.6501173251377441,0.5947702892673383,0.5226062312382691,0.4370799386727928,0.34405015448078696,0.25074010460329343,0.16458628087607996,0.09180796077168651,0.03647830987899047,-2.6751590189409565e-19,-0.018979084390324967,-0.02369113555754654,-0.01886487834143518,-0.009520525263298621,-2.384985318292008e-19,0.006575985997222603,0.00918882098987674,0.008039423478967217,0.0043955435207518306,4.7548366503209555e-19,-0.003741743179041643,-0.005420520065083798,-0.004877812810081129,-0.002724931002382268,-9.12968420147073e-19,0.0019762249640397894,0.0030117312760967324,0.0028426934626338343,0.0016604855600050542,7.997329379843915e-19,-0.0018279645725530185,-0.0026649540266113466,-0.0024006798350046715,-0.0013362162983097427,-1.1330722815624795e-18,0.0007064975780358878,0.0011447787219385757,0.0011380473764728604,0.0006943659471287818,6.618072912628585e-19,-0.0010733485807238642,-0.0015095284751823295,-0.0013050308732143814,-0.0006931662191261234,-9.156685830040113e-19,0.00011988224226478915,0.00024441530213320387,0.0002842269219178468,0.0001942799821375165,2.905758929192823e-19,-0.0005693340096825431,-0.0007610644762749049,-0.0006187053168134867,-0.0003046112332137234,-4.923542334765206e-19,0.0,0.0,0.0,0.0,0.0,0.0,0.0,0.0,0.0,0.0,0.0,0.0,0.0,0.0,0.0,0.0,0.0,0.0,0.0,0.0,0.0,0.0,0.0,0.0,0.0,0.0,0.0,0.0,0.0,0.0,0.0,0.0,0.0,0.0
0.7977397243211592,0.8725197123964078,0.8901721577729491,0.861290604611728,0.8049878059670116,0.7429200166413666,0.6927787724052435,0.6650543357630924,0.660573036687325,0.672129804973749,0.6881003089615739,0.6964799524737292,0.6898495249935828,0.6664606010562456,0.6302270752207474,0.5886527855342281,0.5494896669339006,0.5191642972808554,0.5002749184332822,0.4916084498750337,0.4892052621068821,0.4877618488909683,0.483515095091196,0.4745640099337824,0.461307621804186,0.44582685393085153,0.43044073201679983,0.41771754789960996,0.40895616630557496,0.4041918145135883,0.40244844575482097,0.4019032031045941,0.4014848548666107,0.4004425898134401,0.3986207146286221,0.39629389743116605,0.39356510331203054,0.39116235927715487,0.38955905516425143,0.3891288664496258,0.39013934910751114,0.3924117353277674,0.3962587285161673,0.4016778585508601,0.40844669108376885,0.4160677324978578,0.42349507285668037,0.43019033111682653,0.43561005109622886,0.4395138563671013,0.44199611588820437,0.442712559766189,0.44317544100647793,0.44386688652527234,0.4450406924581437,0.4467065088174025,0.4479964014859507,0.44951471814921734,0.4508653737732753,0.4516136524489654,0.45141690174660054,0.44948558402390654,0.44674510633309533,0.44341775500360375,0.43976424987872775,0.43604790687088335,0.43191741410875967,0.4283099965047263,0.4252990760516757,0.422809134276936,0.42067891199516616,0.4182043613997133,0.4159366379633554,0.4138308324785613,0.41185196487065995,0.409971633141406,0.4077058180699816,0.4055966309294476,0.40357195434641757,0.4015038240816958,0.39926435428764573,0.3964085264684869,0.39345045644088456,0.39046032742054,0.38750800243373773,0.3846472693938514,0.38150681969671524,0.37858419740857824,0.375804758711514,0.3730142605636684,0.370030184500057,0.3662838482905022,0.36222972908698453,0.35788718592316304,0.35332135541160636,0.34864132891905164,0.34388463968532934,0.3394470466071691,0.33527107482573204,0.3312316843928736,0.3272524733380462,0.32360732724294056,0.320471178183229,0.3177386944841354,0.31519542317456256,0.3125992166641981,0.30984507425681485,0.3070378960783436,0.30407179541957896,0.3009658765678449,0.29794595999035,0.2953613792205275,0.29402213334317917,0.2942043532620087,0.2958605945494379,0.2985857055212376,0.30147255257897926,0.30397434035721926,0.3050287013101655,0.3036650150201423,0.2992254510521252,0.2912050037857136,0.2803220891280163,0.2671637537095816,0.2524879016819335,0.23710476432231037,0.22141402411893815,0.20666618650346283,0.1935531281716609,0.18274960911619087,0.17498407759249548,0.1705823902787403,0.17089481426953088,0.17647335459188193,0.18728102953699727,0.20237451762614508,0.21908581415409367,0.2347580244704204,0.2450773896725008,0.24506163514991275,0.2297649576597948,0.1945073004156187,0.13794179215034946,0.060796784487658545,-0.03314442497307877,-0.13721824511209685,-0.2433776558348141,-0.3411472962681405,-0.42131741390063887,-0.4768720624907011,-0.5042014478839884,-0.5044672135888956,-0.4808891207910212,-0.4400384219779732,-0.38975779847315417,-0.3376039472772606,-0.2902524617930175,-0.2503541245905932,-0.2184757342339927,-0.19298566388466531,-0.1710064466705329,-0.15019359490973605,-0.12751771105809853,-0.10176530844595819,-0.07307158715112196,-0.04263219296359112,-0.012590032195862046,0.01591922141080702,0.04186676915234541,0.06498629733845858,0.08574206074335071,0.10491845259916514,0.12384119797036593,0.14325540078876933,0.16341461772067728,0.18409933471691384,0.20468102948480402,0.22487096645566335,0.24438600877315392,0.263372019638985,0.282456608690477,0.3025176308919517,0.32472583393992915,0.3497206036406981,0.3774716837888769,0.4071619744303201,0.4372034973583184,0.4659872000136383,0.49185633991946076,0.5138102579359654,0.5318673401701632,0.5470044329674206,0.5613112475735874,0.5768065443355974,0.5949616031715337,0.6161275144518266,0.6393346486275642,0.6621672777881819,0.6816707359156304,0.6950289831193577,0.70038768873349,0.6977034928054128,0.6878994175942533,0.6737991976634685,0.658806351648954,0.6458096511452904,0.6363744154018031,0.6295015370135246,0.622507108925614,0.6112740015633283,0.5912316135570908,0.5586060734537805,0.511131443030909,0.44916355889743453,0.37563836588001953,0.2956158067785454,0.21540178215897482,0.14133515957873583,0.0787911888211559,0.03128152976526454,-3.043615335856999e-19,-0.016204094709087763,-0.020206987110362236,-0.01607695216631653,-0.00810817640678108,-1.0354997896303151e-19,0.00563093719754966,0.007858943430687916,0.006867548440557324,0.003750303191567172,3.6445738361579443e-19,-0.0031532830891488946,-0.004573398718630743,-0.004121275166962899,-0.002305974015719985,-7.224179164773308e-19,0.001703168340546948,0.002591825907662375,0.002443050917741713,0.001425283714210153,6.768040420377718e-19,-0.001545507091270373,-0.0022578309575564913,-0.0020384303412846376,-0.001137250007338963,-9.515636752157558e-19,0.000609643828137712,0.0009889309815471325,0.000984012300304659,0.0006008366009256538,5.749538177626062e-19,-0.000934616547803153,-0.0013135583562493343,-0.0011347560658144904,-0.0006022030964021581,-7.974616138884666e-19,0.00010300558015737113,0.00021000724978068215,0.0002442143092704788,0.000166929829597593,2.4966949119776317e-19,-0.000489184877282675,-0.0006539241044783807,-0.0005316058400380929,-0.00026172897842808874,-4.230420828313328e-19,0.0,0.0,0.0,0.0,0.0,0.0,0.0,0.0,0.0,0.0,0.0,0.0,0.0,0.0,0.0,0.0,0.0,0.0,0.0,0.0,0.0,0.0,0.0,0.0,0.0,0.0,0.0,0.0,0.0,0.0,0.0,0.0,0.0,0.0
0.70038768873349,0.7650333097373895,0.779255063675077,0.7524887936663941,0.7016413368315602,0.6458096511452904,0.600719758690973,0.5753801467346698,0.5703342879172273,0.5790625211265882,0.5912316135570908,0.5964710381674497,0.588235620183679,0.565117304615513,0.5306961498789575,0.4916759637666891,0.45507188629921924,0.4263427385093892,0.407560817936827,0.3973935037081198,0.39212031397628755,0.38708597143368206,0.3788560206379499,0.3658326768979792,0.34854498249773164,0.3290733031582944,0.30985340232697467,0.29327820927681597,0.2805924516597327,0.2718229216116528,0.26602629234030134,0.26157575926350546,0.2573299406849266,0.25251214850130627,0.24692878456872933,0.24083506145621908,0.2344741168834925,0.22847767816073147,0.22323557302819494,0.2189518770892526,0.2156438305721368,0.21296276310898032,0.21086665425546064,0.20917466295626813,0.20769683447851356,0.20624157765736675,0.20441126348714017,0.2023347086373121,0.20017635411450627,0.19823374666335883,0.19683932474259674,0.1956230617269429,0.19553756162448582,0.19643987555949988,0.19795363149739537,0.19962283841772727,0.20046077450015107,0.20110823076559775,0.20157621469849718,0.20196410974736825,0.20240635209285784,0.20241058751080251,0.20279732952010782,0.20351245499887044,0.20438102649874618,0.20520609551661528,0.20528312091358553,0.20537079193494662,0.2056856784642006,0.2064870420315055,0.20800583894037275,0.20980282035399758,0.2125547696620304,0.2162074982930725,0.22055834235187805,0.2253010286088699,0.22957047132054345,0.2336209268185234,0.2372480426167338,0.24028483918874033,0.24259621827736705,0.24362680754209182,0.24383378388042184,0.24332024128524016,0.24226044867402716,0.24089688383623928,0.23911743604848448,0.23771110460972955,0.23707063179795895,0.23750810817242896,0.2391975493951115,0.2417766544158806,0.24549450708511844,0.2501220005106261,0.25533520147708344,0.2607731513037351,0.26547564825800324,0.26985510639340354,0.2740097637188639,0.2781255220538873,0.28234875321235864,0.285788462660218,0.2891620308949204,0.2925383629905047,0.2959573509742219,0.2994186722076498,0.3023410252558311,0.30526368905196116,0.3083849681333854,0.31200198079726754,0.31648859120294087,0.3220407161721313,0.3292489196590378,0.33826590271716644,0.34895624680081727,0.360851631989736,0.37296323350527205,0.38453197877344936,0.39442979114033433,0.4015906076026541,0.4052146727765311,0.40473297700822913,0.4005783495639528,0.39342168222284035,0.3843074037500355,0.3744707928092387,0.36488575580327587,0.3567965330654356,0.3507080518920393,0.34655781729146123,0.3437269128419462,0.3409070890116117,0.3371469140994321,0.33123830164770257,0.322354675949501,0.3104084090072358,0.29605961909943707,0.2818355760011899,0.2710919596637379,0.26802289295426174,0.2770899051725253,0.3018985945331361,0.345377372911556,0.4078585476365639,0.48683255441311013,0.5767944752270304,0.6692112254087144,0.7547574949797482,0.8233475034893308,0.8660455676810717,0.8764990452815354,0.8515230237529453,0.7931769727486849,0.707080825864694,0.6020173502919011,0.48856674502837955,0.37695674124115347,0.2771717512480398,0.1960886227678181,0.13722666086434823,0.10063444477522365,0.08281235853791324,0.07946155624354119,0.0849504737493142,0.09397809953714747,0.10246125728209234,0.10762374061924157,0.10932219564656465,0.10830672388312391,0.10608431842566725,0.10428806978896099,0.10393660650255676,0.10592142812787626,0.10992003236554022,0.11501669281042734,0.12012368437430455,0.12421412706210368,0.12735626040796674,0.1298307355815672,0.13237843604286725,0.13595929895964806,0.14125486048332886,0.1490526215969646,0.15918854382932382,0.1709114692376353,0.18312971968242459,0.1946036057755664,0.20490929115273734,0.21388278468204114,0.2220032204801587,0.23030014040520114,0.2399287592315613,0.2523198802825766,0.2680677017661438,0.2869393610079109,0.30785725358388144,0.32881816456371366,0.34843812425941234,0.36496032413903284,0.3773006960868884,0.3854143667625618,0.38991030499892915,0.39350788666270997,0.39822188388096014,0.40557253651218467,0.416078390103409,0.4286752534320401,0.441629612895288,0.45155422197834605,0.4544876295826557,0.4467424134442563,0.4257026967995959,0.3906715701448248,0.3429068154484207,0.2855988789581808,0.22337120672212815,0.16145030498009522,0.10498338584595945,0.05796800946409791,0.0227888128724609,-2.4867954134394357e-19,-0.011596319925702994,-0.014321101034469562,-0.011285145936084897,-0.005638145150244016,-5.5038929756601305e-21,0.003848571179255269,0.005324798648532185,0.004614971811773547,0.0025009173064504345,1.3210377941600566e-19,-0.002048946512219818,-0.0029628226493275036,-0.002663890875059421,-0.0014881748172833045,-3.509360213067559e-19,0.001138436323414884,0.0017174399040970467,0.0016061489283382682,0.00093047253032653,3.710352035847909e-19,-0.0009394590936925781,-0.0013851867261415836,-0.0012631495355410575,-0.0007123012566336625,-5.241657197835609e-19,0.00043560043384324905,0.0006961683366850224,0.0006841313854088838,0.00041339700545978586,3.7371450760027927e-19,-0.0005872220535854001,-0.0008334852537733757,-0.0007281318819624782,-0.0003913711411701518,-4.996741721141158e-19,7.783237638608832e-05,0.00015868425073442636,0.00018453155653284535,0.00012613438327763925,1.886535640238017e-19,-0.0003696345521560847,-0.000494113687335558,-0.0004016883917130832,-0.00019776587180071934,-3.196561833618953e-19,0.0,0.0,0.0,0.0,0.0,0.0,0.0,0.0,0.0,0.0,0.0,0.0,0.0,0.0,0.0,0.0,0.0,0.0,0.0,0.0,0.0,0.0,0.0,0.0,0.0,0.0,0.0,0.0,0.0,0.0,0.0,0.0,0.0,0.0
0.8764990452815354,0.9258160024757834,0.8941112184370551,0.7935902430330966,0.6485463104222353,0.4885667450283796,0.34071698734183614,0.2246616467826627,0.1487977325060729,0.11078557781949305,0.10063444477522364,0.10483071178172637,0.11191377926318528,0.11455869260537906,0.11069282405757343,0.10246125728209235,0.09370273091323311,0.0885839480802756,0.08919783627831314,0.09519429091110368,0.10428806978896098,0.11316066843111487,0.119501909254879,0.12225534842397469,0.12192660382614855,0.12012368437430457,0.11858971221606408,0.1190162982375458,0.1221910033694911,0.12805442141642326,0.13595929895964806,0.14495085025643065,0.1544159012289646,0.16398785544211464,0.17355977252164292,0.18312971968242459,0.19260224521654376,0.20195215135055794,0.21117522750393244,0.22046518743313673,0.23030014040520114,0.241374553764289,0.2544539500371676,0.27003461418903185,0.28807505867539307,0.30785725358388144,0.32805077130867494,0.3470609310434813,0.363422560859272,0.37623151476062233,0.3854143667625618,0.39128541110560194,0.39608083272421485,0.4012339557158499,0.4077823985372846,0.416078390103409,0.4253834096233466,0.4349407826878388,0.44293322795467627,0.4473956390455747,0.4467424134442563,0.4401282058365056,0.4279167838098274,0.41131337327194284,0.3921576933000458,0.37245813822247337,0.3538171621621216,0.3373405895249647,0.3231326168399513,0.31048595987221117,0.29817386300069043,0.284763083041119,0.2693449568827911,0.25146789569189126,0.23137529991013428,0.2099304641612162,0.18827615463454692,0.16786109454442455,0.1497151384895848,0.13435216141450101,0.12168706532174191,0.1109990390947318,0.10151473624856124,0.09224273017482137,0.08240255879235502,0.0716411944600977,0.059983457900298055,0.0482714818150126,0.037404842886354615,0.02828924832221064,0.021595323598453505,0.01740926245282391,0.01577591568732062,0.01604934688901089,0.017324714045025724,0.018693457569700884,0.019255531109919483,0.019054986115831778,0.018163441429561906,0.01692111126304781,0.015791591540948263,0.014917299065027798,0.014950189234615678,0.015828047670381862,0.01722982155865356,0.01872726414567977,0.01963810123144749,0.020271447748119825,0.020669849425895895,0.021035123454106547,0.02166293675041128,0.022477885868139966,0.024194609046199713,0.026804665956447007,0.030081924027217478,0.033671975800700464,0.03682584398447313,0.03974446005295249,0.04225151103617582,0.044244520513090586,0.04568101485098965,0.04616861903022437,0.046200235314294645,0.045863377099304735,0.04525346751405647,0.04449204576344162,0.04342680162682879,0.04260033092760225,0.042228417030719306,0.04245297995767808,0.0433030766758936,0.04445535866545528,0.04597170491861923,0.04766901268249382,0.049379256681832094,0.05099659230251279,0.05228461826511038,0.0535296283716482,0.05491374186801773,0.05660684594379565,0.05869010792913199,0.060904623964374,0.06326256525869932,0.06560547560316,0.06779078635342249,0.06974547424834793,0.0713070619585611,0.07282208026202286,0.0746481821690705,0.07719317574222731,0.08080084056756386,0.08545465214483403,0.09127920605634009,0.09808262813245458,0.10550825984960806,0.11311055469290611,0.12023774605719374,0.12682402707101223,0.1329428119954706,0.1389529975710355,0.14542026881824835,0.15271278858231824,0.16161097047270068,0.1725144346003478,0.1854432026581364,0.19993531098656847,0.2148998364767157,0.22916416393273115,0.24131443035549396,0.2500537740894216,0.25445035315488856,0.25409635248769225,0.2492733847839139,0.24078713188715656,0.22985896852571872,0.2179102285383662,0.2063073949119865,0.19625254473452697,0.18854211639194005,0.1835706735961162,0.18137010392184388,0.18167138731684443,0.18408576203416568,0.18807517256576434,0.19305516766903327,0.19844044173589193,0.20365456915347943,0.20826742856248706,0.2119044074457859,0.21433679548303428,0.21551077954993997,0.21551284197866552,0.21464190719039403,0.2131851074170562,0.21140096854503174,0.20947755110007527,0.207501336193905,0.20565023644553937,0.2041016650503742,0.2031882619437215,0.20344432265021056,0.20552237592296282,0.21020877230552018,0.21799059779910238,0.2288876202629506,0.24226036838273404,0.25667341490499346,0.27019909468376374,0.28037351273039796,0.28469356846518995,0.2810764141152575,0.2682065051856058,0.2461133316706845,0.21588944777227587,0.17971190963021477,0.14053820705762876,0.10155594205904889,0.06607255744266857,0.03653451042118877,0.014395859577715067,-7.061303750937312e-21,-0.007473482259037406,-0.009261038031068508,-0.0073166535988985724,-0.0036614625559536172,-2.1333177616250081e-19,0.00242812262031006,0.0033718476500750223,0.002933666513725123,0.0015960221427559623,1.4890536946486608e-19,-0.0013656115997813002,-0.0019663684197810715,-0.0017589855880026373,-0.0009769276094339285,-3.1022842882422985e-19,0.0006963673565942401,0.0010567602812330415,0.000993825997939798,0.0005787405372893687,2.4482446038802027e-19,-0.0006260509333617385,-0.0009140265411310715,-0.0008248745003192389,-0.000460122616027877,-3.6074491525077352e-19,0.0002672634848979085,0.00042413804053470375,0.0004143056470459305,0.00024907206407837946,2.186407408386776e-19,-0.0003371548527366275,-0.0004812162041953163,-0.0004230093435108517,-0.00022895330653083137,-2.8644068544970423e-19,4.896970737120425e-05,9.983918882724215e-05,0.00011610150870045163,7.935982588933688e-05,1.1869494744646583e-19,-0.00023256254908085938,-0.0003108809444144614,-0.00025272982671148696,-0.00012442812772479238,-2.0111771585874245e-19,0.0,0.0,0.0,0.0,0.0,0.0,0.0,0.0,0.0,0.0,0.0,0.0,0.0,0.0,0.0,0.0,0.0,0.0,0.0,0.0,0.0,0.0,0.0,0.0,0.0,0.0,0.0,0.0,0.0,0.0,0.0,0.0,0.0,0.0
0.5382796741194399,0.5823469689472011,0.5848253054540372,0.5532082660175366,0.5011211657257881,0.44417624631887775,0.3956131633281865,0.36335060325796126,0.34860810269128856,0.3468180773789361,0.3500728185183156,0.35012228719727284,0.3412781056769425,0.3217188878655225,0.29352392492025897,0.2613969433544815,0.23064624791333133,0.205607221211715,0.18827076819732702,0.17811101709382013,0.17272106819064736,0.16884630591298894,0.1638525248371678,0.15628905908120866,0.14615719534176372,0.13457877350412006,0.12303821002833579,0.11303242702880575,0.10536061831826327,0.10003699460737911,0.09643647881759279,0.09350296671400991,0.09044833291302182,0.08674197394920376,0.08226041802451516,0.07722156407937754,0.07191690171032136,0.06692472692015841,0.06272164701681084,0.0596768919608456,0.058006649341162286,0.05762015305345483,0.05849174147428806,0.060380512216680234,0.06292733936486196,0.06570585825592046,0.0681411320571785,0.0700769469032482,0.0714746081387725,0.0724929645861624,0.07340506717067864,0.07400645612519725,0.07514304613051989,0.07682260736277953,0.07885857374575053,0.08098025756215499,0.0824850980316573,0.08388968715863235,0.08526882791187085,0.08676969295201792,0.08855544795363135,0.09027730932391034,0.0925247715345189,0.09527756188355865,0.09840362819673314,0.10170881276691596,0.10457674996333285,0.10733403944342507,0.10996147099771705,0.11246906192765348,0.11486217758020056,0.11674615870333327,0.11847058604967814,0.12007268876261752,0.12160089231117377,0.12311578090728022,0.12427395567134403,0.12555674931295488,0.1271288255038697,0.12908215857266248,0.13136938423435987,0.13333230943045857,0.13508660917644782,0.13646583038799284,0.13739940337525453,0.1379503363934574,0.13821228065067978,0.1386205633601808,0.13955949825118633,0.14141645241003645,0.144531288552555,0.14937886717376317,0.15584789393862641,0.1636597776761113,0.1723176814766014,0.18121914931693264,0.18987120669545662,0.19786813242340198,0.2050560317038489,0.2115897405709596,0.21790701008131028,0.2245148248724669,0.23214596580483302,0.24122808888318872,0.25182511648767814,0.26356316289452214,0.2754607464263058,0.2867565042129081,0.29653738665467155,0.30412543873542386,0.309219315707734,0.3115984202502387,0.3120450919336895,0.31130954549606626,0.31012470203905057,0.3090123213491791,0.30779675828167596,0.3069012051117083,0.3064749039680208,0.3068773869276018,0.30880532699062424,0.3128086868126425,0.32057490325371174,0.3333318730791027,0.35167630982722875,0.3750318997068987,0.40068536981668984,0.42538475053626507,0.44415759363145363,0.4513002146755634,0.44125847242317306,0.40903003107327773,0.35314722913773017,0.27479768239605296,0.17850754442917258,0.07175877450223665,-0.036653471513387645,-0.13595444859651942,-0.2166940837257341,-0.27180429792812094,-0.29774092341869973,-0.2956845550144245,-0.2691061030702772,-0.2246063238210727,-0.17006022928214887,-0.11315001275718477,-0.06073976920265107,-0.016060740441806033,0.019821915510280855,0.048109838240638525,0.07144089790433017,0.09229111748064997,0.113862705541003,0.13784150924061098,0.1646118563052159,0.19338380376489112,0.22210782375186355,0.24960927201666525,0.27460377553872034,0.2964695840836888,0.3153267096254521,0.3314670511887673,0.3464077494036709,0.3611669532023432,0.37641147900365635,0.3923255431596776,0.4083622951093281,0.42441633938007217,0.4400067389872307,0.45490729276921815,0.4693243766939031,0.4837353011112755,0.49930444139523644,0.5167605269601698,0.5363662324155646,0.5577237081218741,0.5795764717707069,0.6007633557181059,0.6196405706572996,0.6349237501185309,0.6461230395498451,0.6535146053359092,0.6588879013821523,0.6639804773531075,0.6703258924970765,0.6787279134930576,0.6888802625643292,0.6994706640788699,0.7082986178667384,0.7129199126248498,0.7113327874362702,0.702712444402249,0.6871166098011734,0.6661668077223076,0.6423038656365536,0.6180913554207714,0.5955845832114893,0.5756320829495433,0.5580338878691765,0.5416469444980443,0.5248499234052728,0.5060728345010393,0.4844295295903176,0.4598083877221896,0.43293703030210107,0.40512170737090775,0.37771616776298444,0.35203726120698753,0.32850372952633317,0.30667909427578505,0.2853934913365427,0.2629139386286191,0.23802190776364085,0.2096611540099154,0.17761316593501275,0.14269674566827134,0.10650392671284953,0.07185697968145185,0.041296908158356904,0.016928044382268373,3.205724081424254e-19,-0.009573767121658756,-0.012291944686724919,-0.010038527512968095,-0.005180489169439187,-7.786543944923263e-19,0.003508126358027862,0.005025849783574213,0.00450213530489758,0.0025161316719907985,6.442383668442479e-19,-0.002433270003451964,-0.003511558102465951,-0.003139919471137089,-0.0017389670278643772,-1.0108026961611444e-18,0.0010553729099830765,0.001646382427479465,0.0015865143257616059,0.0009436827189093586,6.068635699334232e-19,-0.0012343422450104538,-0.001762912509911888,-0.0015522466228697074,-0.00084249299652119,-8.78208222176023e-19,0.0003268199538743004,0.0005437067415190373,0.0005521382010132397,0.0003427618130600696,3.564047777119503e-19,-0.0006056787590358048,-0.000840637712033534,-0.0007156886005600398,-0.0003733677833628172,-5.185786635707982e-19,4.972183738855435e-05,0.00010137262765822462,0.00011788472192431911,8.057872039427222e-05,1.2051799352279964e-19,-0.00023613449760710354,-0.00031565579202267425,-0.00025661152621825556,-0.00012633923021832137,-2.0420670044204029e-19,0.0,0.0,0.0,0.0,0.0,0.0,0.0,0.0,0.0,0.0,0.0,0.0,0.0,0.0,0.0,0.0,0.0,0.0,0.0,0.0,0.0,0.0,0.0,0.0,0.0,0.0,0.0,0.0,0.0,0.0,0.0,0.0,0.0,0.0
0.7113327874362702,0.7726726962501931,0.7808024924287189,0.7455676077966162,0.6846445287434215,0.6180913554207714,0.5627024161647447,0.5281388818887052,0.5153234724261131,0.5177588230377007,0.5248499234052728,0.5259215123318001,0.5138937749458762,0.48696581074372636,0.44848680874088337,0.40512170737090775,0.3641252902304874,0.3310695145134901,0.3081830161513593,0.29420760915990013,0.2853934913365427,0.2770840736768471,0.26557805910889687,0.24906829371910874,0.22794297096473368,0.20427336764414758,0.18077630803632896,0.16000272338342003,0.14346939356334848,0.1314473184516825,0.12315324395175253,0.11715130900534246,0.11207476225674513,0.10687477157567837,0.10103340796765671,0.09453072714965892,0.0876085499646514,0.08081308339574224,0.07466588452092489,0.06960260183347829,0.06590821034756532,0.0635884689136138,0.06261420160311472,0.06272281018196046,0.0635011394824568,0.06446002548118811,0.06503473956132846,0.06503880653418342,0.06449134550946974,0.06367092601714845,0.06301184061481091,0.06244205779059095,0.06303239649818115,0.06475653226409528,0.0672715585383587,0.07007686279735581,0.0722456001982367,0.07414268939266798,0.07559925619101064,0.07657344142085334,0.0771418849799007,0.07706578822114724,0.07709584900791502,0.07730635026812878,0.07765685463492214,0.07805622069796181,0.0780098848278225,0.07805326603339273,0.07823045390572428,0.07855286481360098,0.07897055641602294,0.07891125912151285,0.07872711144073381,0.07832939766879733,0.07766773619995244,0.07677284158615184,0.07570903721111406,0.07481517303510145,0.07424683355279761,0.074129523565898,0.07457512675628078,0.07601854204765524,0.07829689872198202,0.08119481477918035,0.08438598696600104,0.08753194807050467,0.09054768124608455,0.09326333468672322,0.09568596722044947,0.09798836903046892,0.10048876938472853,0.10356924497787463,0.10763322127265453,0.11286723720336489,0.11920571060656425,0.1263085270247376,0.1334762328185622,0.14017891232135624,0.14580012974536447,0.1498691967176076,0.15212828466474668,0.15228424337334584,0.15073833387493854,0.14784596024036722,0.14400589065475364,0.13959870149181117,0.13461247065447476,0.12988322788426465,0.12624545175554155,0.12484194494057332,0.12706911831887563,0.13389106092747644,0.1470907589050724,0.16762146706098555,0.19547188762122836,0.22922507463109024,0.26514554843163984,0.299140236867315,0.32555696622852603,0.33823549961113003,0.3313810309433049,0.299804966452441,0.2422601387636828,0.16032071168687426,0.05907761714598324,-0.0532976540365231,-0.16744548786771696,-0.2717404550719235,-0.35601290242311295,-0.41267442612334937,-0.43797633901635113,-0.43348331834204923,-0.4029746985028308,-0.35356693687224,-0.29365438175457975,-0.23134592785210242,-0.17401729598656998,-0.12484955219240332,-0.08474340762984607,-0.05228161857242684,-0.024715516687853722,9.270764133832102e-05,0.02522188310315612,0.05215945345359701,0.08118335724028385,0.11157259986943158,0.14132922965637504,0.1699417935426486,0.19697215871985552,0.22268021493301865,0.24786071642671684,0.2728423735310503,0.2990689403198905,0.32710738753456675,0.35692025031308267,0.38786623161572287,0.41832777628897455,0.4477898076774838,0.4757165801216061,0.5021801429779313,0.5278717468047289,0.5534090111662686,0.5804821898190646,0.6101388512746796,0.6427359739737868,0.6776981228615189,0.7132120429903949,0.7476284426486907,0.7789340123107191,0.8056925422692023,0.8275244989183088,0.8451043734237486,0.8605892332908497,0.8761888273254712,0.8937470313161292,0.9140875077498726,0.9366565747059311,0.9594460921387464,0.979591537583644,0.9940903295507028,1.0006505165814363,0.9985848341049813,0.9882184840341879,0.9718049446330475,0.9524428886644304,0.933161138998846,0.9162034441414746,0.9020746180209697,0.8901090735565015,0.8786448155264241,0.8656717614162558,0.8495372419924361,0.8294125308942363,0.8055492049189004,0.7790970762614317,0.7516851069336054,0.7248541185704518,0.699855697423082,0.677158637876878,0.6566105697637514,0.637698452450955,0.61975160748289,0.6026940817280563,0.586499610615984,0.5713397678055894,0.5573567996395749,0.5441631901091963,0.5313486660048246,0.5173707967223576,0.5000614278665163,0.47701514682819474,0.44584532943775923,0.4057743856127848,0.35671154946299066,0.30001568116677596,0.23850757341409737,0.17580310063241597,0.11704417316317497,0.06637389333690413,0.026858568724441083,5.108688512086158e-19,-0.014890655538704313,-0.018921597238875706,-0.015302580261407097,-0.007824420517243502,-1.1750427605763389e-18,0.0051646654231595375,0.00734915431023132,0.006544997543307729,0.003639580092867597,8.414425554568508e-19,-0.003529812347441077,-0.005069154298440123,-0.004510968243634041,-0.00248655627605343,-1.381598966755709e-18,0.0015100896974586742,0.0023370960989706046,0.0022367387643073434,0.0013227058987476037,7.646966269312376e-19,-0.001651758422275404,-0.002370685228607692,-0.002099188438634089,-0.0011466884203764826,-1.1164951194125969e-18,0.0005045214518766372,0.0008236782400045466,0.0008239110435226981,0.0005052667476009118,4.945460997353782e-19,-0.0008141447811635033,-0.0011401142044380097,-0.0009808306509642931,-0.0005180123880215549,-6.953623938651246e-19,8.310655387196609e-05,0.0001694372168064796,0.00019703602094842078,0.00013468166341178286,2.0143734920683733e-19,-0.00039468220357705033,-0.0005275964538424155,-0.0004289081165921281,-0.00021116713689061295,-3.4131713634559816e-19,0.0,0.0,0.0,0.0,0.0,0.0,0.0,0.0,0.0,0.0,0.0,0.0,0.0,0.0,0.0,0.0,0.0,0.0,0.0,0.0,0.0,0.0,0.0,0.0,0.0,0.0,0.0,0.0,0.0,0.0,0.0,0.0,0.0,0.0
1.0006505165814363,1.0944737368971793,1.1167712172683169,1.0808411187276317,1.0106117742830256,0.933161138998846,0.8708416359414992,0.836527649610873,0.8311487939075434,0.8456687818692926,0.8656717614162558,0.8767025363319773,0.8696129057111933,0.8424221796386445,0.8000530316531498,0.7516851069336054,0.7068616759855976,0.672767876250947,0.6518658047158743,0.6419546449158876,0.637698452450955,0.6327893217991309,0.622710652308974,0.6056717874990721,0.5828313759729514,0.5573567996395749,0.5327595814019378,0.512033857952503,0.49640522575985774,0.48532870212876167,0.47701514682819474,0.4690990225927944,0.4599856899193015,0.44892250005773143,0.43613755866460563,0.422516624147504,0.4090144282581324,0.3965696539505211,0.38563132016396945,0.376210673797949,0.3680181014668134,0.360606361827863,0.353638466493882,0.3468578372633153,0.3401031813725423,0.33327281151107446,0.3263016307172335,0.3191922149494026,0.3120394795326694,0.3050526097054049,0.2985275215553355,0.292284475416404,0.2874472154792008,0.28385032899262114,0.28102488495828415,0.27839640613617345,0.27504468619744016,0.2715298300319324,0.2676243117858733,0.26319777990196236,0.2582652907170114,0.2525910354550202,0.24714286070351127,0.24191963507649694,0.23675104487266094,0.23142863786276405,0.22551348526665968,0.21972309340465299,0.21415824550977983,0.20900849747304645,0.2045919850085167,0.20105844938253475,0.19936444694341077,0.19962555338809096,0.20160635763507453,0.20474112246353843,0.207920045323688,0.21065493821948975,0.2117805512984346,0.2101559512515518,0.2048902599185601,0.19523757706715292,0.18176439668078492,0.16502307955347642,0.14596094255220646,0.12580739234259283,0.10556083112999184,0.08693267669343714,0.07078414222003915,0.05744961541049305,0.046724524766625565,0.03758807635928803,0.029657209261195156,0.02205642697031581,0.014100408429887181,0.005474067603631011,-0.004155231616458563,-0.013752223567871388,-0.022589136281312303,-0.030034887488643417,-0.03577638955936354,-0.0404584690855149,-0.043995558651423974,-0.04700432073820064,-0.05009660907394349,-0.05366326777035858,-0.058347064300903036,-0.06315761017213925,-0.06737192211045617,-0.0702950528626506,-0.07155014598135363,-0.07195028734693618,-0.07138344202721073,-0.07053795266754108,-0.07009271756922923,-0.07045192913908167,-0.07222655906671267,-0.07416169188141764,-0.07510335800912724,-0.07381169725108812,-0.0693537122968097,-0.06205532659307448,-0.051657384911916876,-0.03894574524847778,-0.025024442428021536,-0.011006670702842381,0.001734913330703498,0.013428035215827638,0.024421033788052493,0.03544785126634598,0.047340370891124944,0.060284169714919573,0.07498034037463053,0.09129069775353671,0.10867928994493466,0.12639498319488018,0.14336150698534908,0.15948733491621392,0.1748383778420491,0.18990442702103788,0.20544959549863537,0.22200944629428482,0.24041466496582464,0.26092541632409216,0.2832855792132414,0.3067407766240104,0.33000114872294034,0.35215129687836616,0.37249957793363186,0.3909409209476153,0.40803195774938533,0.42470595603824635,0.44241028221580886,0.4623722803086725,0.48521461734450355,0.5106266735864697,0.5371208448553128,0.5627140236599089,0.5851090763903524,0.6023274684589329,0.6132213894235541,0.6176082101794881,0.6167391494672726,0.6126908768908984,0.607817429296978,0.6040552891612496,0.6022810609720831,0.6021978702104213,0.602379916398486,0.6006875343758228,0.5948891888989454,0.583340946958816,0.5653313437482,0.5414511017201945,0.5133832991855412,0.48348298169770726,0.4542256512493058,0.42765175623992774,0.4050210351144589,0.38666319004604616,0.37207677449646903,0.36018166306274313,0.3497695695192048,0.33971686729753625,0.3292677287527596,0.31813729393468887,0.30641248285556205,0.2946650901629851,0.28343904026385,0.27319642427854085,0.2641978133729087,0.2563396010420821,0.24957017233946951,0.2434313493106295,0.23738609762827736,0.2309878510329628,0.22387207678220636,0.2164558848944962,0.20916167073067338,0.20266139678253225,0.19777788869301688,0.19511132524611877,0.19564752693730636,0.19951866475284094,0.2062921401309732,0.21499237219339115,0.22393940785876285,0.2319195893520704,0.23707031534677603,0.2376248709917549,0.23220685569376545,0.2197528272633799,0.20086785704902932,0.1762758709448377,0.14736696251555842,0.11610342784688273,0.08449659988780547,0.05548758513640667,0.031030952100404664,0.012388002585287196,2.7172798862133325e-19,-0.006815538082193474,-0.008557522115812512,-0.0068346574714654995,-0.003449247363510006,-5.945844465527306e-19,0.002167627268131,0.003049074481167589,0.0026869979302496776,0.0014800909373048083,2.636529623126993e-19,-0.0013982143714677073,-0.0020006317847673146,-0.0017749096889747287,-0.0009759504566120764,-4.695423251170632e-19,0.0006148031690001469,0.0009408168985620274,0.0008915264129984602,0.0005226956968366466,2.5266830197756925e-19,-0.0006063306625653127,-0.0008774778709297847,-0.0007842982312585727,-0.00043294217079266513,-3.7455929444807725e-19,0.0002259708856139689,0.0003609464723591969,0.00035454227866103523,0.000214154109583481,1.9317088354285576e-19,-0.0003031135503787477,-0.0004304046488840577,-0.00037617226560824517,-0.0002022963585939008,-2.578935917581705e-19,4.045555301644173e-05,8.248057449275524e-05,9.59154341053294e-05,6.556187112381152e-05,9.805796270753139e-20,-0.00019212788964942883,-0.00025682939931056907,-0.00020878876865363776,-0.00010279433936064254,-1.661502355893891e-19,0.0,0.0,0.0,0.0,0.0,0.0,0.0,0.0,0.0,0.0,0.0,0.0,0.0,0.0,0.0,0.0,0.0,0.0,0.0,0.0,0.0,0.0,0.0,0.0,0.0,0.0,0.0,0.0,0.0,0.0,0.0,0.0,0.0,0.0
0.6132213894235541,0.6736006125840525,0.6919894712379661,0.676625285081942,0.6419620236266004,0.6040552891612496,0.5756925306120105,0.5637894665774507,0.5678539550843288,0.5813967614064004,0.5948891888989454,0.5990477942054767,0.588476163370121,0.562566293661945,0.5253030132039775,0.48348298169770726,0.44399491527462814,0.4123784663516804,0.39090421804933,0.37858444015415044,0.37207677449646903,0.3668862672781485,0.3597210630267424,0.34883722970853603,0.3344275261452522,0.31813729393468887,0.301868701158413,0.2877790886496214,0.2769651080984701,0.26941758672123106,0.2641978133729087,0.2595526244362391,0.2543795974622459,0.24789224668137544,0.23995231202885428,0.2309878510329628,0.22146679580124135,0.21255200020302567,0.20519613528304645,0.2001379067614943,0.19777788869301688,0.19782867290088466,0.2001766928507172,0.2042933124884798,0.2094830362073854,0.21499237219339115,0.21981701508273882,0.22379089644858505,0.22693014176023069,0.22956959778229644,0.23220685569376545,0.23462317065066401,0.23798267240933188,0.2423396189559896,0.24743532999610937,0.2528284216413209,0.2576972707086274,0.26230765520701504,0.26644509682352047,0.2700862087035835,0.27344998758887634,0.2769207247597129,0.2813009848613311,0.28672575533663186,0.29301719121670294,0.2997618218768779,0.30633333791983336,0.312594362554847,0.3180899703217729,0.32256505024984955,0.32607365616487943,0.32879454110549716,0.33164316752969564,0.33512778689624195,0.33951886901835754,0.34474940915470964,0.35015241823568233,0.3554374793158775,0.3598324140258573,0.36263882018065474,0.36342516214453985,0.3618113384136479,0.3585046687732377,0.35408156888321224,0.34915198669029385,0.3441963541388642,0.33911541924813016,0.3344359587055396,0.3302928672955959,0.3269548401898668,0.3249675461331885,0.32477396425190075,0.3278837577042242,0.33536161075935805,0.3477375007182282,0.36452947450483025,0.38338687722245446,0.40150546916567725,0.4144264070077947,0.41697900312893715,0.404091402876472,0.3711929702795033,0.3169377095543905,0.24230606369433308,0.1513205106898539,0.050734865459666836,-0.0514449062733209,-0.145290779659843,-0.22217779617469077,-0.27568178071185173,-0.30262167195713835,-0.3041731872433455,-0.2834866266404207,-0.24668666075292217,-0.20102453219291397,-0.15348682724903487,-0.11024963375900838,-0.07391759026493211,-0.04521995481852551,-0.02286597681445332,-0.004351982540931391,0.012479436920954354,0.03052920367870766,0.051090653605247116,0.07424565383600205,0.09907001719789744,0.12353567396785019,0.14677317842779522,0.16780055956033244,0.1862754536391736,0.20249201693672628,0.21670345335914462,0.23037632398001695,0.2443016698187928,0.25888746874887897,0.27410617183267,0.2891733820281078,0.3041071340751625,0.318536116591574,0.332336252621845,0.34572032672861375,0.3588404661229445,0.3727874831491551,0.38810215605667675,0.4049566068441833,0.42303476039091287,0.44119705237691303,0.4588728887628229,0.475024116173442,0.4889087924529503,0.500349194053212,0.5094582830010301,0.5177744933970584,0.5265355244132357,0.5367300413137643,0.5487278136839472,0.5618783442187586,0.5750732183900211,0.5865317021329972,0.5943716886071098,0.5971064333146823,0.5940634201497673,0.5854201906223121,0.5725667285030558,0.5575140894313393,0.5423187099180953,0.52852950048792,0.5167307003240057,0.5066834486260593,0.4974029931779653,0.4875309865215083,0.4757890784218227,0.4613634784266097,0.4441421368077052,0.4247186442289377,0.40420004700900425,0.38383756905852084,0.36487973945128843,0.3480465312843141,0.3334974967962877,0.32086910749650027,0.3093339818813982,0.2982339200751416,0.28679584848313683,0.2745271123563814,0.2613456932067881,0.24745666759344162,0.23380271893479604,0.22118708790820862,0.2103505120478365,0.2018222789170759,0.19563411062906516,0.1919570493239331,0.1902383392640304,0.189657486950879,0.18933249558002552,0.18830711329702615,0.18654056815915654,0.18388747215575255,0.1805105576930883,0.17684271224297515,0.1732161668036378,0.1706893081471538,0.16958827667409435,0.16988875039142426,0.17122499414248946,0.1726637088188182,0.17387168592348448,0.17379962548856986,0.17135561216011047,0.16560727604200376,0.15564942148236252,0.14190504119383618,0.12463988905790667,0.10455825021061951,0.08280363802100188,0.06057948537598156,0.04001957819264791,0.02252441882325708,0.00905181141567196,2.40400771304558e-19,-0.005070258802271119,-0.006401707269845746,-0.005138117610121239,-0.0026042542247359636,-5.017082954024457e-19,0.001629172268718602,0.0023034378083990675,0.002039780479818262,0.0011286742729349417,2.2515513528424357e-19,-0.0010926176951023634,-0.0015628563143760977,-0.001385432420773261,-0.0007608700259049746,-3.946214650933715e-19,0.00047032284756657813,0.0007205438950991911,0.0006834149866136352,0.000400964428550418,2.0275906048980643e-19,-0.00046501146469092374,-0.0006732495856203811,-0.0006019705886605841,-0.0003323863594013477,-2.946562936205364e-19,0.0001673952224198643,0.00027013553790633743,0.00026763883997494436,0.00016283724141691889,1.5288083050400267e-19,-0.00024578957642891323,-0.0003465445043860502,-0.0003004621398663078,-0.00016011902745071416,-2.095353120077825e-19,2.8852438123796846e-05,5.8824203218783345e-05,6.840579157369115e-05,4.6757977306881255e-05,6.993381849000533e-20,-0.00013702341544343506,-0.00018316779278653052,-0.00014890576396457968,-7.331174819620283e-05,-1.1849644941570383e-19,0.0,0.0,0.0,0.0,0.0,0.0,0.0,0.0,0.0,0.0,0.0,0.0,0.0,0.0,0.0,0.0,0.0,0.0,0.0,0.0,0.0,0.0,0.0,0.0,0.0,0.0,0.0,0.0,0.0,0.0,0.0,0.0,0.0,0.0
0.5971064333146823,0.6513569192459051,0.6621663121523811,0.6376063280804383,0.5921818167242394,0.5423187099180953,0.5016074263985397,0.4779083552026476,0.47184457823579445,0.4779710153563098,0.4875309865215083,0.491680971430476,0.4847695222352125,0.46548971195224764,0.43676901731185275,0.40420004700900425,0.37365879944699015,0.3497130903759318,0.3340639019403675,0.325522067805544,0.32086910749650027,0.316090634395314,0.3082331939534271,0.2959330319016203,0.27968139085205507,0.2613456932067881,0.24312603369909394,0.2272823917896431,0.21510640103080048,0.20683609977534956,0.2018222789170759,0.19868859284001392,0.19645537382561803,0.1943344434425914,0.19196508239802257,0.18933249558002552,0.1863943044815979,0.18350958876358023,0.18088656088492772,0.17865127896924574,0.17684271224297515,0.17525673499003686,0.1739583295333167,0.1729048651820098,0.17202797375582918,0.17122499414248946,0.17020860371824842,0.16903657919582118,0.16777235561556955,0.16656837074677994,0.16560727604200376,0.1645491092361612,0.1641266311311374,0.16421001065336877,0.16452160977853938,0.16476998585987152,0.16447978488816445,0.16415742062074917,0.16386725181253262,0.16373395659351028,0.16393269567773927,0.1645377362187937,0.16599630683408295,0.1681419623306962,0.17061777360627303,0.17301715247344576,0.17488410858609785,0.17648771863645193,0.1779549334114585,0.17964148943910113,0.18210160926915225,0.18576871386496024,0.1915402092250469,0.19966396231254713,0.20993389251813738,0.2216672223248335,0.23349576409962522,0.24450242304035655,0.2534238574943797,0.25921300700203825,0.2612328353805147,0.25899074924705723,0.25330718430823695,0.24508293669164358,0.2354311112711673,0.22544492864879037,0.21555760529139836,0.20680407510131452,0.1995398143323832,0.19385302888658557,0.18965702191706602,0.18628777945908703,0.18417534526001525,0.18346100897155038,0.18429456723315318,0.18663574850469353,0.18943233316618355,0.19224667524901606,0.19360892833363946,0.1915077029907371,0.18361447509232107,0.16702263048281912,0.14082220233781756,0.10488593837225853,0.060667585165294725,0.011205994350470398,-0.039939975479547266,-0.08713726911341184,-0.1253918370601516,-0.15077379827619408,-0.16120248639138027,-0.15763551550647306,-0.14162102230942164,-0.11672690221953239,-0.0871845268493327,-0.0570044163057783,-0.029949835454363194,-0.006847198041089585,0.012588283983960603,0.029895276153652433,0.04719365377982368,0.06575649453715722,0.08750095029100811,0.11287085717262388,0.14129548988863455,0.1714110023042909,0.20084938544419048,0.22860474431921177,0.2537175451145322,0.2759297423889011,0.29562835082875805,0.31306912626925565,0.32978127705161353,0.34666845418511455,0.36425150759877417,0.3825759770112982,0.40083319722238997,0.4189384565874574,0.4364698532423733,0.45326496201312716,0.4695236031938384,0.4854334289845193,0.5020556767880262,0.5200444423365027,0.5396827116006065,0.560704378642392,0.5820053651997548,0.6027299876104024,0.6217157595201971,0.6381522737380757,0.6518851540909456,0.663294916467431,0.6738824722971452,0.6851153927173699,0.6981612322277597,0.713421443005205,0.7301697025085077,0.7468712643323364,0.7613125752655707,0.7712348572138441,0.7749577319194646,0.7718966885982743,0.7625677515255254,0.7487208578984416,0.7327097948263274,0.7168164722918543,0.7026343556474077,0.6906455079721995,0.6802811946972602,0.6701756667408023,0.6586752126642439,0.6443704621800904,0.6266200982712183,0.6056119726824789,0.5823115112357481,0.5581406834608673,0.5344576107648198,0.5124920604672837,0.49264676317161127,0.4746245599697169,0.45760615425749074,0.4404021782059027,0.422368325509198,0.40290799477823536,0.38191229808378147,0.35979152467997705,0.33716272034023803,0.31538507640559094,0.2953151574868614,0.27747530550714866,0.2619768951024633,0.24829855738404571,0.2363172092179372,0.2252567123822204,0.2143472399437848,0.20304765326845925,0.1908878915637302,0.17858162760139462,0.1664668294979468,0.15489452290781885,0.1441184114344552,0.13387405909754724,0.12463698991367576,0.11598451767263206,0.10737313649642871,0.09837503844928641,0.08848922173868426,0.0786073329459755,0.06909337426317555,0.06033405502488813,0.05263166546411764,0.04570267293981379,0.04015293984492435,0.03550187233090383,0.03108285218149434,0.02631583273205882,0.020562284337807976,0.01463928627298889,0.008917266156380624,0.0038797237735467252,4.754158611545448e-19,-0.0027369194594154167,-0.0036407510212253134,-0.0030495892912603016,-0.0015996679739095532,-7.707090635435767e-19,0.0008964776886445638,0.001332974810986754,0.0012358582757358181,0.0007125974422727752,3.3321847788310923e-19,-0.0008621450940173988,-0.001223692569142207,-0.0010720955493395323,-0.000579637193011334,-5.117403131528768e-19,0.0002564498125196904,0.0004093282941346762,0.00040221749288327593,0.0002432269915952517,1.8949772075424022e-19,-0.00036428024150013817,-0.0005129140295194408,-0.00044429008332768857,-0.00023665752831319558,-2.792635634740897e-19,6.851679998940132e-05,0.0001170798349680891,0.000121372941359998,7.657374940219845e-05,8.571287089681264e-20,-0.00015085609421780803,-0.00020737371508689205,-0.00017453957506451142,-8.980648611173686e-05,-1.2949870372628077e-19,9.16959633325935e-06,1.869492608657496e-05,2.1740051668994934e-05,1.4860157586134053e-05,2.2225674060726206e-20,-4.354742578182694e-05,-5.8212575100241054e-05,-4.732375618976334e-05,-2.3299214248735803e-05,-3.765936879941934e-20,0.0,0.0,0.0,0.0,0.0,0.0,0.0,0.0,0.0,0.0,0.0,0.0,0.0,0.0,0.0,0.0,0.0,0.0,0.0,0.0,0.0,0.0,0.0,0.0,0.0,0.0,0.0,0.0,0.0,0.0,0.0,0.0,0.0,0.0
0.7749577319194646,0.846635757204946,0.8626919821064938,0.833571357117057,0.7779324918170584,0.7168164722918543,0.6676996347013535,0.6403176883567877,0.6351753397393937,0.6450588620209567,0.6586752126642439,0.6650300663683465,0.657044156732597,0.6333604748572433,0.5979780912991516,0.5581406834608673,0.5214499737585309,0.4931990681478,0.47496082677269197,0.46460735744833626,0.45760615425749074,0.4489879901405898,0.43503677178178957,0.41444886793949853,0.3884024116929235,0.35979152467997705,0.332046730863229,0.30784587517572015,0.2884660100428819,0.2736408879002205,0.2619768951024633,0.2516920694213456,0.24118348570940512,0.22955133353447213,0.21667875930208022,0.20304765326845925,0.18940725210817327,0.1764427257991393,0.16456659092350445,0.1538569797660944,0.1441184114344552,0.13496647026540756,0.126056364469471,0.1170897558445284,0.10788108879215114,0.09837503844928641,0.08861973092614794,0.0788461089375364,0.06936839956715772,0.06053450491266985,0.05263166546411764,0.045368962618067485,0.03942276563346664,0.03439591366275859,0.02970714785282855,0.02483057854081449,0.0191063804003984,0.013264053121439408,0.007490726374152556,0.0020156758076753413,-0.002970508382488659,-0.0077319236825843,-0.011733081568012633,-0.015312544062092833,-0.018924171472490328,-0.022920468106879494,-0.02779068133515309,-0.03266066989530944,-0.03708143699670459,-0.04059125593806123,-0.042870427831270326,-0.04434218382017079,-0.0446201359892186,-0.04416832441756356,-0.04358065234764027,-0.043360166932893955,-0.04423356649491521,-0.04541206942321769,-0.04627335348158605,-0.04600898413871511,-0.043849906034517584,-0.039825977482663796,-0.03323139173540074,-0.02424841628309177,-0.013443202670418842,-0.00165683174027378,0.009553599195808277,0.019869686535880907,0.02870461390341881,0.035670853212629215,0.04053624255397003,0.0425424712502095,0.04233391870334725,0.040340587121706975,0.037198833862532706,0.03366428696362504,0.029828785550246234,0.026900960864432884,0.025432646842841387,0.025544598890716728,0.026792331373280086,0.027531624777764586,0.027089318925226497,0.024561642421137106,0.019544773449802197,0.01235369804361677,0.003518492916812204,-0.0046825953604346954,-0.00983801411129314,-0.009570325156255742,-0.002084935286046541,0.012926868941375146,0.03545149345360602,0.0641740053659333,0.09699592191990287,0.1314287984708902,0.16471795099272912,0.19522245754835263,0.2219914682377231,0.24499167603267458,0.26494253222782693,0.2828041788372519,0.2999529392771445,0.3174586018098072,0.335907570501251,0.35529705348671903,0.37498861909710934,0.3942997370322409,0.41260098092287106,0.4296342005934768,0.44565157474561107,0.46131300287035487,0.4776119496635111,0.49546312021650063,0.5153392157542644,0.5370095312843226,0.5594378528114808,0.581158495221245,0.6005679351729764,0.6164472622243259,0.6283674878230342,0.636808734470623,0.6432066852810703,0.6493464668200142,0.656826047688541,0.6664785055359292,0.6779693198095095,0.6898690280318359,0.6998728515928875,0.705456297870212,0.7045895232488244,0.6963224693659654,0.6810983101474797,0.6605924876111973,0.6372671130120732,0.6136918977764109,0.5918453812849851,0.5726511810534963,0.5557697281298846,0.5398060793257712,0.5227942723039976,0.502804556501058,0.4785572354675435,0.44976858654231316,0.41723883064469874,0.3826420013245384,0.3480276854487554,0.31559298106822986,0.2868689433269638,0.26256115040556044,0.24248973034507926,0.2256041567444092,0.21081367369582782,0.1966817188973864,0.18205216813168812,0.16633743059526274,0.14944910022686322,0.1324194604909148,0.11624434030060407,0.10192134329029062,0.09018513084544619,0.08108883129704061,0.07481944930128274,0.07062443272242769,0.06746252600759788,0.06432212720457174,0.060217840137644425,0.055397287678039364,0.049941607901466636,0.04416320936640656,0.03845912356369729,0.03282105564619286,0.027952749438981288,0.023616770636205302,0.019352471579889625,0.014720830141513912,0.009187754976631494,0.0035652262086628295,-0.0017252148447550008,-0.006116148972030753,-0.009017463280669463,-0.010340115318006276,-0.009248774843853797,-0.006054150818980672,-0.0014662820442463745,0.0036266236203812987,0.008075801220740503,0.011857915499792624,0.014567343127825223,0.016023075038292117,0.01627071052143206,0.015257651997024755,0.013778269763429007,0.012039700778227993,0.010141349048772948,0.00813535526071603,0.005891724527202224,0.003886603875990352,0.002207026255200773,0.0009039115130966488,1.4401012624990637e-19,-0.0006361053635923252,-0.0008161082363810372,-0.0006587125071023671,-0.0003322675884109487,-2.2516332233939424e-19,0.00013954368258213627,0.00020234525234517854,0.00018401513559213425,0.00010455033716268934,5.0267916052893143e-20,-0.00013650669383566215,-0.00018938004236354307,-0.00016183328005415213,-8.512212565466406e-05,-8.026167204420744e-20,2.768750279774339e-05,4.437042432926352e-05,4.382891005861716e-05,2.666094232201338e-05,1.5325428796505872e-20,-4.5249482021555645e-05,-6.269561565045128e-05,-5.335147533188061e-05,-2.7862487802525246e-05,-2.9052869550858045e-20,1.1848298625053097e-05,1.716595062468211e-05,1.5393681107029385e-05,8.546962255462685e-06,3.875333921058884e-21,-2.3117545520496725e-06,-4.856992615052391e-06,-5.789633248553727e-06,-4.048153296868342e-06,-1.702372000332314e-21,2.83471644344153e-06,5.779405380618417e-06,6.720784613368356e-06,4.5939135737912425e-06,6.870911372400366e-21,-1.3462381488435235e-05,-1.7996009622930997e-05,-1.4629807568514434e-05,-7.202788797866533e-06,-1.1642129937403361e-20,0.0,0.0,0.0,0.0,0.0,0.0,0.0,0.0,0.0,0.0,0.0,0.0,0.0,0.0,0.0,0.0,0.0,0.0,0.0,0.0,0.0,0.0,0.0,0.0,0.0,0.0,0.0,0.0,0.0,0.0,0.0,0.0,0.0,0.0
0.7045895232488244,0.7652419650677577,0.7733155526698472,0.7386578310928438,0.678832668478269,0.6136918977764109,0.5598233550069863,0.5265442997059812,0.5144657362752705,0.5168151349395482,0.5227942723039976,0.5216791167579987,0.5063534302160269,0.4751223807590403,0.4315551503670518,0.3826420013245384,0.336098335536981,0.2978858120420614,0.27062060741336225,0.2533465150618446,0.24248973034507926,0.23347715313023532,0.22243278520307772,0.20726820857072312,0.18800588614683797,0.16633743059526274,0.14470410304151793,0.12539889189981845,0.10983481006102973,0.09831112938607277,0.09018513084544619,0.08427218556180427,0.07939725740703715,0.07467730689030008,0.06967065207138551,0.06432212720457174,0.058766157542833375,0.05326563721871187,0.04800983910362149,0.043082499360014716,0.03845912356369729,0.03398127482001038,0.029522679025022012,0.024913635918470376,0.020004930112936383,0.014720830141513912,0.009055982496332238,0.0033218085909764617,-0.0020028915830047865,-0.006311808437090722,-0.009017463280669463,-0.010171495583288722,-0.008953226230103138,-0.005731420368841923,-0.001246123926232501,0.003626623620381299,0.007661171841588392,0.011056002149926523,0.013596077980731976,0.015282077057931468,0.01627071052143206,0.01632401658193991,0.01628755118874063,0.01627019414118776,0.016254838822837632,0.016181164774546036,0.01566465509514877,0.01526704389910743,0.015129403535634248,0.015379447369603998,0.01609161902766001,0.016986612084922536,0.018311071162855422,0.019916136080339212,0.021614675332913513,0.023250109450859764,0.024532722803260788,0.02575681203622514,0.027056151337470278,0.028574845463417084,0.03040859987405952,0.03239902719155124,0.03463883998284091,0.03700445224229526,0.03935206879020447,0.04157382904847336,0.04370447384904273,0.04577848106602732,0.0478797193762741,0.05014180865974056,0.05273905822288721,0.056147273457580596,0.060256666136939314,0.0649274439997534,0.06987478025028084,0.0747583008918803,0.07946024028867299,0.08376918914410311,0.08779217550764588,0.09191793429946331,0.09677754356087341,0.10313027622565632,0.11162027042628918,0.12260188053651074,0.13594670913614046,0.1509646834119387,0.1663325304521364,0.18068421828041273,0.19259556984951196,0.2009493916627803,0.20515182326300396,0.20494957410521208,0.20121393303649032,0.1951077352242872,0.18795376892229135,0.18090666824110563,0.17430760688888242,0.16873439034857868,0.1641451736592903,0.16024375052993492,0.1566615132192073,0.15263940816407534,0.14864555808473193,0.14522169583412434,0.1430695020241352,0.1426817479816809,0.14332322545672393,0.1444863064436208,0.14435041921351202,0.14019113619410292,0.12870198274415456,0.10589339723404233,0.0699753794601979,0.02051940577523833,-0.040634957343172455,-0.10934219343754333,-0.18040511051451863,-0.24610841312968132,-0.2992705308499538,-0.33410820909741096,-0.3473863696192412,-0.3399454967029662,-0.3140052577806209,-0.2745228943891725,-0.22755958974542392,-0.17905661321510938,-0.1346221187526439,-0.09621497797539232,-0.06403461459027535,-0.03642129177188491,-0.010726856810977575,0.014832464353926881,0.042913159942413535,0.07450652473313243,0.10935538176857691,0.14616402471554743,0.18228298265091178,0.21662931042052797,0.24820282262761187,0.276825413635528,0.3030549062420725,0.32718611821122773,0.3510098521558295,0.3755807844568414,0.4014495393744821,0.42852998672701875,0.4557690726611127,0.48260991585468527,0.5081891386221463,0.5319833026526462,0.554005067211965,0.5747295582757178,0.5952137778161889,0.6163647943787156,0.6387463241268749,0.6623499963082946,0.6864877508856241,0.7102658997102534,0.7325879818526406,0.7527305205453536,0.7706949254046241,0.7872463950789965,0.8039560295650426,0.8223814286924159,0.8435855092717192,0.8676281343890815,0.8933928978732061,0.9185327919619299,0.9402896295346177,0.9561461604239071,0.9645613433735388,0.9656260208721865,0.9604212642161088,0.9514911673919622,0.9417182034308217,0.9334030956130511,0.9276427039815132,0.9237047684457768,0.9197463007700065,0.9133215460218324,0.9022448478525634,0.8853673768981541,0.8629770187772319,0.8367524265707599,0.8091988458873659,0.7827822180848797,0.7589448234196658,0.7377247819942901,0.7171622147065414,0.6937663382557115,0.6633195883171958,0.6217873105969274,0.5669752478477182,0.4985373931395056,0.4186140016522056,0.3316597941585979,0.24353409789787256,0.1612891637692931,0.0908715790876252,0.0364960063318262,1.121982302162018e-19,-0.019609611469586907,-0.024735551064611686,-0.019882763247094475,-0.010117598953272935,-8.067006586336397e-19,0.006903402506602818,0.009739469778642339,0.008600415614891582,0.004743597543801135,7.981572721009896e-19,-0.0042690554498178174,-0.006171349973636397,-0.005535490724362265,-0.0030792577580769764,-1.362894350515796e-18,0.0020709704997530654,0.0031842965973317393,0.0030297132236213452,0.001782324034611411,9.696558791146963e-19,-0.0021082528705456335,-0.003046126676756619,-0.002717194831349491,-0.0014962998205770442,-1.3891565900223197e-18,0.0007042666667638731,0.0011508767624372378,0.001152096411028195,0.0007069772940329544,6.942366014064512e-19,-0.0011449318580281265,-0.0016025275620691812,-0.0013778301041920966,-0.0007271838036812888,-9.78025118706764e-19,0.00011556489446375618,0.00023561311552684327,0.0002739909899469879,0.00018728333077514447,2.8011131394054294e-19,-0.0005488304481181279,-0.000733656079659897,-0.0005964237345827154,-0.0002936411961753731,-4.746229629641281e-19,0.0,0.0,0.0,0.0,0.0,0.0,0.0,0.0,0.0,0.0,0.0,0.0,0.0,0.0,0.0,0.0,0.0,0.0,0.0,0.0,0.0,0.0,0.0,0.0,0.0,0.0,0.0,0.0,0.0,0.0,0.0,0.0,0.0,0.0
0.9645613433735388,1.0582644069502916,1.084955767059096,1.0574331024641543,0.9984255664093102,0.9334030956130511,0.8831988624741137,0.8591946185795651,0.8613996134856214,0.8804653600354431,0.9022448478525634,0.9131499607731554,0.9047873803363881,0.8759611704683095,0.8321493644614185,0.7827822180848797,0.7375265159854959,0.7031426678258171,0.6816109188390788,0.6702382505868569,0.6633195883171958,0.6545620789741583,0.6393780097782568,0.6161783538375034,0.5864537291973515,0.5537754143926082,0.5222445152073902,0.49504443790353214,0.4735503202515633,0.45723335876769733,0.44423124046802065,0.4322590997147122,0.41945560344254973,0.4049045065963699,0.3886981714989485,0.3716351090941239,0.3547551022902787,0.3388831976938236,0.3244063141123127,0.31125192377288874,0.2990389777202272,0.2873035362623905,0.27563389262698273,0.2637893127838086,0.25169642691404986,0.23940506855026192,0.22704392478540567,0.2147584398963951,0.2027037884359161,0.1910150024445542,0.17977115938029667,0.16846199341341156,0.1578675939553525,0.14760178245901498,0.13717564480911895,0.12624457119715893,0.11429665507196905,0.10256097616239639,0.09147471228996691,0.08143688500070662,0.07271798301402119,0.06489541882156606,0.058655079454676184,0.0534561120710378,0.04857314523871849,0.04337945785326517,0.03712517787980436,0.0306952851549196,0.024427239296612006,0.01874560571002414,0.014040932692509162,0.010138579855311698,0.007718298578231499,0.006447262820763824,0.005761301433545603,0.0050805677545481265,0.00362600883553207,0.001872176751587698,-9.543514762332879e-05,-0.0020840821876213843,-0.003879797183412905,-0.00568127955289129,-0.006959653562989372,-0.007862325339474981,-0.008657160707159328,-0.009596569477130706,-0.011086451748285117,-0.012626343475386624,-0.014005629060369094,-0.0149728545059356,-0.015313341770848506,-0.015153912130367118,-0.014194527189038615,-0.012642780071722495,-0.010817934014644034,-0.00903305276533529,-0.007863226407727488,-0.006885433952049605,-0.005881988068114397,-0.0045747469764504875,-0.002752763759822071,-0.0008969504003469818,0.0013804967204914189,0.003949207452929846,0.006625326268976001,0.00924098623430084,0.0115222805821588,0.013691753976883063,0.015888932607288738,0.01832321538134395,0.021234736228423756,0.025006723387190847,0.029660631200390804,0.035086554384740135,0.04102170487279579,0.047125218448586983,0.05313445249702031,0.05878537658938082,0.06394618202845222,0.06863602367119279,0.0730157006687502,0.07730266925199247,0.08182211698400582,0.08681693198008651,0.09240405702508896,0.09852461466779042,0.10479816239352638,0.1109437849301912,0.11652053604175787,0.12104717673969544,0.12403352866683061,0.1247861730071844,0.12312596280920009,0.11894945834176948,0.11242093440333994,0.10404539134955286,0.09442863054326123,0.08529836614715529,0.07879217415533263,0.0774821490634778,0.0840572540322751,0.1004572389366816,0.12859165053309282,0.16890850396799809,0.22016684467574618,0.27916134737213555,0.34023026812191354,0.3971848278713682,0.4428848199407157,0.47045152902717813,0.474265440711996,0.45028512264324466,0.39860545279967524,0.32239562709074104,0.22801095583013262,0.12419385145668098,0.020164693343852323,-0.07378836989370477,-0.14928679200179878,-0.20069187711674705,-0.22587773779863404,-0.22711465065598174,-0.20830395111810587,-0.17562100558349605,-0.13580342774005824,-0.0949419726335602,-0.05795370774416645,-0.02691674846875255,-0.00203281043472119,0.01815369757172841,0.035993792531513615,0.053863918406540125,0.07361871090271045,0.09600474844418759,0.12069185965611524,0.14655706182533917,0.17211347306366062,0.19622062541667598,0.21822919664655008,0.2382572669054177,0.25712033111916466,0.2759718283645895,0.29612646537128806,0.3183281409768663,0.342606643597639,0.3682566475896491,0.3940060285415816,0.4186233029981191,0.44110905563590636,0.461171999153604,0.4793929640601335,0.49704978380340714,0.5158742346008218,0.5372641406920009,0.5618187828495699,0.5890146537990327,0.6170874112370837,0.6439912864388918,0.6673750371313265,0.6856490499226416,0.6986363435379319,0.7075634168403725,0.7156866823894277,0.7262496937177716,0.7418421675986604,0.7633481821570286,0.7891443760260595,0.8151711632952733,0.8351181732507131,0.8416754895017804,0.8280600207761253,0.7896850725088332,0.7249170655303072,0.6362152962938192,0.5296739657900373,0.41403001038806264,0.2992205904095469,0.19453741244479325,0.107393121981717,0.042207212191793804,-5.101732870804347e-19,-0.021380463225239052,-0.026399116890243324,-0.020805413513480094,-0.01039928581793928,8.00720973875518e-20,0.007150218317510552,0.009896700792714264,0.00858060827593208,0.004651582688288986,2.6858527293102493e-19,-0.00381536295992815,-0.0055178025979601,-0.0049614913836706215,-0.002771821331669932,-6.745987171515543e-19,0.0021063112891077426,0.0031823024663515873,0.002980268023065053,0.0017287699491534934,7.024743314265845e-19,-0.0017753311547509115,-0.002611248550478954,-0.002375083709121503,-0.0013357544452998072,-1.0012543055459564e-18,0.0008046639675865375,0.0012847896980567918,0.0012615673963412375,0.0007618059834965905,6.860484484877668e-19,-0.0010754155418029885,-0.001527488780850008,-0.0013354691572235677,-0.000718454690363328,-9.149029298277554e-19,0.0001442663093267312,0.00029412941329419744,0.000342038722847848,0.00023379656127165175,3.496790755564375e-19,-0.0006851366374151832,-0.0009158651112760389,-0.0007445500762353023,-0.00036656920628948996,-5.924991625378681e-19,0.0,0.0,0.0,0.0,0.0,0.0,0.0,0.0,0.0,0.0,0.0,0.0,0.0,0.0,0.0,0.0,0.0,0.0,0.0,0.0,0.0,0.0,0.0,0.0,0.0,0.0,0.0,0.0,0.0,0.0,0.0,0.0,0.0,0.0
0.8280600207761253,0.9080210467803903,0.9296235536505976,0.9036244940200325,0.849519466638758,0.7894272409469996,0.7414530827409501,0.7163530072860332,0.7150722321175569,0.7304265675948862,0.7507944611178741,0.7642378255261921,0.7634219577131953,0.7466931032448784,0.717969102235543,0.6845782813910042,0.6539088432074233,0.6317702117209302,0.6200818774456227,0.6170419841562839,0.6183621016641344,0.6188256964502086,0.6150300201771214,0.605705234212797,0.591936378652499,0.5763375301859058,0.5615214569546844,0.5498207798423019,0.5419971392791283,0.5373734459100115,0.5343129587076773,0.5306958363459445,0.5253358750730481,0.5177911206219206,0.5084876652921417,0.4983943278431578,0.48836510801254834,0.47942022400943096,0.47207790239076064,0.46647432555500895,0.4624756969786383,0.45963667269798636,0.4578425016974059,0.45691705385951564,0.45667167289097965,0.4568341145706791,0.4568523338915977,0.4564613469513419,0.4553990130075296,0.45359383546919785,0.45119253216271976,0.4479205296891393,0.44508998992077253,0.4429581915466618,0.4415330975879047,0.4406081718776494,0.4392648399284523,0.4379729088527939,0.43627366789811506,0.4337220933105437,0.430023811592579,0.4245743926435916,0.41838522184737764,0.4117364361029737,0.40490220128482046,0.39812055251520595,0.39104122728113827,0.38450879147451444,0.3784075266859136,0.37243546413219236,0.3662172934378329,0.35892939000206825,0.35110639376845704,0.3427035983245571,0.33379767209749794,0.3245996619143661,0.3149683797515611,0.3058955828986903,0.2975831041013056,0.29001460747062524,0.28298203039089936,0.2757498075234792,0.2685662664830498,0.26109744766052384,0.25311137282960255,0.24458610019197805,0.23530337983076427,0.22633961109054404,0.21823670910278856,0.21143901384186173,0.20619016999305673,0.20197998887442944,0.19919290467851455,0.19741080650399054,0.1961075456347524,0.1948013630280735,0.19297512266274536,0.19090453865558413,0.18856205010204702,0.18601205854498448,0.1834125560630903,0.1810870098414754,0.17937212805382063,0.1781492862937273,0.17712862012098413,0.17598922304527304,0.17448426672692277,0.17286345431049538,0.17118659493772714,0.16964726218042103,0.16856589002745578,0.16814036941968163,0.16907193787883232,0.1714231218182573,0.1749562822858109,0.17918453438069212,0.18320574014754004,0.18679802700538697,0.189364479072435,0.19044699634861276,0.18980317873392843,0.18706407945516537,0.1828923930626334,0.1775856137286475,0.1714470520914811,0.16477462296907425,0.15747280795763985,0.15051351347321654,0.14459774662949187,0.14064074803309015,0.13974606720422003,0.142588876724883,0.15076583561430326,0.16497786574044437,0.18513188783289644,0.21002195627181716,0.2365727910724824,0.26162046511505443,0.2805717259239797,0.2883862627434883,0.28029784533941426,0.2520283216244275,0.20257443433653793,0.1331195948700479,0.04772960277738872,-0.04695354589412538,-0.143203490918115,-0.23133335706760652,-0.30290098204756327,-0.35158016797212654,-0.37420493712766506,-0.37195133025356775,-0.3478805674711857,-0.3079451849286335,-0.2592139440389199,-0.20852912225348286,-0.16204180073720623,-0.12239084797069476,-0.09032268894812362,-0.06460731878018157,-0.04285330737930064,-0.023098349791028774,-0.002635157917411567,0.01980948865173323,0.044404402776194805,0.07039795116247562,0.09615272001413147,0.12080645391604884,0.1435915002528874,0.16437550164598277,0.18364920970425186,0.20221193169841956,0.22121289493229485,0.24132697289797297,0.26272107288482793,0.2850291870724134,0.3074186276154452,0.3291915183376754,0.34967330762663984,0.36863265314206417,0.386409164440575,0.40376847117196907,0.42191541115905234,0.44175763511624255,0.46368198551144757,0.4873468432348191,0.511590139571384,0.5351023753189652,0.5563222925169031,0.5741372540430328,0.5882845220290631,0.5993420238412703,0.6090819411726589,0.6192567939550887,0.631254746763046,0.645576937151979,0.6615900902962414,0.677526848207733,0.6910652571485486,0.6999812770687801,0.7028693522748949,0.6998428077337058,0.6919008457190526,0.6815287765172472,0.6715581048220942,0.664175178996647,0.6601597395899164,0.6579990432983537,0.6545049322470297,0.6452324678610739,0.6254810057183989,0.5914687763844274,0.5412643294229859,0.475524613676544,0.39753733313764306,0.31274050285919947,0.22776041405268932,0.14939082130184445,0.08326964448101982,0.03306189223148191,-2.2646727808989365e-19,-0.017186691259924353,-0.021440261885777204,-0.017061848105824486,-0.008605202264259301,-2.299163880135642e-19,0.005926967062603684,0.008279050517841946,0.007241424237780819,0.003958355435467541,4.268242609491621e-19,-0.0033796849074359623,-0.0048921143667368,-0.004398668814415231,-0.0024551822138420103,-8.256012661287537e-19,0.001774876511776196,0.002703377692301112,0.0025503934873692905,0.0014891091470625789,7.0883673319291455e-19,-0.0016333446779224986,-0.002382226855053745,-0.0021470030327321475,-0.0011956429472048955,-1.0059183987220114e-18,0.0006383235242838829,0.0010326886126591486,0.0010252811544890455,0.000624887684661052,5.921749087719762e-19,-0.0009572413497624392,-0.0013475212555002477,-0.0011662416915478072,-0.000620225756646172,-8.164025352454903e-19,0.0001089725792635045,0.0002221727370271822,0.0002583613735644282,0.00017659988963195246,2.641325681352429e-19,-0.0005175228151013839,-0.0006918052031619674,-0.0005624011772176536,-0.00027689064809631025,-4.475484418679473e-19,0.0,0.0,0.0,0.0,0.0,0.0,0.0,0.0,0.0,0.0,0.0,0.0,0.0,0.0,0.0,0.0,0.0,0.0,0.0,0.0,0.0,0.0,0.0,0.0,0.0,0.0,0.0,0.0,0.0,0.0,0.0,0.0,0.0,0.0
0.7028693522748949,0.7698640923168995,0.7870315314728867,0.7636336126366831,0.7163776003037763,0.664175178996647,0.6224169064684548,0.6002169762562898,0.598216387902932,0.6100418410790756,0.6254810057183989,0.6339926035206802,0.6291479436490808,0.6094960541726236,0.5785525914150886,0.5429603291710804,0.50949869680364,0.4838341404282539,0.46823086323899255,0.46159983595989174,0.46043965262376196,0.46001346708250623,0.45705279368661106,0.44990742722393456,0.438952546181082,0.42603453141432845,0.41314272154388304,0.40258818844508043,0.39555752307674524,0.39215650134816216,0.39162941020489495,0.3924369659691592,0.3937925330090153,0.3951296017645558,0.3963295199893432,0.39753638111894374,0.3985561729180601,0.3997110851440661,0.4009930930432545,0.4022882124898739,0.4034433520329925,0.40399405950822015,0.404185807439631,0.40419123797017836,0.404208330569427,0.4043586578354988,0.4043096808723881,0.40426427088510136,0.40429356263993815,0.404556219340008,0.40527396363800516,0.4059795328303869,0.4077525673020974,0.41060996464165106,0.41432985782413984,0.41851859796574076,0.42203537873211705,0.4253525504742621,0.42818082243141814,0.43033165847266813,0.43176323229347635,0.4319199855821873,0.4318884252228763,0.4319534468670512,0.4322975727279244,0.43297011989569384,0.4333161930517072,0.4338793041950254,0.43440881270841614,0.4345965347161213,0.4341770074979114,0.4325385313697034,0.43032522586948957,0.4277169746303916,0.4249372134263275,0.4222009197236291,0.41921644393981666,0.41662480096608145,0.41438673023705674,0.4123309247600699,0.41022483194934695,0.40743276991876237,0.40436875708407416,0.4010285005100862,0.3974733961160561,0.3938177510362781,0.39003379338069777,0.3865615044320087,0.3833674628988628,0.38034399929687973,0.37741067012320917,0.37468264279652386,0.3723794522951081,0.3704233751569664,0.3686461381357207,0.3668463675671734,0.36485740734710054,0.3628171266898109,0.36064178570358246,0.35837842153149496,0.3562820650111376,0.3547009381040329,0.3544630780225606,0.3558800606333393,0.3589229458364836,0.36316583174894274,0.3676204502614353,0.37162764486233674,0.37401078365456003,0.37371273777623665,0.37004959848674784,0.36257586337896275,0.35213805888131605,0.33948799734837515,0.32553934826639547,0.31119061219341937,0.2968248405331346,0.2834956266725192,0.2715214018991868,0.26107419456120806,0.2523316259000909,0.2451525490430227,0.24054479447443153,0.23895290280191378,0.24055254460127803,0.24497863983372756,0.2505506255792069,0.2558223534198299,0.25785186112672465,0.253033848992214,0.23762565376736428,0.2078516415234938,0.1626103362770942,0.10218429976344043,0.02918269831259365,-0.051536044565728835,-0.13407889551025357,-0.210360324773039,-0.27335947249782144,-0.317719909241332,-0.34069774289882193,-0.3433300883617603,-0.32796146327127856,-0.2996504188466188,-0.2644001138517096,-0.2279335120243066,-0.19534386539638135,-0.1682973143124242,-0.1470093894781937,-0.1300607245953956,-0.11516928114979125,-0.1007001735917653,-0.08430608683975799,-0.06526611179420268,-0.043913036635457876,-0.02134009664344234,0.0004941329928152345,0.021062931055881473,0.039804783298581295,0.056768200244922115,0.07248908786290656,0.08723098365153095,0.10227531514293325,0.1180633438904535,0.1346118394696726,0.15158340765077122,0.1681621898056978,0.18433302299591417,0.19994583478077085,0.21520687843913547,0.23067772743863585,0.2470023341136902,0.2651591727559387,0.2855371806221314,0.3079859551364576,0.33178734971646867,0.35566767151333806,0.37856372446475667,0.39934811517834723,0.4174115871553201,0.4328969719943015,0.44658335720849207,0.46010735231434136,0.4749039821382617,0.4919347542927435,0.5113008943962499,0.5321081813653847,0.5525003289276117,0.5702082375112058,0.5830875958873374,0.5897048167981984,0.5899208814629241,0.5843142513297387,0.574802430613127,0.5637541030810675,0.5532833434376697,0.5447683375097156,0.5380942070684848,0.5323102077814553,0.5258027254626313,0.516861870077141,0.5043160625661466,0.48770655502260657,0.4676904882296947,0.44570612730532855,0.4234910905938871,0.40251919764994776,0.3834694761103636,0.36602288633847424,0.34888570128815793,0.3301203111106332,0.3076357595220483,0.27991521277582954,0.24631885880362175,0.20743101754245993,0.1650601555553166,0.12187595371046384,0.08120543344099962,0.04603651229759871,0.01860328457096032,6.545273397828019e-20,-0.010083922895634569,-0.012789888226403645,-0.010336146114637651,-0.005287374875004365,-4.339957721546696e-19,0.003653222222004428,0.005177034093924331,0.004590152895116953,0.0025409966227377618,4.837820569608618e-19,-0.0023098740723307056,-0.0033441871350824107,-0.0030032978407064743,-0.0016722704619760251,-7.937863705954798e-19,0.0011057303849952606,0.0017086298345731698,0.0016328281261500325,0.0009642351247522423,5.60918712709629e-19,-0.0011807117097256494,-0.001699114472771188,-0.0015088345863952723,-0.0008267425367032603,-8.038178824415717e-19,0.0003623168986957783,0.0005968619820988551,0.0006013936351212377,0.00037100010637543994,3.741522528533015e-19,-0.0006259340575229644,-0.000872570819693296,-0.00074670971300705,-0.0003919330019813386,-5.352793336842633e-19,5.751423534864676e-05,0.00011725972874823763,0.0001363595956396773,9.320700384889206e-05,1.3940555311844856e-19,-0.00027314145620120796,-0.00036512531445056086,-0.0002968276412787907,-0.00014613909304598725,-2.3620994005538654e-19,0.0,0.0,0.0,0.0,0.0,0.0,0.0,0.0,0.0,0.0,0.0,0.0,0.0,0.0,0.0,0.0,0.0,0.0,0.0,0.0,0.0,0.0,0.0,0.0,0.0,0.0,0.0,0.0,0.0,0.0,0.0,0.0,0.0,0.0
0.5897048167981984,0.6449837188638107,0.6583586399571711,0.6377984552674028,0.5974696150606574,0.5532833434376697,0.5182238924077539,0.49957366693673677,0.4974821509772151,0.5062001585210281,0.516861870077141,0.5206791932047307,0.5122470133116214,0.49059466181083633,0.45902608525650607,0.4234910905938871,0.39012981538921715,0.36372495019728013,0.34607250301935216,0.33597517231885815,0.3301203111106332,0.32431396344842195,0.3154649346358841,0.30208607992481556,0.28460475277372727,0.2648953379005672,0.2452281683225269,0.2279767351823242,0.2145577376352796,0.20531632297625904,0.19967036469050117,0.19628889214027326,0.19413434104621066,0.19233485923912216,0.19042659445386292,0.1882957068614784,0.18579284749072217,0.18325335208670493,0.18087039528133012,0.17875792660452947,0.17692104903245565,0.17500032093964657,0.17304753189554173,0.17097977530856764,0.16873725238830778,0.16629504957176003,0.16339434558667976,0.16043967550769345,0.15784053415606075,0.15609934058194433,0.15566905011106438,0.1561649596437701,0.15840425707990236,0.1621143291709125,0.16675487170582398,0.17168562850054025,0.17568546564666737,0.17923880056309807,0.182318976691882,0.18506627486038962,0.18770220689001613,0.18975591520233379,0.19216654215103549,0.1950102042958591,0.19821592842129224,0.20162391176468605,0.20444542176086997,0.20725878463567432,0.2100601124868843,0.2128397705117942,0.21554561663935595,0.21751994304595462,0.2192263877268687,0.22061096835329055,0.22165732310627084,0.22242850894414185,0.222555706060241,0.22289109238503754,0.22388480728970486,0.22594286146739187,0.22931140124892774,0.233471529337485,0.23873587890834128,0.24483775714375558,0.25141592419217984,0.25809363281386305,0.2643060712759054,0.2701782179977556,0.2757386284736403,0.2811886580016373,0.2868758643787984,0.29324071712837757,0.30071293258473336,0.30939256792807623,0.31909412434746004,0.3293764025133636,0.33954783664266897,0.349185118362446,0.3578405674865586,0.3653448423913368,0.37187694064792876,0.37770578572206365,0.3837620640859247,0.3907032632713503,0.398906483880524,0.40830257246802,0.4180220583707431,0.42747875574104394,0.4356456154405841,0.44159535345699896,0.4447282042881112,0.444505290350904,0.4417009371716714,0.4371102736758602,0.4316597717260114,0.426160953781203,0.42068627139900516,0.4159463758653682,0.41208308037934815,0.40921353585990883,0.4075937032742948,0.40720199072288016,0.40927570237914856,0.41466101884634576,0.42386663002192426,0.4366345572159239,0.45101863619986776,0.4649789513962217,0.47492702289380584,0.47659042321328915,0.46567541115755307,0.43807097470170336,0.39260373510386926,0.32996123888759443,0.25343154075358143,0.16866400232561904,0.08236246925131777,0.003071761591411176,-0.06177072268931917,-0.10654346673121878,-0.12834740650631496,-0.12798125864721402,-0.10796100961851048,-0.07347870606350554,-0.030825117863583457,0.013802524124660353,0.054804113794546506,0.08963153642251627,0.11731700396212486,0.13872977609636256,0.15595245475563566,0.17095636441349008,0.1865597544835795,0.20417904835666054,0.22413938981675788,0.24578049322875797,0.26729855541050734,0.2878762579714017,0.3063982876566748,0.32228864590468725,0.3356085317018802,0.346462411670708,0.35636509267652444,0.3662094833393353,0.37656997636523876,0.387586280522269,0.3986459110094627,0.409759817746461,0.4204158811883324,0.43031314215672123,0.4395640293426578,0.4485219071750152,0.4584337490880796,0.47008774067638665,0.4838768632191438,0.49957030766045335,0.5160059272092813,0.5320612172298843,0.5458192072101947,0.5554264517663318,0.5595765859782489,0.5576159623502481,0.5505663085665008,0.539756419766172,0.5269189255139812,0.5137839097664417,0.5016058045816683,0.49123854282143425,0.48263987379003714,0.475187366495613,0.46799123355463457,0.4603049941944483,0.451533551512373,0.4416675142627267,0.4310833856180996,0.42033323913144305,0.4098986552837908,0.4000441047746909,0.39073065022548886,0.38170757748884976,0.37267524470825164,0.3633764600512953,0.354011394237891,0.3448305563486193,0.33617354106980224,0.3282917869542006,0.3210227123711189,0.3141238741062288,0.306596661583858,0.29703752730959787,0.2839083292001495,0.2657091290567743,0.24198363285588342,0.21271430127485724,0.17878250333242784,0.14195416460007476,0.10446696093185326,0.06941478802471902,0.039276262593079696,0.01585493233238644,2.5673564566596024e-19,-0.008721648022868973,-0.01105825640712281,-0.008926117450917193,-0.004556653073062258,-6.25932547557278e-19,0.0030166623376267788,0.004284400605366646,0.0038087939741346492,0.002114562616132471,4.618931855030001e-19,-0.002034759806225939,-0.002922205182947433,-0.0026009435724036814,-0.0014342125264395593,-7.70316195918196e-19,0.0008848761990363045,0.0013656087617990482,0.0013036733025904614,0.0007692244706849777,4.3193909756411794e-19,-0.0009398795625282551,-0.001352471267817251,-0.0012010491241705706,-0.000658177653354599,-6.272708240699392e-19,0.0002990828763620697,0.00048779459222416484,0.0004875357844923386,0.00029878388176260147,2.9144205441246918e-19,-0.00047887742671903993,-0.000670973155223316,-0.0005775921985759012,-0.0003052685545569825,-4.089492594561802e-19,4.946308940556582e-05,0.00010084509359443224,0.00011727126040267995,8.015939595919789e-05,1.1989082869189932e-19,-0.00023490567485680213,-0.0003140131475872675,-0.0002552761428473293,-0.00012568177219367412,-2.0314402708507623e-19,0.0,0.0,0.0,0.0,0.0,0.0,0.0,0.0,0.0,0.0,0.0,0.0,0.0,0.0,0.0,0.0,0.0,0.0,0.0,0.0,0.0,0.0,0.0,0.0,0.0,0.0,0.0,0.0,0.0,0.0,0.0,0.0,0.0,0.0
0.5595765859782489,0.6113650315829816,0.6226944544577109,0.6009577315573397,0.559566047689771,0.5137839097664417,0.4764013338357741,0.45484688179526794,0.44994060283451603,0.4569247323899164,0.46799123355463457,0.47532086528032585,0.47376468249749026,0.4620686519747767,0.44268433768705684,0.42033323913144305,0.3999866686634686,0.38516333747710885,0.37688253522976234,0.373715044680329,0.37267524470825164,0.3705080536980777,0.36493116092195954,0.35526202684828617,0.3424106043337293,0.3282917869542006,0.31495755650472324,0.3038740240702172,0.2954765132833603,0.2892084741982084,0.2839083292001495,0.2783363012808711,0.27166946346344295,0.26370349505197005,0.2548060099698226,0.24565410907737176,0.23686021730212564,0.22882040361041792,0.22151062535113186,0.21455702316313974,0.20739988895459402,0.19942898902667533,0.1903519064894623,0.1801275684854057,0.16899312393733243,0.15738054572935617,0.14573191293830126,0.1345936049540459,0.12436838097280462,0.11528566936171811,0.10736120250411829,0.10003618648616444,0.09354214322910755,0.08738722456138244,0.08108086184248203,0.07431806081118093,0.06677514314069423,0.059281903148178015,0.05227434307009636,0.046173474049697016,0.04127491911824358,0.03739062733502063,0.03483954691426283,0.03320654233522908,0.03193774492004033,0.030535757328991185,0.028291031241953354,0.025794051389614856,0.023326647297144013,0.021239585929955663,0.01979659553973878,0.018463570252343832,0.017730310423956442,0.017322700619408642,0.016884374547897072,0.01613108876573796,0.014738759044841085,0.013244471057055549,0.01202749584153194,0.01158899210977408,0.012465581991737132,0.015222777780554142,0.020154820530221426,0.02704480610817263,0.035328031369055456,0.044233930080908875,0.052964829277119964,0.060954374956710376,0.06763439240117883,0.07267042507082949,0.0760022781700806,0.07772570264153603,0.0784107404984634,0.07848559396046599,0.07834394914861184,0.07829224206995777,0.07834722054495633,0.07877995996738163,0.0794988621596142,0.0802402840197764,0.0805822059698349,0.07974563844800805,0.07741337343472726,0.07316057682763294,0.06679804295718653,0.05853083835084138,0.04879673110068532,0.03931557620539229,0.03227619228542507,0.030378735195429427,0.03647947073184785,0.05271526616377003,0.08110642223454297,0.1220962658175192,0.1743468323056366,0.2344959014307221,0.29674804131907606,0.3547322208174818,0.401140870185987,0.42896575375959434,0.43251233212959633,0.40777578061780917,0.3548578028316325,0.2769796118358839,0.18058122465309265,0.07452931840681207,-0.03171905622486717,-0.12773662785461565,-0.20497181978143783,-0.25762874622717935,-0.2834536953159722,-0.2845441187656552,-0.264866307850865,-0.23069413860944163,-0.18894352122726746,-0.1459363414042518,-0.10706980539143404,-0.0744212543025104,-0.04822472350456725,-0.02700532934371183,-0.008418987492531425,0.009259573620462149,0.02823762633759691,0.049387899183151666,0.0725883041067875,0.09695304162681416,0.12070680923895799,0.14324119029081384,0.16413664686241147,0.1836023011112359,0.2023250707461597,0.2206956415265449,0.23989480746712805,0.2604512929865746,0.28239603642065236,0.305256706736476,0.3277806853471891,0.349516351498551,0.37004137204037246,0.3894167510672406,0.4081883427267922,0.42682324958479034,0.44661968646812666,0.46842366599000207,0.49255215457003326,0.518587418776321,0.5450684097744748,0.5707513027442876,0.5939923478491962,0.6135519336903004,0.6289864948258499,0.640584378342028,0.6500790767124844,0.6591226178630983,0.6691684836838918,0.68099978634769,0.694391547481715,0.7082354587941607,0.7206274909410969,0.729456830190699,0.7330130778695303,0.730635133668049,0.7223903369477382,0.7097057347698823,0.694674264049089,0.6794402693578301,0.665692502852759,0.6540051522787161,0.6441518091690821,0.6351904313910699,0.6258674608461299,0.6150694626536474,0.6021510478266423,0.5871026711569615,0.5704718370568534,0.5531334047337223,0.535956938998353,0.51977109875275,0.5050131800183617,0.49186586953634237,0.4803993486213149,0.47061246849698785,0.46289805468902784,0.4574607222552744,0.45434537827142113,0.45322722148472133,0.45305996642820523,0.45258419774188086,0.4496099230760102,0.441585749602113,0.42605509434812777,0.4009607991871913,0.36591060786461926,0.32142274897482503,0.2694077696840082,0.21302754717406389,0.15602157268021624,0.10312249380773751,0.05802604919625812,0.02329339524766314,3.262188653872319e-19,-0.012671755035003528,-0.01598960591071319,-0.01284887207110454,-0.00653186403252605,-8.36367924809564e-19,0.004307627096721422,0.00609233428714364,0.00539507108382618,0.0029846352883346697,5.957839545562644e-19,-0.0028279571372088978,-0.004060018763428203,-0.0036136039952835257,-0.00199314480292743,-1.0119755108496348e-18,0.001249552245830103,0.0019234577430909542,0.001832151661475219,0.0010790080054867558,5.786814051625168e-19,-0.0012998430118250507,-0.0018731962612607489,-0.0016662963042598034,-0.0009149043976697242,-8.4711264502697445e-19,0.0004350869548211916,0.0007040092426384152,0.0006990578628284869,0.000426111193334171,4.0405655496550297e-19,-0.0006533870193042695,-0.000919685818272713,-0.0007958674718714911,-0.0004231970301105195,-5.572703356454192e-19,7.422818936946897e-05,0.00015133605268632954,0.00017598644624463992,0.00012029347326477453,1.7991757576718346e-19,-0.00035251786992649016,-0.000471232744734054,-0.00038308739103237185,-0.0001886079195375277,-3.0485385148730324e-19,0.0,0.0,0.0,0.0,0.0,0.0,0.0,0.0,0.0,0.0,0.0,0.0,0.0,0.0,0.0,0.0,0.0,0.0,0.0,0.0,0.0,0.0,0.0,0.0,0.0,0.0,0.0,0.0,0.0,0.0,0.0,0.0,0.0,0.0
0.7330130778695303,0.8016646515030935,0.8175993986786726,0.7904545782650797,0.737752150122985,0.6794402693578301,0.6319466943319116,0.605141931864384,0.6000855117843437,0.610466816896195,0.6258674608461299,0.635457866634345,0.6324032263079976,0.6149354935800638,0.5863453274073506,0.5531334047337223,0.522057721958141,0.498648861085363,0.48507108830195744,0.4801586521660405,0.4803993486213149,0.48122663550949696,0.4794688923563164,0.47364665643166937,0.4642704145778285,0.45322722148472133,0.44251214482647394,0.43412596797785896,0.42889393587757313,0.4265483591583288,0.42605509434812777,0.42588147783486807,0.4252454077538332,0.42379761985603254,0.4217286329382643,0.4195111492270077,0.41734151698860844,0.4156405846498011,0.4144459161242837,0.4136175960733128,0.4129672041058877,0.41214244621249163,0.4113525222165584,0.4108019021963365,0.4106891967382455,0.4110631659707615,0.41152464538471867,0.4118873233098376,0.4117905698050957,0.4109346787421406,0.40915912783563535,0.40588455058376033,0.40213260076543644,0.39810798888903254,0.3939640032102105,0.38981442995826643,0.3852510931684323,0.3810960930512892,0.3773256990679786,0.3738248266908341,0.37046973208089745,0.3667878557040758,0.3634330448064262,0.36037679737842604,0.35753725024457367,0.354812655358026,0.35178578542125244,0.3489056335101525,0.34598958390824636,0.342804394783616,0.33915557863515455,0.3347231570071827,0.32998299717053825,0.3249822511630035,0.3197730569332905,0.31443084804003746,0.30866440426702313,0.3031882857448709,0.2981553188318162,0.2936540110472706,0.28970611744492036,0.2856954375565139,0.28222543583676046,0.2792388606449713,0.2766141498957657,0.274184962023171,0.2713192077268238,0.2684244847890171,0.26538766957947796,0.2621314980664472,0.25866380660142163,0.25478486636382236,0.25117529265336125,0.24804636678700667,0.24552117504070473,0.24358676807504648,0.24173707492278698,0.24003185177787434,0.2378215883337195,0.2342683650579553,0.2285097295486713,0.2195489007055353,0.20751570135673494,0.192530391965824,0.17519870204403384,0.15657698058671035,0.13768895433570508,0.1203550008888472,0.1056009363830546,0.0938190309472857,0.08464423162474936,0.0766778069508927,0.06886369621802046,0.05962034313657461,0.04775585820437561,0.032943781503391764,0.01565209076494931,-0.0014963793958848591,-0.015340989836563007,-0.022242758399171177,-0.018756668617965856,-0.002796039413808882,0.02722238566203031,0.07051478200458904,0.12433979300285751,0.18428395980368625,0.24431371449238234,0.2992064752338281,0.3437389161927094,0.3738856491661745,0.3873245882253383,0.38308069954555957,0.3633590478389116,0.33148230848987886,0.29185948612154305,0.24930118512738753,0.2077125055332754,0.1713740748548002,0.14277122978404067,0.12289382009493342,0.11127778202943674,0.1056824698470807,0.10446765577060897,0.10540654569139307,0.10666568589892349,0.1071134394815477,0.105890772578909,0.10393486033182793,0.10217749791266374,0.10161439072206402,0.10294909693365867,0.10592522394238693,0.1106587187381728,0.11647093063971628,0.12252915467517767,0.1281355897300154,0.13263662332928347,0.13656736046596357,0.14065504859253725,0.1459068353475592,0.15332208252637214,0.16337677172778242,0.17648120528402503,0.19228571316526172,0.2099241157299683,0.22822174334372264,0.2458903562146077,0.26216467424298817,0.2767686210303868,0.2900948988434972,0.30312140416107314,0.3171614783496973,0.33344941968962155,0.3527899393608504,0.375230487877443,0.3999371636825559,0.42521544030729674,0.44921637453992874,0.46994792873924573,0.48596302991864215,0.49675292320403863,0.5026829205348987,0.5055843081240318,0.5073166414424827,0.5095855954111316,0.5134497318251817,0.5188681318448022,0.5251360082251147,0.5304772846402951,0.5327686114690702,0.5301465404463248,0.5214806658660478,0.5068940780307791,0.4874674888180393,0.46505023795715644,0.4417806069522982,0.4195036081148742,0.39955986064549737,0.38230289209967705,0.3672594771078624,0.35341467345827154,0.3395567401944275,0.32486289098983645,0.3088901245937551,0.29174897169272407,0.27399773360992713,0.25632986908344,0.23952593585313225,0.22386420679627186,0.20911445335151482,0.1945807937615827,0.1792127083197597,0.16219236742633103,0.14284267977798631,0.12102737084775994,0.09729039688079134,0.07270717612229419,0.04913336361921878,0.0282887837618077,0.011618315417403633,2.483966885519007e-19,-0.006586107573416452,-0.008472862770301189,-0.006933571054760248,-0.003585382240325813,-5.638533941291035e-19,0.002431143398162157,0.003491696772473172,0.0031353526425888997,0.0017561869169427525,4.834009293829532e-19,-0.0017275197962356437,-0.0024898065121744858,-0.002222719886320991,-0.0012286705696472463,-7.503825269782163e-19,0.000723768221189715,0.001132999860044058,0.0010951350486149381,0.0006531338578183445,4.3073892736978174e-19,-0.0008762795949892564,-0.0012478652667809998,-0.0010951442275698086,-0.0005922147591358713,-6.288560235920901e-19,0.00022205398558727406,0.00036912580418901864,0.0003746182184934186,0.00023244445706466048,2.41126657543868e-19,-0.000409287754842752,-0.0005682488095848828,-0.0004839746309005538,-0.00025260170506018523,-3.5039833203020622e-19,3.390026360110775e-05,6.911568397393605e-05,8.03736015736544e-05,5.4938433603312226e-05,8.21689616409866e-20,-0.00016099609617480974,-0.00021521357855629742,-0.00017495729922249265,-8.613787085326077e-05,-1.3922777873231122e-19,0.0,0.0,0.0,0.0,0.0,0.0,0.0,0.0,0.0,0.0,0.0,0.0,0.0,0.0,0.0,0.0,0.0,0.0,0.0,0.0,0.0,0.0,0.0,0.0,0.0,0.0,0.0,0.0,0.0,0.0,0.0,0.0,0.0,0.0
0.5301465404463248,0.5741722096427319,0.5774328631345562,0.5472334979977682,0.49691251991859453,0.4417806069522982,0.39476084968526104,0.3637319653118919,0.3499787394463839,0.349107077631581,0.35341467345827154,0.35471979907092455,0.34747456096395335,0.3298513680896585,0.3038386302232418,0.27399773360992713,0.24538327865094983,0.2223113533213771,0.20677348663989786,0.19830556054640996,0.1945807937615827,0.19227923157739266,0.18887504047936876,0.1829283032059025,0.17442479878326161,0.16445753285655865,0.15435189570477098,0.14573414428971193,0.13952064543773324,0.13588066987952102,0.13433427195153458,0.13375899373262107,0.1335104527074613,0.13305571733866617,0.13220250416036583,0.13103277750278486,0.12948894256302804,0.1280753697751905,0.1271416701044741,0.126972127449784,0.12773128305403508,0.12913795231714986,0.1313099229654049,0.13411905178507522,0.1373605030658921,0.14077147344780355,0.143775538653404,0.14644018751458282,0.14884250762567802,0.15120832806230694,0.15381166384157208,0.15626339940005093,0.15939142858947275,0.1631275284135067,0.16722642355104575,0.17138067516823183,0.17478999860935399,0.17805537835287522,0.18133198603363845,0.18487331247126507,0.1889496864948916,0.19324198038874993,0.19841585064563547,0.20443937706533014,0.21110346378852574,0.21807910371546596,0.2245622727482618,0.23075345849507622,0.2365514091865033,0.24198828079151932,0.2472085209360403,0.2520537119803199,0.25713547256686203,0.26267621366328675,0.2687662943341405,0.27532321582743297,0.28169390875361955,0.28794154658832083,0.2937888982419424,0.29900424524958524,0.30343791071882553,0.3065998154206037,0.30899162939201746,0.31090296928071987,0.31266130877789716,0.3145358036912177,0.31660108040220686,0.3189359590923371,0.321351721131665,0.3236235920492893,0.32563369666360986,0.3277866633034652,0.3301234015402229,0.33277783210359735,0.3358003719769755,0.33911739410174585,0.342714700515244,0.34622209532791554,0.34921797121641956,0.3513731748691478,0.3526010915398819,0.35316593154549275,0.3535841652061359,0.35434093730728544,0.3557853843322348,0.35798714489810113,0.3606200620388124,0.36323654111667936,0.36504721075940727,0.3652752662022308,0.3633731982563204,0.3590146060301333,0.35262190433526136,0.3446716393297184,0.3357433600816819,0.3263832959208168,0.3168042148989693,0.3077138432811152,0.2995993371384802,0.29315588855411734,0.28939339358531313,0.2892774923804771,0.2945784890253758,0.30638672358713226,0.3249448154630301,0.349158853158041,0.3758285474478623,0.40103848786864116,0.4191092404928303,0.42372411460475345,0.4089243127307689,0.3696783984575806,0.3047121802913604,0.21555414561752134,0.10724364858864621,-0.012098996420149827,-0.13293979906976194,-0.24383579329793867,-0.334976589671533,-0.39920213991164133,-0.4331223055710685,-0.438231859022807,-0.41833600778736585,-0.38049582328630155,-0.3329319552253339,-0.28344838249361054,-0.2387832037825262,-0.201746452864041,-0.17306264162508472,-0.1512960525863519,-0.13377445941615257,-0.118252114268128,-0.10180011028249115,-0.08319829383364002,-0.06243676469956562,-0.04041936539952981,-0.018985657133191104,0.0013245067035507064,0.01995068382433982,0.0369612651052796,0.05293572861709296,0.06823943828549027,0.08413043146474757,0.10100545045974325,0.11878281911586898,0.13699819635561283,0.15473888254020737,0.17192638035812727,0.18842771752509382,0.20455770884569371,0.22106066409413266,0.23877435396798663,0.25889540430139163,0.28189990234455353,0.30758886255298357,0.3350521500445038,0.362651832944927,0.38904672367441034,0.412718548802361,0.4327324642216697,0.4490436359948749,0.4623326849246255,0.47456229174002057,0.4874329387740373,0.5022151741125148,0.5193065834490547,0.5380190926540339,0.5566441081818125,0.572878110652623,0.5844122057691157,0.5895695309032344,0.588009968965424,0.5800457916795474,0.5675578567520965,0.5530339463986124,0.5388285753461467,0.5266448040043121,0.5165884724159904,0.5078960484501771,0.49900240814652974,0.48808761978905907,0.47374567920351524,0.45518770813029247,0.43278454948706463,0.4078080111039761,0.3820201640268238,0.35715025026213426,0.3343048269657749,0.3137425781461773,0.29477077190720946,0.2759527082645885,0.2554998353118949,0.23189164696161685,0.20421486893913549,0.1725336099383214,0.13797635413229425,0.10249510623423971,0.06875035069084487,0.03924896840331018,0.015972500675873025,1.1345023419136712e-19,-0.0087864914794758,-0.011212602487829928,-0.009112679223957552,-0.0046855967362317875,-4.619808686520465e-19,0.003246556911336315,0.004624132123990602,0.004119251397950795,0.002290144398516012,4.983560102318945e-19,-0.002125927388524838,-0.0030776847826193745,-0.00276259462184249,-0.001536884505875428,-7.951926765536866e-19,0.0009873465331142889,0.0015327409385773854,0.0014706608846632475,0.000871503932525647,5.361451467496716e-19,-0.0011005802764568317,-0.0015782635664581602,-0.0013960019295499973,-0.0007615509392470288,-7.691461207262972e-19,0.0003126288231594626,0.0005188299309238894,0.0005258600281948895,0.0003259457544138721,3.3642244031354283e-19,-0.0005695911492566606,-0.0007913720306710365,-0.0006745699014067962,-0.0003524285987423139,-4.875426858406323e-19,4.807704486534028e-05,9.801923307773395e-05,0.00011398510921075246,7.791318581639735e-05,1.165312724949741e-19,-0.00022832319624464635,-0.0003052139356091451,-0.00024812284716168654,-0.00012215994336639265,-1.9745156684847336e-19,0.0,0.0,0.0,0.0,0.0,0.0,0.0,0.0,0.0,0.0,0.0,0.0,0.0,0.0,0.0,0.0,0.0,0.0,0.0,0.0,0.0,0.0,0.0,0.0,0.0,0.0,0.0,0.0,0.0,0.0,0.0,0.0,0.0,0.0
