0.6883867814388719,0.7535803506724011,0.7707132351972589,0.7493404535400774,0.7060730161961026,0.6592921407325834,0.6236793290550435,0.6069183642827545,0.6081774383029827,0.6196906701306096,0.6301975000262947,0.6289043962712597,0.6093510754110816,0.5708040103932046,0.5180177612770627,0.4592156836214598,0.4031366662925195,0.3566844241946232,0.3230445120279099,0.30146653898626913,0.2882338672166248,0.27831059054266855,0.2672844567817913,0.25249824912576174,0.23352351439916977,0.21180524547519936,0.18976752325807286,0.1699029511691431,0.153951618613778,0.14256577770823034,0.13537662373377388,0.13134746993070878,0.1291937589101442,0.12775995696948683,0.1262272555122944,0.12417423382610986,0.12156372378090426,0.11861228892654307,0.11577340610380571,0.11366271648888315,0.11297184391844582,0.11437490122236033,0.11825278217857761,0.12461934289851492,0.13301709453038169,0.14255565899667194,0.1521203491576165,0.16051707454301206,0.1668406768288768,0.1706678702767678,0.17213947407489805,0.17157153794601832,0.1704846060055119,0.16965191358318663,0.16953219947400933,0.1702076008536893,0.17109629576754942,0.17222563006478775,0.17273346899754138,0.17167465141184945,0.16827572763248055,0.16183516164007478,0.15297057851004892,0.14203971815475444,0.12965783225945549,0.11662291454303052,0.10357184438143761,0.09166726796347985,0.0813118974418787,0.0725174980380839,0.06497010145358051,0.05802185147546938,0.051382947438786436,0.0445513945132432,0.03721019630217743,0.029316974955743463,0.02101148574325621,0.012913583707855647,0.0054682171442134424,-0.0009934830627142397,-0.006336151542093578,-0.010701510077713717,-0.014250162575940044,-0.017391357324508295,-0.020537321139939158,-0.02397222162134025,-0.027814876362282307,-0.031805901603371614,-0.03565120734775034,-0.03901195788481678,-0.04160829170058692,-0.043346758665603384,-0.04418785342815095,-0.04438228766769771,-0.04429139102154718,-0.044265435694656685,-0.04458578691002873,-0.04517507119927639,-0.04591957730782853,-0.04659149520957322,-0.046922579688726436,-0.046758056679848385,-0.04585473584534924,-0.04430735199776558,-0.04236372509516347,-0.04033337880522448,-0.03855993489436075,-0.037042511766288755,-0.03581113866082975,-0.034773589408483255,-0.033744177921722525,-0.03258595189013593,-0.030957122802929515,-0.028796412652156357,-0.026182129294378274,-0.023301931137212864,-0.020498149037123718,-0.017875362241888744,-0.01564071471333874,-0.013943879998780707,-0.012859684352703203,-0.01249731994504932,-0.012659168641677859,-0.013199857587399094,-0.013949486342724948,-0.014741796867488726,-0.01552960618017471,-0.016134939557520607,-0.016503164395445684,-0.016643169184776797,-0.016623909382274246,-0.016622398994708097,-0.016701275087571008,-0.016915302015984963,-0.01726142898596829,-0.017683529021634052,-0.018141973024691945,-0.01852343755271361,-0.018748884111790702,-0.01880038816583807,-0.01874314866099385,-0.01874479534816366,-0.018979025732082377,-0.01956892574263895,-0.020549686534055,-0.02184267051854361,-0.0232435081511845,-0.024521784347093727,-0.025381171905082014,-0.025568717805700417,-0.02494219237609337,-0.02345402384762851,-0.02134310332380786,-0.018897764723515377,-0.016441174464595285,-0.01423665707380752,-0.012522272960474706,-0.011091490302204686,-0.009519733125699752,-0.007206429180736849,-0.0035311217715216702,0.0016634957790148557,0.008837047782100746,0.01801688350409444,0.02890324417510643,0.04087025572483455,0.05279326393551074,0.06388039826653172,0.07332339509950445,0.08054503185767786,0.08527163322119077,0.08737994490400473,0.08736107909932975,0.08586955947438235,0.08366996620933193,0.08146967630534159,0.07964510620649685,0.07850541717793294,0.07801192491107065,0.07787856722145672,0.07766771938949242,0.0768471636164688,0.07514973821102602,0.07252651862704565,0.06920248741975459,0.06560784545097734,0.06220073044339033,0.059377112832475785,0.05724876604842784,0.05553541665798345,0.053547971512462225,0.05030376933058111,0.04471092953615767,0.03591758442416982,0.023613055892914153,0.00829262263412817,-0.008588437536277433,-0.02468978516204626,-0.03695945501195391,-0.04206965739735055,-0.03696272624420589,-0.01942357646552358,0.011356412876466618,0.054509704780631926,0.10740021055429277,0.16586177977820835,0.22473671048449845,0.2785917759345732,0.32258018872554556,0.3531748522266824,0.36868628580062257,0.36944853410359796,0.3576264934109155,0.33671412652037086,0.31081065516981105,0.2838502700754435,0.2589261083476076,0.2379611276098126,0.2215022832035105,0.20895813677349137,0.19901425435026443,0.19009070120268237,0.1809644755725986,0.17085159973400593,0.15959252384292813,0.14756618293554266,0.13541864893137484,0.12393623711418641,0.11357992601673704,0.10441691665137917,0.09611811152082088,0.08803993420449491,0.07957831221642289,0.07018563392157287,0.05962357000048969,0.04805905576041044,0.03601451154681311,0.024377163333913356,0.014040074052937944,0.005761263754796103,-3.549580587186178e-20,-0.003201843501505936,-0.004113510564667111,-0.003365103406080234,-0.0017414497534335694,-1.0765461820147425e-19,0.0012825123214066465,0.0018213065095487,0.0016155404930273819,0.0008935788390139921,1.7501327825999487e-19,-0.0007121928776204227,-0.0010575902632944676,-0.0009750853819719425,-0.0005576884035132868,-2.312656847684986e-19,0.00039628557487836357,0.0006282032385870955,0.0006138003925279492,0.00036944812040749894,2.694167450839213e-19,-0.0005359098190006171,-0.0007568204933284439,-0.0006578819104175995,-0.0003518961736012204,-3.9930959523736175e-19,0.00011394650210908323,0.00019101882555690132,0.00019514575070707515,0.00012172118437543271,1.294296805217999e-19,-0.0002223964963161816,-0.00030772815335642907,-0.00026104326632106934,-0.00013559650014987747,-1.9057283420613944e-19,1.6745893849055864e-05,3.414144269646931e-05,3.97025762411696e-05,2.7138230787220467e-05,4.0589439820230305e-20,-7.952809949736376e-05,-0.00010631019816794114,-8.642458935928843e-05,-4.25499830522042e-05,-6.877508773751655e-20,0.0,0.0,0.0,0.0,0.0,0.0,0.0,0.0,0.0,0.0,0.0,0.0,0.0,0.0
0.36868628580062257,0.39703976037930766,0.3957053447568819,0.36978667929774933,0.32880400521691566,0.2838502700754435,0.24443659913675717,0.21670341261920298,0.20210188589272024,0.1979512618994734,0.19901425435026443,0.19943838973512412,0.19500345994935062,0.1839542288965858,0.16719977457167687,0.14756618293554266,0.12847181300740423,0.11295250026272147,0.1026173539173278,0.09744905517528973,0.09611811152082088,0.09660125124196603,0.09706820361015633,0.09631243154830281,0.09399453238463838,0.09053355745178034,0.08676125972459213,0.0836646473053196,0.0820425306053413,0.08239944148389095,0.08494900338273982,0.08966725053239605,0.09640327147790478,0.10486664309675592,0.11461975714648177,0.12506379658035285,0.13546159923275838,0.14508558564237858,0.1533534618492651,0.16000080629089525,0.1651785897779659,0.16942085115128797,0.17352401722733551,0.1782766728161481,0.1841984853098241,0.1913384211893974,0.19918934941577007,0.2068273048257323,0.21309624308498928,0.2169051728002782,0.2174982526008289,0.21442164156929372,0.2083650633974775,0.2000659992354941,0.19049720490932495,0.18066558259470644,0.1712327639803944,0.16298591550241365,0.15596629238763896,0.14979506306647683,0.14383291258858402,0.13725849271442245,0.12974652508512102,0.12103518143392257,0.11119910337916178,0.10063590135451682,0.08986003353064317,0.07971954829329943,0.07077984682566554,0.0633511595004262,0.057438890120449636,0.052692486145264214,0.048773008463339707,0.04517102364459201,0.04145258163668384,0.03737253888103696,0.032861236440575,0.028242487549764224,0.023874566787468143,0.02013395226987629,0.01730618764162429,0.01545078008428882,0.014568872689480018,0.014388701434704217,0.01453492192104717,0.014643272833369074,0.014387814758372303,0.013832073367022286,0.013082246258327029,0.012370343916187342,0.011980358025113859,0.012056404596604807,0.012899641510236802,0.014462663991623034,0.01653247166424699,0.01880276566376131,0.02084510197079732,0.02262542222995193,0.024011377582856007,0.024982784025744054,0.02562517330240876,0.025955300653036938,0.026365374907846215,0.02695477004141179,0.02772920534333323,0.02862190491671392,0.029402004390931484,0.030167490079604127,0.030828326680866516,0.03131889967121143,0.031618636531019075,0.031637135376911873,0.031615845063496885,0.031633525072334766,0.03174540611464065,0.03197192615255926,0.03215934970358024,0.03240313785206305,0.03260953243555826,0.032639094953422584,0.032325215774099456,0.03136107040750661,0.02978122754765435,0.027594346278297238,0.02491396049668685,0.021948249653947222,0.018864886339474706,0.016054976833557316,0.013796264777404817,0.01227942471380812,0.011571283533794989,0.0115461591264155,0.012091944223629428,0.01299689964644796,0.014046933557033974,0.015071347735059876,0.015926871367819447,0.01663842505314413,0.01726163517227115,0.01788133000978843,0.01857141193632476,0.01933565700429465,0.020183598474631487,0.02106015420338396,0.021895233557593135,0.022637255136988898,0.023224732041844876,0.023779117197291647,0.024438843534302965,0.025367790282000056,0.02670309833765304,0.02841701724881906,0.030555160462402312,0.033002384645796586,0.03557582734750829,0.03807810059327234,0.04016003802558728,0.042010116531120176,0.04388270588862974,0.04619913407006522,0.04945310284889161,0.053759271924713616,0.05970681171380946,0.06747843172203287,0.07696108922868107,0.08768860698050193,0.09859772147423983,0.10886398382292951,0.11743673501295455,0.12336005244780547,0.1259241111121122,0.12461267457386299,0.11970508196970851,0.11183407715473634,0.10200625694536782,0.0914229564011415,0.08112295738500323,0.07217181059093607,0.06515873614467332,0.06019449123316786,0.056921801690170776,0.05453778079308257,0.05227820524217174,0.049422435295103186,0.04555589470590491,0.040690215117879854,0.03522083208441257,0.029984098884345233,0.02592612828044595,0.023903411514543567,0.024458628545588952,0.02765896554847619,0.03309604733772684,0.03993421762586635,0.04714489302920606,0.05379960058111126,0.05935866702505549,0.06394768346768122,0.06839508090320595,0.07417363920185467,0.08314057261663359,0.09712056229167078,0.1174902899033977,0.14468042831664424,0.17791993264969524,0.21518625923530707,0.25340004751101547,0.28895367159180546,0.31822176022476756,0.33823852752776273,0.34723194585398054,0.34490204031450156,0.33252389829210593,0.31252972019855335,0.288046153709017,0.2622885844700676,0.23794920435829195,0.21696429718920765,0.20011809664176053,0.1872104749758632,0.17734522308615455,0.16925208748943968,0.16191026344033296,0.15449434815744612,0.14661895111531933,0.13831499963657495,0.1298342535337598,0.12162064479640448,0.11387827110492232,0.10654359820368861,0.09928477618699535,0.09157095234506232,0.08294666228456059,0.07305949148370862,0.06185452868988717,0.04964238809349768,0.03704989535640173,0.024982166629709042,0.014339599688233291,0.005866930389731265,7.847109772642963e-21,-0.0032303509125224525,-0.004144927059258728,-0.003388647949884003,-0.001753388259080519,-1.377537642884107e-19,0.0012688806160576,0.0018094828719942956,0.0016125413731167318,0.000896285945895265,2.103456295823089e-19,-0.0007831647017928268,-0.0011467633501570026,-0.0010416710224445862,-0.0005866352334042049,-2.9835137452208543e-19,0.0003802081618787727,0.0006016294438495242,0.000586977414443763,0.000352889252367342,2.5077498044170843e-19,-0.0005088108804805227,-0.0007188630044195024,-0.0006252348852416958,-0.0003346674997186152,-3.742764823077065e-19,0.00011278299969495254,0.00018728620526327257,0.0001899160336532933,0.00011776205040099017,1.21774478099263e-19,-0.00020636956370848668,-0.0002866477939050951,-0.00024426437696518547,-0.00012756874161639104,-1.766551404861011e-19,1.7297596639677463e-05,3.526625152311497e-05,4.1010599706776035e-05,2.8032314900782796e-05,4.192668149991829e-20,-8.21481969863969e-05,-0.00010981264679979447,-8.927189554417341e-05,-4.395181591955668e-05,-7.10409212709216e-20,0.0,0.0,0.0,0.0,0.0,0.0,0.0,0.0,0.0,0.0,0.0,0.0,0.0,0.0
0.34723194585398054,0.37355495201769523,0.371612951231548,0.34617314366351243,0.3062199173412422,0.2622885844700676,0.22349220940804393,0.19581965635785345,0.1808621519473125,0.17629946141892375,0.17734522308615455,0.17855453800976687,0.1759008111621185,0.16758618124680205,0.15425144413314704,0.13831499963657495,0.12278344523796339,0.11035116355653161,0.10246766765399945,0.0991540245739068,0.09928477618699535,0.10114403265515544,0.10318289205921301,0.10439411530542811,0.10449540998560893,0.10380840075143424,0.10295150814670999,0.1026015207703213,0.10324528409319762,0.10513300699338976,0.10833202531587313,0.1128167512651897,0.11854033656419508,0.12541872661082518,0.13326990096857902,0.1417475103516083,0.15033083027525812,0.15839816827299547,0.1653844950031149,0.17096034065798899,0.17516299538734342,0.17842327313951126,0.18143359283745858,0.18494050525932984,0.1894811372897206,0.19516970302410191,0.20160515488472924,0.2079210638494493,0.21298682094131918,0.2156824989734204,0.21517641066086043,0.2109478171015073,0.20355264223312344,0.19366326084163632,0.1822467436862732,0.1703728230912205,0.15885336768878394,0.1486081210652676,0.139850487048691,0.13235147034271594,0.12556923552158059,0.11872651586115564,0.11142352965310495,0.1032879938494101,0.09424746751748389,0.08454431042520939,0.07457332480076426,0.06507114787722172,0.056559360861059525,0.049356989473036135,0.0435193853288382,0.03878150036063652,0.0348673639077669,0.03131543542318644,0.027710613911420937,0.023798175073663757,0.019475923105378323,0.0150330976678613,0.010778495010721886,0.007042809333661523,0.004076964818489319,0.0019054485473472917,0.000555683452238558,-0.00022585068248517394,-0.0007797223653141442,-0.0014204858469575225,-0.0024226710247876268,-0.003653702640335849,-0.004973287055933581,-0.006146000389373147,-0.006917936512404362,-0.007199966782545517,-0.006761045266399382,-0.005720704654321595,-0.004336943476284389,-0.0029122191724631954,-0.0018040530080996842,-0.0009294533514108047,-0.0002655034639050239,0.00033251630212129097,0.0010934981674779725,0.0021375243563511097,0.0038677727861025062,0.006321078464360785,0.009366706623982547,0.012747074502752411,0.016023849158190558,0.019065517132179542,0.021594517636634936,0.02340637144217314,0.024400650838026845,0.024479022540941815,0.02390597840729057,0.022856147227803304,0.02152543520553243,0.02010682957620107,0.018648085457397143,0.01742502005506462,0.016535234922901126,0.01600966514747522,0.015813008314375286,0.01572329979113641,0.015762944608967027,0.015865748725014863,0.015992578641443815,0.016130468375667197,0.016185927155814437,0.016250047096260083,0.016334664543189475,0.016420442431706855,0.016447928436959105,0.016271078440485944,0.015843409677116026,0.0151226993463048,0.014128346020296195,0.012948716077554746,0.011695090908997521,0.010569480380554483,0.009749898564590524,0.009363111017680685,0.00944950371815039,0.009937546641173432,0.010693145045455238,0.011540371253356295,0.012315667433716008,0.012917668359253436,0.01326661688690666,0.013538051412936427,0.013970647950995334,0.014842693916347202,0.016385833000356485,0.018567170935300154,0.02145839411175472,0.0249198974870874,0.028711348767736167,0.03254959931182218,0.035953139648041685,0.03901442499560769,0.04190393893632205,0.044983392196088295,0.048713365623287846,0.05320132190961697,0.05905296181280992,0.06649849024568621,0.07549475946664543,0.0856602911699305,0.09602153535396137,0.10583017445043943,0.11410417786875661,0.11992999882653148,0.12260721671657314,0.12159837392271088,0.11712749038322628,0.10977838761514454,0.10051546822674344,0.0905107221088166,0.08078146563999535,0.0723822707097347,0.0658875564105617,0.06137294216031022,0.05841422750106004,0.05609893041645849,0.05355760853324328,0.04996905546714829,0.04487288307071789,0.03833350494379934,0.03093009404719107,0.023835673031133486,0.01846773232206786,0.01623924564881036,0.018252782386538633,0.02504079128759811,0.03644118408980619,0.0515806364447528,0.06905011385384471,0.08720223714702872,0.10451153459226696,0.11995487426265602,0.13323537678541086,0.1448850045224291,0.15615169190751885,0.16868351969956288,0.18411836597666495,0.20356262087177202,0.22720996532500756,0.254133473063393,0.28231492920167056,0.30901580173454346,0.33120163988906987,0.3461726806450219,0.35211525421926715,0.3484452755620937,0.3360029523894512,0.3167364689220084,0.2933255586046279,0.26863677357102533,0.2451422236695305,0.2246829000962852,0.20805525442336417,0.19514137443444363,0.1851582929227835,0.17694746989536148,0.1695671905348061,0.1622341615082591,0.15456274665041242,0.14654729940649203,0.13837857704704934,0.13042689119760473,0.12282547860598096,0.11545229105125857,0.1079363058902006,0.09972974326857945,0.09038636930134408,0.07958425413265949,0.06731909028211105,0.0539681529451003,0.04023617791671608,0.027104652774778935,0.015545136685989919,0.006355880854479111,3.278988032631378e-20,-0.0034919360420327533,-0.004479565619705733,-0.0036619434087361725,-0.0018948530658110304,-1.6740064391457595e-19,0.0013566319679573814,0.0019390318354227404,0.00173230906023966,0.0009653487261472712,2.4289537725564185e-19,-0.0008817338189344905,-0.0012829766126536317,-0.001157469736868988,-0.0006471476819783473,-3.5584710319442316e-19,0.0004026166749308247,0.0006354766070587941,0.0006186669923269736,0.0003712662222183444,2.5830405907704783e-19,-0.0005275643033114548,-0.0007464748216669866,-0.0006503757421356276,-0.00034882176472230894,-3.8490531902402045e-19,0.00012127959556991171,0.00020089211014743267,0.00020330903740301877,0.00012586641534288766,1.2915922894589111e-19,-0.00021803052999773033,-0.00030317514937581004,-0.0002586792322341008,-0.0001353025503808752,-1.8658160407656378e-19,1.8804883827799608e-05,3.833930092998769e-05,4.4584203184928455e-05,3.0475009685700818e-05,4.558011100123674e-20,-8.930647032483908e-05,-0.0001193815596992572,-9.705091752139187e-05,-4.7781712662453914e-05,-7.723132290269713e-20,0.0,0.0,0.0,0.0,0.0,0.0,0.0,0.0,0.0,0.0,0.0,0.0,0.0,0.0
0.35211525421926715,0.37911007870177577,0.37758332972171427,0.35235145974390275,0.31249020851488524,0.26863677357102533,0.22998049892354797,0.2025515678676241,0.18793151564845686,0.18375143148794315,0.1851582929227835,0.186643271074539,0.18415008844362513,0.17588554406135512,0.16252721800864847,0.14654729940649203,0.1310026049947659,0.11861893802936048,0.11084673237052248,0.10767785885646987,0.1079363058902006,0.10985068599942556,0.11181977487951286,0.11280519522989244,0.11252225449653733,0.11132376776215239,0.10989997736877874,0.10902158669449274,0.1092993274093634,0.11112514817933404,0.11471122963410417,0.12016730180575182,0.12751854950323685,0.1366825910618738,0.14738380385882047,0.15908163905661007,0.1709888086712907,0.18213429915853716,0.19160288316095014,0.19876311047534592,0.20345204847911594,0.20605912451264918,0.20734507103963032,0.2082636767728414,0.20964915381357163,0.21195259392257554,0.21511468607002102,0.21851996806621252,0.22120870151413005,0.22213453070836342,0.2204531393660351,0.21557970613127694,0.20794883161302327,0.19809896516216796,0.1868678526830252,0.17521484715926686,0.16388235129480883,0.15372160792061998,0.1449014510416655,0.13716812619394894,0.12997655495249857,0.12258617794045958,0.11462152206016818,0.10574571536615102,0.09592261867232901,0.08542785641599716,0.07468751332979927,0.06445498033470808,0.05525102815715122,0.04738104982427697,0.04087915787949573,0.03544931727711668,0.03081186115039266,0.026501438927907572,0.022111460547333685,0.01740576513326827,0.012296533777149907,0.007098381784016059,0.002118864332561114,-0.002336895147709548,-0.006067627612959189,-0.009119920193826975,-0.01152260772584865,-0.013572437903716806,-0.015613104485181979,-0.017909331299576198,-0.020650823432450945,-0.023535439054005406,-0.026261248061493846,-0.028449481350931945,-0.029751034986193206,-0.030081487191690473,-0.029212943823216292,-0.027366472054506357,-0.02493969062761053,-0.022383181002001547,-0.02021146765555837,-0.018412549131564433,-0.017028742282541885,-0.015960160954097802,-0.01501532701780989,-0.014130800986619988,-0.012919840912362677,-0.011356868868651294,-0.009544651044110165,-0.0076543795536719375,-0.005997530807322944,-0.004459716498183128,-0.0030483919757025905,-0.0016984651553846439,-0.00029343208953398455,0.0011483817745367947,0.0029173064008356513,0.0050639128852729655,0.007550066914875443,0.01025890955736645,0.012908334469665928,0.015442525747292008,0.01769186718316321,0.019513589326484188,0.020811251204266887,0.021471889930541423,0.02160495719559146,0.021312411066005052,0.020740696985829404,0.020057997728208245,0.019376934933434013,0.018885147118460226,0.018687139002635474,0.018830712817717754,0.0193047442521496,0.02002164984750724,0.02091275006383808,0.021898607768131448,0.02291631457586687,0.023926294606082,0.024928658335531505,0.025894329544562857,0.026822198292924787,0.02770969290763179,0.028547844960014397,0.02938270781750017,0.030117335052527817,0.030702502300315324,0.031097598181759636,0.03129375783110542,0.031244894260799586,0.031169392717002215,0.03136382053392884,0.03219932112048479,0.03403967070219645,0.03689121040435064,0.04108165631940674,0.046648671161063526,0.053428073558851714,0.06102772085008956,0.06864554829390937,0.07572679867398024,0.08163038216086754,0.08583528068849933,0.08801577099798266,0.08794463467807498,0.08592172942866096,0.08241842607991028,0.07806439531359002,0.07351659426527514,0.06920695826385025,0.06558508787430213,0.06278518650706821,0.06069641288051252,0.05901741753256761,0.05726644265315925,0.05518399181118437,0.0526056087709057,0.04957854487656706,0.04633820737410171,0.04312880798306018,0.040311520453137406,0.037993875066332235,0.03596622044025902,0.0336589972156358,0.030138041456989704,0.024518333872031145,0.016040901427751567,0.004421965706865075,-0.009898744075380186,-0.02566929760138942,-0.04071577108464026,-0.05229464848213873,-0.05743910427004435,-0.05345648536639617,-0.038465016384951645,-0.011781884042543456,0.025732794957017777,0.07167902550855917,0.12236499679649207,0.17328016689078027,0.21980806883192702,0.2578422009566578,0.2844298925810334,0.29818647895938033,0.2994096756822225,0.28997510093235124,0.27281626531627107,0.25136454216546283,0.22892572560883023,0.20811951832485615,0.190664756020214,0.17712935893727674,0.16713278336985166,0.15966497225828016,0.15343177216415696,0.14738980920078185,0.14077205553914363,0.13328306600175352,0.1250737049418736,0.11656934479600913,0.10842901837761683,0.10117749170656358,0.09515590239364378,0.09048243762546701,0.08704767201925925,0.08469562044626898,0.08314372897240872,0.08209834099058172,0.08128868093450903,0.08044541957685773,0.07937400238500113,0.07781428374717174,0.07548201789751531,0.07209492424355103,0.06740391298870982,0.06131925633062313,0.05387823499257827,0.04531197031425188,0.036047462121775516,0.026671818512866513,0.017832022789813405,0.010154243908800306,0.004124441325306017,7.86325166209405e-20,-0.0022066338729182108,-0.002821049950628626,-0.002302019846591067,-0.0011906778839133954,-1.3429637362564326e-19,0.000819651178258861,0.0011837983012874002,0.0010698004254888413,0.0006032665310774026,2.016309526787702e-19,-0.0006655594860782456,-0.0009446640934228894,-0.0008289362688841608,-0.0004495672606250351,-3.2621309924997305e-19,0.00022838983624506957,0.0003560800824341686,0.00034303360252968995,0.00020402940551785757,1.2496368021572833e-19,-0.0002699538313879433,-0.0003848103010298163,-0.00033815066587079346,-0.0001831557289577209,-1.8641674907337187e-19,7.52246386208129e-05,0.00012239384430301665,0.00012208780034215236,7.469961045008128e-05,7.225395570257668e-20,-0.00011816806988043771,-0.0001657909652745593,-0.00014293740577174557,-7.568029589656801e-05,-1.0087538626053282e-19,1.2560525059595142e-05,2.560833422361099e-05,2.9779551232245058e-05,2.0355463312289945e-05,3.0444757420080923e-20,-5.965132083617806e-05,-7.973966156809442e-05,-6.482414317189546e-05,-3.1915294174798035e-05,-5.158585267466234e-20,0.0,0.0,0.0,0.0,0.0,0.0,0.0,0.0,0.0,0.0,0.0,0.0,0.0,0.0
0.29818647895938033,0.32111615779373553,0.3199896988043028,0.29891017313714835,0.2655632398858063,0.22892572560883023,0.19672526383161817,0.17398196597421073,0.16194965982278464,0.1585562182294637,0.15966497225828016,0.1606487372723642,0.15812637868239468,0.15066694308962153,0.13893163896385735,0.1250737049418736,0.11172097911221304,0.10109846631427742,0.09430208921636263,0.09115246500789435,0.09048243762546701,0.09071248305134717,0.09040136587568598,0.08870118618223843,0.08549638721045048,0.08128868093450903,0.07695326793571415,0.07333656990539454,0.07110794472538012,0.07065215366608178,0.07209492424355103,0.07543269958217771,0.08044839008374784,0.08685149661672405,0.09424320978129985,0.10211463504590979,0.1099364414482518,0.11710879447828762,0.1232156002390634,0.1281380966469459,0.13213434584826855,0.13585499833518638,0.14004157584032118,0.14539257515955645,0.1522825466103098,0.16058064859653884,0.1696406516191075,0.17829670076624732,0.18518912249471114,0.18905515378624316,0.18902695134480915,0.18470801656939392,0.17673901837752873,0.16599087578603527,0.15363464338053237,0.14090171919236794,0.12872978436080337,0.11796950275532023,0.10871929268527478,0.10057007447866681,0.0927764870399267,0.084416289768103,0.07494702662878158,0.06398838284165552,0.05157939201782958,0.03818261293458092,0.02451198683409582,0.011588285060855135,0.00019801096988600342,-0.00916881481997034,-0.016411261170764864,-0.02185837695679149,-0.025989997463566266,-0.02950637256365911,-0.03304946679500882,-0.03703181617094886,-0.04157893046685843,-0.04637936087645885,-0.05098379819774929,-0.05488041309870666,-0.057652371171132845,-0.05913301640093735,-0.059336568670824166,-0.05860146519303294,-0.057416889034809605,-0.056268671495857146,-0.055542721724704425,-0.055246290427914096,-0.0552499952215554,-0.055252496636586,-0.05488497182058144,-0.053899000904055916,-0.052016054691681794,-0.04930972655525009,-0.046052865252030624,-0.04262070989065264,-0.0394616350659333,-0.03665287010411646,-0.03427530772591311,-0.032247202446645716,-0.03035644796072385,-0.02844937154343625,-0.026089903286151482,-0.02316607614595898,-0.019730229799942076,-0.015973335301245475,-0.012287997614179895,-0.008792347890694469,-0.005738505527048293,-0.0033096674537306187,-0.0015902226417670977,-0.0006801245919078429,-0.0003178790335855524,-0.000313776633047891,-0.0004639075774396366,-0.0005895970166833373,-0.0006614341316218739,-0.0005426167759527625,-0.00025231126935749027,0.00011481652585491252,0.00041102860840042316,0.0004128614943498656,3.137869017031579e-05,-0.0007596017956191664,-0.0018887930616720383,-0.0032042496168512404,-0.004547090764646424,-0.005712682539759933,-0.006526337253376868,-0.006891950265117023,-0.006819527842102904,-0.006434542735571686,-0.005935827681223377,-0.005487215286839517,-0.0052002119140696305,-0.0051044408314315495,-0.00509131385862533,-0.005094362679302087,-0.004932128765739715,-0.004414554077222463,-0.0033893538207601984,-0.0016717375749996353,0.0005926941050687156,0.0032530372522007827,0.006092018541251996,0.008883943720581928,0.01129551121435888,0.013431245949436026,0.015530142872830756,0.01797279667430756,0.021157241261924056,0.024916508310621352,0.029730070180191696,0.035704722751041716,0.04275453836534972,0.050564969257015015,0.05823514880985734,0.0654279865774896,0.07166216685670328,0.07657864667487008,0.07997269725210598,0.081513346627283,0.08159226409837635,0.08064180997720785,0.07920702520246771,0.07781426373594601,0.07661790956454939,0.075946369308974,0.07576679337874645,0.07581408925148121,0.07565583021978599,0.07466561162676538,0.07261046773244025,0.06944710392912451,0.06545036779817534,0.06114670510957967,0.05702003143488179,0.05364206422509763,0.05115573952307803,0.049156764430239745,0.046637579999373305,0.0420147857324942,0.03374144152623691,0.02054782151388177,0.001984167245889775,-0.0211709893455612,-0.04674364531509914,-0.07107888640334954,-0.08951310089348959,-0.0970045265807268,-0.08897955869049572,-0.0622197452787506,-0.0156258376170777,0.04933051940388112,0.1285610092747622,0.21578252927594058,0.30335409943892666,0.3834199040909168,0.449091881260258,0.4955120708510172,0.5205446172423769,0.5249544002332361,0.5121019886305596,0.4870887661191104,0.45570673385498905,0.42333597620140545,0.3940173079656956,0.37002917094883553,0.3516907072261995,0.3377684396251237,0.3261273351604341,0.31443743563074505,0.3009829845552717,0.28486603354841256,0.26619328477395315,0.24591139695127673,0.2254093747227391,0.20624771819259458,0.1895897805759349,0.1760575908268588,0.1656954587421194,0.15804314188025015,0.15248228391290372,0.1482489054484297,0.14466804306288253,0.14123859509095665,0.1375987418973879,0.13358048150944313,0.12896433632261048,0.12347611007906122,0.11678173143979394,0.10851534085169966,0.09846627916780187,0.08656753156111197,0.07303125887860687,0.05839086571989697,0.04347915663805672,0.029276250578268395,0.016795692732872344,0.0068733333696851025,1.5310429893859308e-19,-0.0037309993681957417,-0.004801573438402073,-0.003942174621660358,-0.0020503899917629245,-2.59530691666635e-19,0.001423322797525232,0.002064761292900387,0.0018730200938431368,0.0010596118416964927,3.7826101039858083e-19,-0.0011718456356157058,-0.0016665959390224656,-0.0014652619295217636,-0.0007961715474701489,-5.962115770693765e-19,0.00039748954690788335,0.000624712541831957,0.0006060143740627044,0.0003625924594150648,2.3995632956302394e-19,-0.0005046165152195804,-0.0007154182892119007,-0.0006247764075811916,-0.00033601389445990916,-3.5984687729563207e-19,0.00012518404414208005,0.00020505226615199633,0.00020566327980103371,0.0001264018260195641,1.2511727778303095e-19,-0.00020723988181846087,-0.0002897110775689555,-0.0002487345782341322,-0.0001310575555960091,-1.7708860386956267e-19,2.0345951946591442e-05,4.148122272546438e-05,4.823789734008515e-05,3.297244951444777e-05,4.9315420219747286e-20,-9.662517303418436e-05,-0.00012916492860006357,-0.00010500428092747757,-5.169744406072635e-05,-8.356046221498141e-20,0.0,0.0,0.0,0.0,0.0,0.0,0.0,0.0,0.0,0.0,0.0,0.0,0.0,0.0
0.5205446172423769,0.562733442714729,0.5642974279040585,0.5324347043494394,0.4803670399488659,0.42333597620140545,0.3742504410043651,0.34112378412690897,0.32542450357564456,0.32294903928185037,0.3261273351604341,0.3268176548190999,0.31937196405708534,0.3017813320443053,0.2758272589791508,0.24591139695127676,0.21711164682728168,0.1937340712840861,0.17788773030175253,0.16926724828314194,0.1656954587421194,0.16409306297319562,0.1618010543251234,0.15720758702324975,0.15006020838613135,0.14123859509095665,0.13216621914841634,0.12437947857138386,0.11897432271710483,0.11645431199997992,0.11678173143979394,0.11952950247616122,0.12418232049901157,0.13019244508948338,0.13703867146415066,0.14421264365815753,0.1511879012834225,0.1575455101250613,0.16301667140776757,0.16760585383211885,0.17164355587652114,0.1757165129101556,0.18055808838707055,0.18677004888291585,0.19459759003464733,0.20377929032860062,0.2135177395865282,0.22269907714612105,0.23010136153936747,0.2347015321638858,0.2359150247806801,0.23342012414926164,0.22825010302978674,0.22123382117599738,0.21331006561412594,0.20534899421141872,0.1977263372842375,0.19117195601914538,0.18553981796434432,0.1803115093917865,0.17478296364215734,0.16805307235486105,0.16002618078056408,0.15055740947391108,0.13983811738719165,0.12836909649245096,0.11666429146587597,0.10574051398506738,0.09617797026281516,0.08826296647615725,0.08195522934274459,0.07678976677223458,0.07248027934425987,0.06849997872573273,0.0644108360706013,0.05997447563021412,0.05507057714268861,0.050097160188922615,0.04539476097051899,0.04129024184689869,0.03799372191768366,0.03542659521716234,0.03358155400418534,0.03216686177128644,0.030840408629081738,0.029326181974720335,0.02739071246979034,0.025284436308441925,0.02325077910235125,0.021609131515453066,0.02065864203175701,0.02046053754716474,0.021215205595384926,0.022732805347456274,0.02467282576398966,0.026655297321167136,0.02823858526253477,0.029510949445454685,0.030519601530449098,0.031466084285575964,0.03265195261057727,0.03423327204019034,0.0366919906300055,0.040072857129148425,0.04420806821599691,0.04876529829970804,0.05318405615032659,0.057283219728447174,0.06072161685354405,0.06327533130098309,0.06487864398883882,0.06549174042076047,0.06553035925017196,0.0652570661084355,0.06490816454734173,0.06465262206226963,0.06443798081479625,0.06442352081020151,0.06451964736470611,0.06457567224950242,0.06442660013570041,0.0638114787670324,0.06281631109765758,0.06148549743255301,0.05993330830287729,0.058312338612801315,0.0566493726331739,0.05518438823970838,0.05398204346670898,0.0530208092444892,0.05219807708990223,0.0512425679250712,0.05011144628347915,0.04872416336880846,0.047078499891386016,0.04525368838744793,0.043294925030218305,0.04146751926602559,0.03995639904894403,0.03889064800109303,0.03830929968499363,0.03807656060660842,0.03812975764742449,0.03832088407031027,0.03851514333071462,0.03862624640111956,0.038625508617535116,0.03857634372361827,0.03855687967307163,0.03865514859074561,0.03894319311724548,0.0395130460146929,0.04030997473112849,0.04122084976194157,0.04209800745611668,0.042815972779129845,0.04305290154945332,0.043178610115913584,0.04354670777460911,0.04459228004367822,0.046688752441014204,0.049395564236441473,0.05322868433914576,0.05816639816419004,0.06402665884855645,0.07046644302395602,0.07647705367473877,0.08204422238606376,0.08692470051385473,0.09099951877789761,0.09424413360689782,0.09624032501460199,0.09750133372003636,0.09834851918959973,0.09914085859524377,0.10017862429911109,0.10126666386444451,0.10265818398698065,0.10418651110914641,0.10549828008185827,0.10611311499132434,0.10531627826746716,0.1029924350579658,0.0991814252468505,0.09428305280579458,0.08898171329151257,0.08392935874347582,0.07985026202034952,0.07691947989430677,0.07465141588602817,0.07185031159170081,0.06675212920737734,0.05747618931884314,0.04246231426759699,0.0211001656067492,-0.005758540796537536,-0.03553308952095531,-0.06388557787413118,-0.08525163850672839,-0.0935836920240152,-0.08336739318477589,-0.050721119476597964,0.005751329800763831,0.08428788794706635,0.1799486965237239,0.28513876714497033,0.3906294359016941,0.4870363947579001,0.5661942540924726,0.6224824363140765,0.6536449274747166,0.6609421746837573,0.6487400181704439,0.6233248384527117,0.5915722216148404,0.559575261563581,0.5315407406815702,0.5093847073188016,0.4926136958653882,0.4789956978794093,0.4655055956524453,0.44928515562809274,0.4286355479507519,0.40319099923916046,0.373976386132768,0.3429884099169189,0.3124878137881398,0.28450989588011655,0.2600831737352352,0.2391060247991308,0.2204712241813926,0.2024097765182371,0.1832439415068452,0.16164689335164079,0.13713612728802993,0.1102356120906963,0.08232498883629438,0.05548378033883586,0.03179835008771152,0.012978464930204433,-1.4401453120240165e-19,-0.007107784022642805,-0.009084324733572326,-0.007396317402647158,-0.0038113081046086475,-1.3961664089380253e-19,0.0027993861043391173,0.003961003877230165,0.003501951407769123,0.0019312905771468533,3.132076949656132e-19,-0.0015298678610549598,-0.002268107582485272,-0.0020885244316106626,-0.0011934103910023123,-4.385916580443073e-19,0.0008829613661668042,0.001384020368953522,0.001339180477327109,0.0007993513502302649,5.411410559872108e-19,-0.001075774299093803,-0.0015317846887226987,-0.0013440556621847426,-0.0007266093037487196,-7.830334184772317e-19,0.0002629359406356067,0.00044135255518926446,0.00045134034517022004,0.0002817439589019444,3.0068708912468275e-19,-0.0005175825207039322,-0.0007158244797747816,-0.0006068755730077186,-0.00031501615303219574,-4.435782465746954e-19,3.841094730739947e-05,7.831204283470478e-05,9.106791060027868e-05,6.224840323126394e-05,9.310215675705062e-20,-0.0001824178313075292,-0.00024384935536290957,-0.00019823667687529436,-9.759915903450587e-05,-1.5775307636364034e-19,0.0,0.0,0.0,0.0,0.0,0.0,0.0,0.0,0.0,0.0,0.0,0.0,0.0,0.0
0.6536449274747166,0.7092222011470184,0.7153895048527577,0.6812130836427917,0.6230615568127684,0.559575261563581,0.5062814473064791,0.47239051877903854,0.45892280497562216,0.4599293140594957,0.4655055956524453,0.46538342803469057,0.4527413399012678,0.4256093235279969,0.3869371911115484,0.3429884099169189,0.30077370318650765,0.2661296755465436,0.24189555318638878,0.22765353714475892,0.2204712241813926,0.21619840499590884,0.21123646745801875,0.20337495202143183,0.19221682680231184,0.1788827021785014,0.16522750871269418,0.15325254300513477,0.14435240691867288,0.13909629275224697,0.13729418017561026,0.13822282182955242,0.14105758131516874,0.1450080039280179,0.1494412356419204,0.15388501814999028,0.15797403431261517,0.16154037547627983,0.16459604722697566,0.16740278730350408,0.17047585612437033,0.17447923975829932,0.18009144235007205,0.18773765326442485,0.19739688373443887,0.2085086906322104,0.2200153376477713,0.23063506497573105,0.23911590241555059,0.2445430232999223,0.24654152514005045,0.2449702788250887,0.24118936437602237,0.23610357000371998,0.23057930555639652,0.2252930967378736,0.2203087711919728,0.21620297966174748,0.21258633644463207,0.20878026123249183,0.2040446683356968,0.19753439732972136,0.189444850997094,0.17981889373564836,0.16899592129311816,0.1575577868224867,0.14600996603152588,0.1353467240912452,0.12597174605203915,0.11795646723084684,0.11107090530927662,0.10475812934331098,0.09873925536496649,0.09255841499175964,0.08592159347143655,0.07878072490844122,0.07124407136166766,0.0638746732849447,0.05709713941642413,0.051247711593045926,0.04649054450760583,0.04271149059849051,0.03980265059027977,0.037381446529345976,0.03503342576349954,0.032441333872165766,0.029406594568719087,0.026176081708302146,0.02302203157917655,0.020307781650746145,0.018392123236725705,0.017449789325433424,0.017712924003054825,0.0190203316271364,0.02101736489736283,0.023257500708280903,0.025208700733329422,0.026765710361854846,0.02775981873755144,0.02817285476978789,0.028122878179836105,0.027675299625649987,0.02729126944216347,0.027102573513285544,0.027127653360189963,0.027297410481732707,0.02735985679925504,0.027426376490839,0.027370031433402026,0.02707637231316461,0.026471942783629313,0.025399822465974716,0.02411086669146115,0.02265346370600497,0.021078985273638988,0.019449445040192873,0.01771200497193067,0.01612554323274358,0.014733659184929731,0.01352293049183599,0.012426947296756434,0.011228682813157607,0.009970638740085915,0.008572648681144027,0.0069976979452910475,0.005273709918321427,0.00335880435103312,0.0015471579902531128,9.125907231300763e-06,-0.0011388713647535122,-0.0018795274601135787,-0.002466968614347036,-0.0029280018450929266,-0.003425539215065232,-0.004085310762883557,-0.004951038877363637,-0.006086245654150258,-0.007211964239829933,-0.008069208738110463,-0.008400017272874885,-0.008022550294613698,-0.006974426439534491,-0.0052604824720914505,-0.0030536851373181547,-0.000584391970691676,0.001918966842142286,0.004205504816430414,0.006272279820883921,0.008159662276373965,0.0099787435953614,0.01186048397889827,0.01383769314017738,0.016017215109602682,0.018381830950299317,0.020859544983852056,0.02335498211901086,0.025706265984013904,0.02796238903435639,0.030173861524222842,0.03243612745665676,0.034849480259123454,0.03737939985558586,0.04011136618711765,0.04299163184237188,0.045910278929463165,0.048739331611200205,0.051174080706995764,0.05343951872740563,0.055809975489966135,0.05871130365706957,0.06262918296327696,0.06764933538081153,0.07434251189970904,0.0828852712375155,0.09316154464195864,0.1046986248416645,0.11639511541563458,0.1274194404221909,0.13673302230798692,0.14340736823789801,0.14676806672005205,0.1462955483939403,0.14231040781854962,0.13548618568566473,0.12685035039135248,0.11758583860618187,0.1086953679176965,0.10109492047657032,0.09524428622758088,0.09114809408426212,0.08840361049231168,0.08634468322424589,0.08422358536301117,0.08143885186956677,0.07769289225096744,0.07307482610445215,0.06804064021594862,0.06330130884440169,0.059633708999528814,0.057675297391777826,0.05774604171659259,0.059740386065466416,0.06315668949164154,0.06718906803460571,0.07095996339278639,0.07379638535854426,0.07548511123133053,0.07650758945807637,0.0780293379455888,0.08179809126053822,0.08984672900049596,0.10404593640085119,0.1256938366051686,0.15500515344257115,0.19089384456982483,0.23097581093329822,0.27182613748786916,0.3096014679356896,0.34058560761961926,0.3619139055677299,0.37210489286610043,0.3712813513297241,0.36120365091131795,0.34469104505768544,0.32503869446327766,0.30530248356544654,0.28761921563359905,0.27301986282958024,0.261082197670199,0.25028195205174864,0.2385000742647926,0.22356657758110807,0.2041282404346939,0.17967317488707812,0.15082754844208668,0.1192500371323963,0.08723105393855349,0.05744148129813719,0.03212156807272139,0.01278547501704055,-1.7491543054678373e-19,-0.006674020260655812,-0.008329235008346356,-0.006627280340251479,-0.0033405031905859896,-4.679114370768028e-21,0.002315329619437593,0.003225388326539203,0.002812751513978513,0.0015328046078643253,8.280407119481035e-20,-0.0012543617634847076,-0.0018252866712756988,-0.0016511944693172855,-0.0009279098825396136,-2.2203630790062945e-19,0.0007391983204336787,0.00111336762869593,0.001039252978492302,0.0006008108290588661,2.626550605419504e-19,-0.0005740687523734889,-0.0008545129821330003,-0.0007866718740756474,-0.00044781710138684,-3.3951768125458815e-19,0.00026153285207585505,0.0004307463051493668,0.0004339445118823721,0.00026766460071945587,2.6975869036425047e-19,-0.0004511316104970186,-0.0006289530103529566,-0.0005382937468362182,-0.0002825779381649827,-3.8578329686770115e-19,4.1551970418863345e-05,8.471594468282119e-05,9.851491287332843e-05,6.733871437710373e-05,1.007155078093089e-19,-0.000197334896994417,-0.0002637899325837924,-0.00021444731543679484,-0.00010558024868932319,-1.706532023302619e-19,0.0,0.0,0.0,0.0,0.0,0.0,0.0,0.0,0.0,0.0,0.0,0.0,0.0,0.0
0.37210489286610043,0.40286432511363734,0.4046650845877229,0.38252382526009965,0.3457858469789736,0.30530248356544654,0.2702937875443491,0.24667255751280814,0.2357273288157759,0.23472602744643167,0.2385000742647926,0.24134928957543386,0.2392867255068478,0.23077239081252995,0.2168549598769528,0.20037527431918697,0.18461348645754924,0.17237255425308715,0.16496530086446154,0.16209681980766255,0.1622504743735813,0.16334555865030942,0.16365830195543166,0.1622031572575033,0.15891878037381835,0.15448556239270053,0.14991960176924055,0.14627559675733942,0.1443137257406417,0.14443093459526832,0.14672065041181973,0.15109172188736278,0.15737123112729326,0.16531956884942636,0.1745858576727559,0.18464816242364512,0.19480844635627995,0.20426406436117645,0.21228343031832972,0.21840241302650748,0.22257567443547052,0.2252215568498166,0.22708162557397438,0.2290117052869843,0.2316962071085722,0.23541063379308905,0.23991404070135927,0.24446433706792223,0.248027959894514,0.24955195401348557,0.24824559315070754,0.24360221987222627,0.23618484152726363,0.22661846414802317,0.21578523983201403,0.2046377155632153,0.19383584955740216,0.18418944651725908,0.17577295336741083,0.16825058558363357,0.16102983797572307,0.15332680862558917,0.14487292174279934,0.13540440022476188,0.12496364451119986,0.11389157066471903,0.10261201461899441,0.09192891666414216,0.08230399393733404,0.07394078322500205,0.06675330335371496,0.06030468779584318,0.05429814856577702,0.048246977237874064,0.041785552707408545,0.0347857700028499,0.027302763203971608,0.01989183854740813,0.013055942756292372,0.007261943343443313,0.0028182366519848446,-0.0002958848324884402,-0.002114653032600741,-0.003042161810158476,-0.003586605883003163,-0.0042095212637563205,-0.005306198527952725,-0.006746772310463078,-0.008392192491552207,-0.009983656374845376,-0.011237279179497486,-0.012066202077135848,-0.012191814877132398,-0.011753205477301904,-0.01103531702918472,-0.010351973206943933,-0.01005350155178107,-0.009966731244108977,-0.009995543157943286,-0.009922780619001864,-0.00946666723439038,-0.008495342685990467,-0.006612130568548757,-0.0038587199078476252,-0.0004695745682913382,0.0032028361777582137,0.006670208601382955,0.009824657513244768,0.012449550676777922,0.01445162409035812,0.015872339589906807,0.01676591140943063,0.01750601689317019,0.01827675301115315,0.019188804720271815,0.020266831655722493,0.021388145833687262,0.02255191323090383,0.02359459334266082,0.02434295932052278,0.024661323721538175,0.024448669937280208,0.0237933885187438,0.022785765710992712,0.021560848481408507,0.02027065366758871,0.019044557386869828,0.01799974756007634,0.017158341752369983,0.016478901720494002,0.015879983613639237,0.015293736038964091,0.014631691147737694,0.013850264988982255,0.012949192240824619,0.011968487859855353,0.011047623008631826,0.010188190610610949,0.009409297280533519,0.008704722757809358,0.008056992106071468,0.007578065213961061,0.007147117675522826,0.006710461801340722,0.006216021374150789,0.005631158864029298,0.0047400099234778436,0.003809278805708404,0.00308278845664691,0.0028236225397874266,0.0032053256219871248,0.003655358745421661,0.004509870947147658,0.005768070009516438,0.0074042456291992746,0.009338584313889476,0.010943269334638859,0.012408590235347603,0.013691011564692119,0.01474351479231619,0.01547184300579183,0.0153591600317376,0.014570131082063436,0.0131718588450685,0.011362411681093287,0.009430708838787138,0.007426591194289229,0.005787430994869275,0.004658081342809328,0.003963116516505807,0.0033895746717824493,0.002327786842634947,0.0004125494130576959,-0.0026221655680278362,-0.006718168868607229,-0.011460157118413458,-0.016258724857910238,-0.020329800157083768,-0.023202002160103315,-0.024940398038561542,-0.026309888908609365,-0.028767034481954508,-0.03407641277110246,-0.043912141212797545,-0.05921987036501138,-0.07963366559379981,-0.10309762580307384,-0.12573403069510866,-0.14223100642996095,-0.14655131718240097,-0.13295744227899026,-0.09716078568758493,-0.03734266325270684,0.04512767055732093,0.14552694186119042,0.2562164524752481,0.367654161225804,0.4698347562184822,0.5538546237946895,0.6133356291122343,0.6453903472294864,0.6509283400469862,0.6342498300253712,0.6020007354637751,0.5617516795527315,0.5205071579582388,0.4834692800233329,0.4533369187320466,0.4301936118705424,0.41202189350577295,0.3956239686869913,0.37768429215040655,0.35574374154066485,0.32875927729859383,0.29726825853231137,0.26310764606952003,0.22882337758917923,0.1969876464249447,0.16955291881857748,0.14746899842393024,0.13059132345204882,0.11787039080562942,0.10774586207131889,0.09859711341863067,0.08915281755849334,0.07875007585607215,0.0674072060180262,0.05568470219941002,0.044468339023761905,0.03465982022867642,0.026908828260095465,0.021456398755099852,0.018045537647048714,0.01608208556714879,0.014794881469192861,0.013454414130047733,0.011604730236290342,0.009016960542904165,0.005898310248361163,0.002711940028466694,2.783312221385012e-19,-0.001733047023775412,-0.002419186915896702,-0.0021328347103713352,-0.0011804499581930645,-3.6085074340129843e-19,0.0008452612661992214,0.0013021378556681252,0.0012440763365370448,0.0007356746331879003,4.793689883260552e-19,-0.0010042926243560943,-0.0014184689041025233,-0.0012341764256246835,-0.0006612818081734833,-7.083512416695115e-19,0.00022364080620096817,0.0003734693384775542,0.00038060024574134506,0.00023703712329676353,2.3426267384448945e-19,-0.00043694287665843194,-0.000603539591193837,-0.0005110522878349861,-0.0002649593172454341,-3.5854155135690974e-19,4.494506083236677e-05,8.007306136266154e-05,8.556054753737651e-05,5.521727087257666e-05,6.785381653550324e-20,-0.00012421368094182763,-0.00016896606319166457,-0.00014040544393617953,-7.110751919861644e-05,-1.0692785205228127e-19,4.688111059573023e-06,9.55809684080378e-06,1.1114968746816837e-05,7.597506650741508e-06,1.1363251399913999e-20,-2.2264357230559846e-05,-2.976216260947001e-05,-2.419506995842926e-05,-1.191211696011854e-05,-1.9253988610678702e-20,0.0,0.0,0.0,0.0,0.0,0.0,0.0,0.0,0.0,0.0,0.0,0.0,0.0,0.0
0.6453903472294864,0.6966668465213003,0.6974583377005296,0.6569159357545429,0.5916117063912416,0.5205071579582388,0.45965665014209234,0.418614167994385,0.39875038188180395,0.39435556267613836,0.3956239686869913,0.3923545560080694,0.3774546383665745,0.34864427765435674,0.3085358245951163,0.26310764606952003,0.21930330434171236,0.1828219241681715,0.15651824213819746,0.140051773536603,0.13059132345204882,0.12417628216112547,0.11717102321143193,0.10732356218615018,0.09416347791232488,0.07875007585607216,0.06301393167085585,0.048925294370372525,0.0379259876161321,0.03063867202791736,0.026908828260095465,0.026089406705160252,0.027247714243791035,0.02948975733143299,0.03208295651138437,0.034508179810591615,0.03650591360680243,0.03797790342542093,0.03908909005083388,0.040256575497893174,0.04210753136108775,0.045396111989086795,0.050696991082771946,0.05828229418323549,0.06794773001655822,0.07898102358555678,0.09030943136079597,0.10062894851326147,0.1087689660387062,0.11393244441168639,0.1158545158100258,0.11451845669199211,0.11122250023390785,0.10677845983401797,0.10192616967678124,0.09723293278917666,0.09277321414250617,0.08908699472193927,0.0858771641674207,0.08259334953122571,0.07861134976832752,0.0732030656157073,0.06646627716438426,0.05836275951648897,0.049119112894621175,0.03921061926193635,0.0291289271154037,0.019794102455350626,0.011699499727005548,0.0050633427770711845,-0.0001901112444548215,-0.0044647857000699705,-0.00808307309254547,-0.011530759650427625,-0.015192722156725407,-0.019250243243373447,-0.023700687216618783,-0.02818730702338238,-0.03233547346035243,-0.03578800182476143,-0.038310375242292076,-0.03988759042749411,-0.04062804166794927,-0.040822076606345084,-0.040815729892157294,-0.040906783745982785,-0.041292650485952494,-0.041927752275088756,-0.04266086080911266,-0.04326068038845159,-0.04350319224967349,-0.04328327953532528,-0.04255503017929759,-0.04145801833168553,-0.04022038030475955,-0.03907231376790497,-0.03821014849716239,-0.03754444998163431,-0.03691743711525458,-0.03605596843009727,-0.03464143528613646,-0.032474810248741715,-0.02928564482851696,-0.025117049230997095,-0.020205122057998563,-0.014922335980483523,-0.00976371742456463,-0.005003941464488185,-0.0009239015681570968,0.0023375541721098445,0.0047967633251694165,0.006534091608047075,0.007875220930508804,0.009063576021407302,0.01029160224246549,0.01166489464266624,0.01312465912858101,0.014667661855571413,0.0161730812637,0.017501506714021592,0.018533025960163062,0.01913449774052276,0.019360368621199785,0.01930814726233059,0.019124387326165525,0.018958962857414025,0.018858548284004985,0.018899592836376797,0.019067121869980948,0.019275639777662685,0.01938489975466499,0.019176428717810806,0.018546347302224965,0.017472100703850933,0.016031513456577908,0.014384514930920356,0.012692047928227673,0.011178460261354257,0.010047580879939537,0.009436532480515968,0.009384130107175722,0.009795081019359326,0.010529364821259473,0.011437559194305252,0.012387010514508396,0.013286857435421053,0.014116614531075603,0.014855230119693422,0.015561573813188859,0.016315468709155012,0.01718958476366638,0.018290280609561598,0.01953988339797015,0.020872709446112067,0.022196893261548025,0.023427523329193473,0.024210666306928752,0.024884286464012497,0.025774854749438934,0.02726931852864822,0.029665461894720562,0.0323434578817547,0.03577310435054659,0.03994702614592924,0.04477037312449359,0.05004007857243317,0.05484911593978544,0.05935511642336674,0.06346746660891826,0.06716053496350322,0.07041469525014578,0.07269160244373847,0.07436132890465579,0.07561529454629992,0.07672473881088179,0.0779662407731095,0.07916421300207414,0.0806608527560268,0.08241788171734468,0.08418601562121085,0.08551778629607322,0.08562729812667205,0.0842521849121985,0.08127606179325121,0.07697467349969113,0.07199279953269525,0.06706332896829345,0.06309483942403347,0.060566543321728804,0.05932874802799994,0.058467812769317305,0.05638384173433346,0.05113536401499968,0.04094692264573256,0.024855720819891576,0.0033101693830723125,-0.02143808092042128,-0.045245594229406355,-0.062464526432310104,-0.06669267771959907,-0.05184747400317268,-0.013379743948297173,0.0506604087419203,0.13882961555717088,0.24610923153000466,0.3643615011465655,0.4833971667209328,0.5925555632580608,0.6823483911175806,0.7460164042522544,0.7805704762963035,0.7870946125892554,0.7703302512831506,0.7374441468800266,0.6964912104072367,0.654801447476728,0.6176535678597453,0.5876589814381067,0.5646207470009638,0.5462122695177632,0.5290324186571524,0.5097337153903063,0.4861243825422288,0.45752050497793845,0.42483222291451395,0.3901266825557171,0.3558625672604768,0.324265068182515,0.2965179328502534,0.2725648176464469,0.2512209464542817,0.23055687848680606,0.2086697976032039,0.18406519078582867,0.15618740379986212,0.12561047322714086,0.09389178768108125,0.06334776008865185,0.03634851897286057,0.014854068438240726,-1.459073877875618e-19,-0.008142863133914643,-0.010421109552002556,-0.008496518555320156,-0.004384473570656533,-1.772892988878674e-19,0.0032243913392425065,0.004569939213918824,0.0040469067543685636,0.0022353288431958863,3.917112975042965e-19,-0.0017988018451424023,-0.0026623251188992525,-0.0024468816067771664,-0.0013953152573384802,-5.480382876158268e-19,0.001011187130272605,0.0015880047203079657,0.0015390873458815575,0.0009199821336155017,6.310560231730934e-19,-0.0012545632131387386,-0.0017837039269779898,-0.0015624737434703087,-0.0008430907721760012,-9.171314874934602e-19,0.00029936468122301386,0.0005024124432701593,0.0005137123434944229,0.0003206446973890867,3.4203416360698837e-19,-0.0005886140376297935,-0.0008141156654773482,-0.0006902606918422274,-0.00035833321535211343,-5.044446412117922e-19,4.3768226772448115e-05,8.923443679668746e-05,0.00010376940019071577,7.093035761510376e-05,1.0608736820092997e-19,-0.00020786014320631115,-0.00027785968928142267,-0.00022588528626116378,-0.00011121157963733885,-1.7975532769547298e-19,0.0,0.0,0.0,0.0,0.0,0.0,0.0,0.0,0.0,0.0,0.0,0.0,0.0,0.0
0.7805704762963035,0.8457069318126033,0.8510699005395235,0.8074641644015703,0.7345417655877293,0.654801447476728,0.5872179736606816,0.5431247622083754,0.5240946294133801,0.5232923376427907,0.5290324186571524,0.5291531605760306,0.5152664181279869,0.48470398770617096,0.44061216924831237,0.3901266825557171,0.3414829457091673,0.30153590590717405,0.2737968303158649,0.2580583034731805,0.2512209464542817,0.24881149903230584,0.24678929504748015,0.24259275525359145,0.2355593224023805,0.2265878676468159,0.21732687210903381,0.20948166579934477,0.20416002365018382,0.20172449960404232,0.20195478883935003,0.20433668229652893,0.2084393839353227,0.21395852248337063,0.22066408901465245,0.22823087463495323,0.2360650592824055,0.2433931993717475,0.2493329919100691,0.25315346847953274,0.25450696043055643,0.25351457570820024,0.25082111478643543,0.2473148064185109,0.24385971288313404,0.2410268871623747,0.2388874344732143,0.23714417873914334,0.23515655664594323,0.23217383629955327,0.22754681389419298,0.22042638327747976,0.2115598960668218,0.20113744013099016,0.18954389205208985,0.1773454691926234,0.1648120880757664,0.15327830987630015,0.14315763840275514,0.1345233077970561,0.1271441244910538,0.12023133382489477,0.11382453241618873,0.10739772258093892,0.10054949522084253,0.09313973157833817,0.08506367623243433,0.07717575601778656,0.06998170364087108,0.06389577862240368,0.05913533866562251,0.05546691912551593,0.05292213643303581,0.051067656851139176,0.049413161828616936,0.04756390582561831,0.04514657352947455,0.042495409380480825,0.03986804225357563,0.03759978974984798,0.03599247298561412,0.03504210911532875,0.034975464750724286,0.03558217648052419,0.036515842298302854,0.03741687716830584,0.037847353128310404,0.03801678146897605,0.03805529908126281,0.03822452232169703,0.03884128135099757,0.03997994355196568,0.04208313288843086,0.045100988403255104,0.04878286586831988,0.05275622485059469,0.056435132171376315,0.05978944471821763,0.06262896691513262,0.06489716972351785,0.06667116835019181,0.06793690152586344,0.06917982679534043,0.07057543427822847,0.07220114006736707,0.07403331888987358,0.07580631084361428,0.0775902013181717,0.07921664488174385,0.0805232951781586,0.08139546942955535,0.08166038555960267,0.08153325618300584,0.08112600746396074,0.08057530797108117,0.08001399847987724,0.0794182150407614,0.0789946409745638,0.07875822449217147,0.07866552485163335,0.07863252753019914,0.078441082481242,0.0781393036893994,0.07771003298348858,0.07717760339640176,0.07659653203247434,0.07590836004226077,0.07530305951361663,0.07485609793223463,0.07460953082997311,0.07456053653474953,0.07453358598230278,0.07458355196376541,0.07467503287559038,0.0747852597950914,0.0749031157213832,0.07493404705886599,0.0749683488111628,0.07502397619998828,0.07511438083438947,0.07524569490801687,0.07536762263011038,0.07553572563879221,0.07574832989737858,0.07599982571399334,0.0762810138909896,0.07654134536850264,0.07681600750584573,0.07706893632759254,0.07725214326645978,0.07731633287396233,0.07719742554480098,0.07692171881713691,0.07646387045190749,0.07581470030221654,0.0749989947914759,0.07402552123665962,0.07311901240336441,0.07246071221595993,0.07225190914851985,0.07268165670898946,0.07377777174897686,0.07571785544374655,0.07844265291568119,0.08176200642009208,0.08538012307405858,0.08875534462498756,0.09178422560273657,0.0943193642193468,0.09636648584180761,0.09807858943912769,0.09942841069371676,0.10100385835740001,0.10316766323797608,0.10615172247929491,0.1099502190972721,0.1140424188220743,0.11804884743038237,0.12121987678327582,0.1227273306619785,0.12182184875541649,0.11785382833603368,0.11084626334823741,0.10113797386926897,0.08948012713248303,0.07691439974347515,0.0644891413065263,0.053330021126460854,0.04412864553529351,0.037109382929381304,0.0320069507315338,0.028119640240833108,0.024646146002127178,0.020733799620286004,0.015794927633901553,0.009694820046859775,0.0027871300819253633,-0.00399728497998292,-0.009533928455200302,-0.012694235545429837,-0.012617310637814245,-0.008969647790434205,-0.001902564088562199,0.007782231075710946,0.018890274062481695,0.030132845753354592,0.040425463315082004,0.04932884072238187,0.0570277065910019,0.06440800149921885,0.07288300214452341,0.08402278855590194,0.0992736253800142,0.11935210343451154,0.14401039058311382,0.1719308955894626,0.2008085144289957,0.2278634150849613,0.2501177496189889,0.26502913275577566,0.27097878903440176,0.2675272215025326,0.2556626624244276,0.2373414742622374,0.21517219938493629,0.19190243030880474,0.16985308010292358,0.15074113999415295,0.13519629594767907,0.12289937224672633,0.1128260715832077,0.10355403436665002,0.09390175163895759,0.08294728133323806,0.07035204691498381,0.05641303579160385,0.041913852340546495,0.028047232177580105,0.015933949738270073,0.006438847230753858,-1.2357570679819137e-19,-0.0034476197303242436,-0.0043562657592068205,-0.00350673376917006,-0.0017870713863235846,1.4618349954953924e-20,0.0012792718513703707,0.0017947502907892793,0.0015747112570896338,0.0008626451221165564,5.616078758212512e-20,-0.0006885691180275192,-0.00101260128599757,-0.0009256505686666442,-0.0005255393803649281,-1.2701591217145108e-19,0.0004332913112293725,0.0006563510516573593,0.000615750038926309,0.0003575340066844042,1.8191830834184444e-19,-0.00035373793193590303,-0.0005243866282901085,-0.0004805638631030397,-0.0002722135209931607,-2.2993825604417795e-19,0.00014026427340920464,0.0002374972098101734,0.000244503658087552,0.0001534309149499984,1.6770914486717566e-19,-0.00029197536263384676,-0.0004025527908371232,-0.0003400213323229308,-0.00017571017942078133,-2.5043914075987847e-19,1.9656788801235487e-05,4.00761604309237e-05,4.660397128228668e-05,3.185559850265354e-05,4.76449960389369e-20,-9.335226113782263e-05,-0.00012478982200896539,-0.00010144754980426535,-4.994633537584995e-05,-8.073008145331238e-20,0.0,0.0,0.0,0.0,0.0,0.0,0.0,0.0,0.0,0.0,0.0,0.0,0.0,0.0
0.27097878903440176,0.28990900376728324,0.28613152500375494,0.2635159455189631,0.22928869315218517,0.19190243030880474,0.15871468436817068,0.13446007338718943,0.12035319234293765,0.11445137109432428,0.1128260715832077,0.11108980108900197,0.10591118500452273,0.0958197696076863,0.08136455751175985,0.06459655290536305,0.048165581273689966,0.03439091678846769,0.024597965114402105,0.01889371751294035,0.016367034227518385,0.015595059942238752,0.015104106713675963,0.013860079815666384,0.011455559988935054,0.008082494506511665,0.004381128424713419,0.0010866192281169219,-0.0010960098969555435,-0.0016335097115965367,-0.000202045214495066,0.0033659861192265605,0.008961929907968076,0.016304081373639638,0.02491526981425755,0.03415247725122321,0.043331652024495085,0.051716267743693915,0.05877862146946075,0.06431315243576591,0.06850699971694148,0.07195129461070791,0.07534590882952981,0.07938643519223912,0.08450886913969069,0.09072707104615624,0.09761656543865688,0.10430187343858124,0.10971894697144151,0.11284660660203455,0.11294714237537103,0.10961085472479488,0.10330672319153972,0.09465756535788093,0.08455472644706964,0.07398898592195555,0.06377164343574597,0.05471912249710511,0.04707116513057113,0.04066371671762091,0.035030829468540095,0.029512512737491267,0.023648012310110357,0.017045041066620626,0.009586178565379296,0.0014597053360500935,-0.006923559450368481,-0.01492933877237149,-0.022011024186935773,-0.027784701640463295,-0.03211141879643991,-0.03511930055192138,-0.03712641209106386,-0.03857725498860076,-0.03990551005097543,-0.04142339538511336,-0.043259644846730554,-0.045335174028042866,-0.047438162783252344,-0.04930794837283502,-0.050735371973786816,-0.05164288456157634,-0.05210315764613633,-0.05231791876460953,-0.052540699384964515,-0.052979275213495665,-0.05373546382018614,-0.05466075774847993,-0.05547522073719317,-0.05579324097561615,-0.05522317845320451,-0.05352732074668073,-0.050524678231968115,-0.0463413379162789,-0.041312628349896685,-0.03590465220907331,-0.030683286852227997,-0.025955254359997182,-0.021990393187837357,-0.018888424541186246,-0.016586125964942106,-0.014997233225945006,-0.013743989587424302,-0.012598686822017062,-0.011402276566750255,-0.010080935234480564,-0.008723388669901837,-0.0072909027326642185,-0.005881088090055331,-0.004608063641979192,-0.003575744504019025,-0.0029235898613671958,-0.0026015013007751327,-0.002565648539834855,-0.0027270825387007724,-0.002969823901775549,-0.0032494488394740747,-0.0033988262495989225,-0.0033206804629585082,-0.0029688130390886952,-0.002363903299532072,-0.0016737281694142972,-0.0009642443404254116,-0.00030621736847571355,0.0002695023931642115,0.0007737227460856345,0.0011652625187752589,0.001561850446855642,0.002087125711942094,0.002851736471688029,0.003911348791703341,0.005156979470444038,0.006546744167628608,0.008010728332605074,0.00948719620023777,0.010933646559069497,0.01227045990429164,0.013539987367040561,0.014835444170102317,0.01627371428136522,0.017955944326435654,0.019896459345507666,0.02209507792783635,0.02453087758977104,0.027151867032377493,0.029878816907046555,0.03264894830329543,0.03530796883509081,0.037758055172897105,0.03993146972676502,0.041801689487657466,0.0434945880517253,0.044949719594249024,0.046177819736701896,0.04718976323586392,0.0480126524896936,0.048509022624471716,0.049014308881410666,0.049876850180632544,0.05149952518680703,0.05422361549172972,0.05768857462298053,0.062316508855758575,0.0681082358678842,0.07490548411997672,0.08236564188457231,0.08953114495312041,0.09620221462502122,0.10203121693821368,0.1068171761340029,0.1105076682774149,0.11281574499586874,0.11425166028977182,0.11526111115057006,0.11631755402594589,0.1177794330936644,0.11949667699538029,0.12151633728513596,0.12348822807738814,0.12487188751443981,0.1250511979099139,0.12332648330816302,0.11957595944469773,0.11399108250357327,0.10717323193975875,0.09999706690405269,0.09327040434718717,0.08768923947308056,0.08333609612757058,0.07955358440730251,0.07494293589819152,0.06757494858681042,0.055454321369410586,0.037041654481474735,0.0118642904207813,-0.019003516736985464,-0.05272436013452811,-0.08475083694771283,-0.10938988564426173,-0.12058814064294882,-0.11294996937216245,-0.08280499243331284,-0.02899386353941305,0.04652517218549187,0.1387256870299634,0.24007517974004025,0.3415532264112838,0.4340967767330228,0.5098859262465724,0.5635874793561695,0.593100328852243,0.599663528380871,0.587467199416334,0.5625014011065386,0.5313169547879757,0.49974606724871884,0.47186417612012416,0.44963916991432823,0.432762011582185,0.41926684343581944,0.40639180564519484,0.3914485740254477,0.3727921180762628,0.3499406565660065,0.32368385019202117,0.2957346863850823,0.26809558193982436,0.24267412580395326,0.22049445089790323,0.20158803698514627,0.18507756712496984,0.1694431288366448,0.15323663116733652,0.13522881107220314,0.11488657807545583,0.09253878356248492,0.0692570196324111,0.04678219575164885,0.02687224428849549,0.010992087550053733,-1.298462748229829e-19,-0.006051685718727341,-0.007747872727303297,-0.006317665852026906,-0.0032596971787738002,-1.224703248260116e-19,0.0024063892040076537,0.0034057373844833226,0.0030111612743849957,0.001660448492563582,2.6895222101494007e-19,-0.001293467376583304,-0.0019241694087689734,-0.0017779318030388689,-0.0010194172713905362,-3.6549592242929318e-19,0.000761827530387134,0.0011971522657962374,0.0011608787630956042,0.0006942064790077839,4.803877145907487e-19,-0.0009491810210234678,-0.0013492082052744708,-0.0011815374993195532,-0.0006373293871554677,-6.969166004822885e-19,0.0002234459421978503,0.000376046539600662,0.000385334471652626,0.00024092308525809852,2.5901064055179604e-19,-0.00044741302404037485,-0.0006181813574585358,-0.0005234917991500718,-0.0002713579076280564,-3.8354203274150694e-19,3.2244592032427705e-05,6.574010925121377e-05,7.644819590236731e-05,5.225526855140843e-05,7.81558715005166e-20,-0.00015313312902382872,-0.00020470265724305126,-0.0001664124740416566,-8.193094121293444e-05,-1.3242796509280816e-19,0.0,0.0,0.0,0.0,0.0,0.0,0.0,0.0,0.0,0.0,0.0,0.0,0.0,0.0
0.593100328852243,0.6427484032579467,0.6471065217933971,0.6144120074408914,0.5596029944713556,0.49974606724871884,0.44908752454240025,0.41622571581101386,0.40228205595924915,0.40198854079069274,0.40639180564519484,0.40605987949024464,0.3946896014169257,0.37032228249471966,0.3354772552144755,0.2957346863850823,0.2573759800256106,0.2258062533565165,0.2037529657901639,0.191014586285312,0.18507756712496984,0.18217969440406978,0.17908960999867002,0.17372222010044686,0.16558525081370626,0.15554373354356302,0.14506175336625618,0.1359381927548677,0.12944776406693567,0.1261696885445926,0.1260098999621562,0.12826961693214597,0.13230098617035432,0.137404104238338,0.14299560681349674,0.14861884428558492,0.15378940928761706,0.1584404602870984,0.16264493125080484,0.16672638817397023,0.17122778860901364,0.17664467909535492,0.1836977210265149,0.19277570390865323,0.2038374311273355,0.216324581221646,0.22904939137277042,0.24089701892297735,0.2507182377315708,0.2576792062072861,0.2614213738342783,0.26160317880581707,0.25953824929270297,0.25606600504766147,0.2520273563237113,0.24811853895810754,0.244308246958122,0.2413778393721748,0.23915279182619545,0.23716698401733186,0.23481570408193675,0.23108125729377255,0.22616604865273646,0.22001034701772032,0.21282991463708167,0.20508107978593762,0.196968167067078,0.18957015347471134,0.18339715794668981,0.178683314864801,0.17534645548993852,0.17269211323893097,0.17057841968679394,0.1685465201623811,0.16625420774525707,0.163563591112442,0.16026102808465423,0.15697835460832585,0.15419193642524537,0.15235768007320044,0.1517807267349455,0.1522509993183206,0.1538869702719121,0.15638382628424988,0.15933464647920406,0.16233497989111484,0.1648110158777998,0.16693216017387716,0.16881080634061893,0.17069721757646625,0.17288923304728415,0.17537002943894694,0.17855879721497273,0.18244365427979992,0.18684240747701658,0.1914591177283859,0.1957046177578147,0.1996691703746435,0.20328801908628286,0.20665979843366927,0.21002900240948763,0.21344239263304482,0.21757020094630566,0.2226112464796536,0.2285414908573408,0.2351006299069316,0.24157561344266107,0.2477621846584187,0.25314846839814026,0.25734255101408887,0.26017225740437555,0.26147996552112684,0.26190617933032806,0.2619098703667308,0.2619272575830808,0.2622557810310721,0.26274702820180396,0.263548551730314,0.26434792051051803,0.2647359369126378,0.2643393046577687,0.26272189947577435,0.26014809635250113,0.25684746140588394,0.2531746971716031,0.24950336189336195,0.2458941886099345,0.2427324629156743,0.2399715710076016,0.23738952394827645,0.23466741912895517,0.23126116568621682,0.2272289502300937,0.22255958437321438,0.21740032699344528,0.21201346728138082,0.20649059223159522,0.20135399530177936,0.19678796750765346,0.19282576637981175,0.18935951543380647,0.18599302090896017,0.18274012803887144,0.1794157350326334,0.17590628140991657,0.1722015927487767,0.16821020337427386,0.16434558141087113,0.16079120791775398,0.15767573100038115,0.15504367006374695,0.15267179373431547,0.15068640557500326,0.14890751522463225,0.14713871532362416,0.14523552549898333,0.14255668494059645,0.13985298343815034,0.13752771339081366,0.13598026550421805,0.13542738093421974,0.13474315292497413,0.13458228862207627,0.13477269524430138,0.13512854806991473,0.13549648265528058,0.13486225743843372,0.13415765293529192,0.13378469541227503,0.13416254131261499,0.1355655843763414,0.13720716928922388,0.13969497969036818,0.14291575473700582,0.146711167358048,0.15090401595263306,0.15466398490908173,0.15837516097902068,0.16182588176872217,0.16463707235858147,0.16624244752892472,0.16553430974232466,0.16240659248241843,0.15667759967236353,0.14865901964262657,0.13921296622528137,0.12936714321862103,0.12089155762944176,0.11499922767479606,0.11222956090893041,0.1121834849216381,0.11339402261933884,0.11395938923034812,0.1115912797711581,0.10453160696049085,0.09233141630166491,0.0763668601318979,0.06042341381541428,0.05001256646818334,0.05180215638405005,0.07247934768169174,0.11730597774647089,0.18910269258030213,0.2868703130359459,0.4055760457616783,0.536564932131564,0.6686456561149532,0.790104413308955,0.890296686150523,0.961595427113937,1.0006505165814363,1.0087250242594543,0.99141594110162,0.9569327065867713,0.9143660492977153,0.8717861267808168,0.8346606958181187,0.8053337239505618,0.7827500031449712,0.7634462840962105,0.7429217369801973,0.717037975749254,0.6834621538404572,0.6419157211488146,0.5942319775198028,0.5437041940474087,0.493998638703487,0.4483963384557127,0.4085970716435455,0.3745199158388692,0.3444866511146201,0.3157446955022312,0.28563556092805664,0.2520015716112735,0.21397238655325893,0.17224332555731006,0.12886722674779938,0.08703308436067912,0.04999183071223948,0.020451412396128445,-1.3751358035739295e-19,-0.011250795645961712,-0.014410195830890652,-0.011756088261846358,-0.006069066268440063,-3.118315301294801e-19,0.004419516553750882,0.006275397783390379,0.0055681359108083785,0.0030817971316029254,5.684399538834339e-19,-0.0025637846150893167,-0.003776472676816498,-0.0034532921322811515,-0.0019588747941768903,-8.25799461326578e-19,0.0013888674567577603,0.002174681659209892,0.002102226729655843,0.0012537657770549313,8.441564825575753e-19,-0.0016731471472451066,-0.0023847440333108856,-0.0020948009445789072,-0.0011338706525989874,-1.216503184548587e-18,0.000413550212374939,0.0006951440646093807,0.0007116507527965103,0.0004446210431720678,4.763984393326307e-19,-0.0008216048949208414,-0.0011356962421908685,-0.0009622424769845253,-0.0004991051791013346,-7.04231404026531e-19,6.001716846811499e-05,0.00012236269598556073,0.00014229376039062854,9.726323263269847e-05,1.4547227336297273e-19,-0.00028502816203814624,-0.0003810150196123298,-0.0003097451343068506,-0.00015249884683244644,-2.46489441791406e-19,0.0,0.0,0.0,0.0,0.0,0.0,0.0,0.0,0.0,0.0,0.0,0.0,0.0,0.0
1.0006505165814363,1.0870411337764412,1.0986909297281213,1.0495224934663674,0.9644725835299103,0.8717861267808168,0.7948833097337861,0.747302449135793,0.7300951730039507,0.7337559562813951,0.7429217369801973,0.7419605837216428,0.7206488157114771,0.6763619301279663,0.614055306374565,0.5437041940474087,0.476315709693027,0.42088393465873564,0.38165477027995326,0.35777018922349696,0.3444866511146201,0.33524038945620915,0.32443624113286335,0.308741878149652,0.287721351512624,0.2633224643300007,0.2385729305169871,0.21667114702596332,0.19972652344868028,0.18842383430459345,0.1821582775453813,0.17941746458691732,0.17867032881370384,0.1785820913470915,0.1782904587806018,0.17741414366733535,0.1758594721821195,0.173990462561526,0.17234667967500206,0.1716400769424648,0.17267000978928937,0.17609498888235695,0.1824787958540904,0.1919033051864861,0.20388303447773717,0.2173739934505358,0.23087851735868437,0.24297337230489977,0.25249278816121384,0.25883758394345435,0.2620779771117822,0.2622879448226995,0.26147619110924203,0.2605535596453696,0.2601035645991748,0.2603302892305502,0.2605712851992269,0.2612759100610944,0.26172291161296984,0.2610660138914384,0.25858260134931815,0.2534209852257932,0.24633018109860952,0.23759050288175346,0.22769366502874097,0.21728408724320658,0.2067069032770291,0.19713189027026817,0.1888797492217923,0.1819293178632936,0.17598557313709504,0.1703526297546985,0.1649490578021153,0.1593842914566768,0.1534197184984913,0.14703306170274288,0.1401443916206286,0.13346087546095636,0.12738342737552455,0.12221449403282099,0.11808055026839075,0.11460807451233938,0.11189528368908797,0.10966088710581706,0.10760949831533057,0.10550884643066016,0.10290049173755252,0.10016753150399027,0.09748585196128035,0.0950408210396724,0.0929371425929296,0.09076220066391244,0.08876437772898514,0.08681005704161968,0.08477006448314711,0.08257987201598617,0.07987554286610213,0.077241521180475,0.0749555259426681,0.07325135715242105,0.07222260143904272,0.07135201938601465,0.0708585177106141,0.07047089095055781,0.06993640897118554,0.0691252017290342,0.06769250670163994,0.06632916200957979,0.06541778771521682,0.0652773284314336,0.0660278020190257,0.06713961905372134,0.0686492662688295,0.07007011037075025,0.07094135494475148,0.07102236261927197,0.07009965074313282,0.06912193996285972,0.06905500838954975,0.07101618421145624,0.07601692321951825,0.08440014850630351,0.09662774846817054,0.11227487472660513,0.13037334281365226,0.149593821809386,0.1682833619640566,0.1854697620474641,0.20038801889061786,0.21283461696715214,0.22317072039925373,0.23204592134543392,0.2406278829418901,0.2498293487490934,0.2602043885486983,0.2717867369285856,0.2839823118372215,0.2959818169552209,0.3066651847817781,0.3150165952552175,0.3204027534579175,0.32271808704071614,0.322506134425719,0.32062621538143293,0.3180786341720759,0.3157339444956551,0.31412877281916485,0.3133565668447534,0.31302501072806765,0.3124812503046663,0.3110651355333928,0.3083935568154898,0.30437096358601795,0.2992099666304456,0.29335105789930727,0.28731016391944664,0.2814426300406738,0.2761190811969585,0.2714181657857656,0.2672705498067891,0.2635551923055004,0.25997365047526316,0.25677597337213354,0.2541500835086483,0.25228138417702267,0.25120435572337646,0.25047438023529184,0.24972079258633503,0.2481464629641069,0.24481644868165062,0.2388535191412525,0.22947429097204897,0.21670515074902882,0.20095883153566882,0.18312854762248393,0.16441547986239272,0.14589400817234618,0.128838531606914,0.11387924113681784,0.10108276667714372,0.08997744058353296,0.07952459475835227,0.06902689642062833,0.05767682130143706,0.045059027951198684,0.031297244164749806,0.01685691997135086,0.0029976116360408787,-0.009318289834252851,-0.019466386841539354,-0.02738295225403337,-0.03380029308006309,-0.0394924907106777,-0.04579992326620453,-0.05388363670907571,-0.06425286121129481,-0.0765874656816745,-0.08901602997365315,-0.0991198781173831,-0.10405687527982768,-0.10112277016855628,-0.08851206674337377,-0.06520453983053676,-0.03204572399444286,0.008591249254478624,0.053173730048510476,0.09744938816946798,0.13769487336341432,0.1706110162382786,0.19408781467167593,0.2074702302655772,0.21139686133626434,0.20802526696097273,0.199868076810203,0.1895077490373326,0.17913249689403482,0.1700813272003034,0.16320449177616939,0.15827838330637922,0.15448988283412118,0.15079476352249238,0.1461462795844616,0.1402237909187385,0.13292602121304986,0.12456966000887845,0.11575574439702056,0.10707612563005298,0.09921933027600024,0.09238285361491652,0.08637974563344433,0.08071672527154874,0.07471152650269294,0.06786850029753004,0.059822817632635986,0.050542181190352295,0.04035836263577437,0.029886660388846766,0.01994805589904171,0.01131283084278537,0.0045668407179760145,-1.1030020344728726e-19,-0.0024191313174881436,-0.0030617784805465334,-0.0024720014699199603,-0.0012649500088405545,3.430213882514232e-20,0.0009520309515875713,0.0013345575915632555,0.0011690302856154078,0.0006389422135480503,6.578787728994247e-20,-0.0004598257748375644,-0.0006890320887481668,-0.0006420146997320507,-0.00037148210284412907,-8.679609662459578e-20,0.00030152335485626475,0.0004708192954042316,0.00045406988158895535,0.0002702776803997619,1.7540303441607462e-19,-0.0003557194616474299,-0.0005076962512795628,-0.00044667884239289,-0.00024222501926994712,-2.540580835615725e-19,9.284324333746265e-05,0.00015461042631417234,0.00015713123085531931,9.760647988262737e-05,1.0179442746422773e-19,-0.00017324905028521614,-0.0002403573486468255,-0.0002045315684776714,-0.00010664001314982069,-1.4835157665285812e-19,1.4062632857158919e-05,2.867082391551449e-05,3.334087497481697e-05,2.278976442783581e-05,3.408563288497296e-20,-6.678499667678741e-05,-8.927569344958271e-05,-7.257643461408409e-05,-3.573203049864176e-05,-5.7754982641677e-20,0.0,0.0,0.0,0.0,0.0,0.0,0.0,0.0,0.0,0.0,0.0,0.0,0.0,0.0
0.3204027534579175,0.3523228670116627,0.3622717547816266,0.3543938043184159,0.3361024398288578,0.3157339444956551,0.3002353810366549,0.2933184410847977,0.2950490261971056,0.30246381680061873,0.3110651355333928,0.3166683525035477,0.31655098125731035,0.31031190295199446,0.2996143429979276,0.28731016391944664,0.2762443958280866,0.26841294620232836,0.2643570421562324,0.26327249520018237,0.2635551923055004,0.26335813974689115,0.26177180351700474,0.25870261652225346,0.25484199048296846,0.25120435572337646,0.248400061632594,0.24667027900690153,0.24537960914345822,0.24326900258340675,0.2388535191412525,0.23077062394451042,0.2185754398510474,0.20262043894756324,0.18403724015872913,0.16441547986239272,0.145269103387447,0.1279366980017295,0.11307853231238164,0.10064561820244369,0.08997744058353296,0.07997434730372638,0.06962810885406315,0.058165575330427016,0.04529965941736352,0.031297244164749806,0.016806227264282766,0.0028946481075596653,-0.009444944449542983,-0.01956113410963006,-0.02738295225403337,-0.03376796144829827,-0.0394451903142293,-0.04575924822876983,-0.05386368617959037,-0.06425286121129481,-0.07675552980630007,-0.08934026908478145,-0.0995027826404568,-0.10433401529418579,-0.10112277016855628,-0.0883628943400514,-0.06496596683578446,-0.03181291966366511,0.008729567022128371,0.053173730048510476,0.09708965723206277,0.13703416190905934,0.16986279921121977,0.19356532580020167,0.2074702302655772,0.21180445533014838,0.20871151768304227,0.2005813467802034,0.18996573285304347,0.17913249689403482,0.16937769481022824,0.16194474238817952,0.15688056686056132,0.1535281898369659,0.15079476352249238,0.14719160611450066,0.14209934810251684,0.13502519782759012,0.126038233339857,0.11575574439702056,0.10499743313460724,0.09520046740191798,0.08746873572169508,0.08255441032416463,0.08071672527154874,0.08158637076918253,0.08461723597708931,0.08889210377835813,0.09347010366120166,0.09761440507985025,0.10092576394441219,0.10356446324885132,0.10609426024009276,0.1094048709087085,0.11451208488815177,0.1223418174224547,0.13340218184847621,0.1477064876003583,0.16466943195829506,0.18316842674182912,0.20179545250850944,0.21894475994577722,0.23335852316878475,0.2443247157564778,0.2518247685955065,0.25660360981829144,0.2596646058048601,0.26229648982420434,0.26558698715839696,0.27010279325290226,0.27573847025460235,0.28169823919081827,0.28668788942936113,0.28929443622540324,0.28838081791029807,0.28335349640559415,0.27453588573291793,0.2627165065894103,0.2491039565480049,0.23503573460925967,0.22163822037986594,0.20974612937049464,0.1994653661048421,0.19036571417729778,0.18169065130822126,0.1726189002508711,0.16262413618483137,0.1514013156553837,0.1390384265854733,0.12597578851839675,0.11288980737828512,0.10048687597497165,0.08920807792878524,0.07918912789257677,0.07026092572857226,0.06209086054003011,0.054182217545741346,0.0460399495009043,0.03733482268864374,0.028006192444789583,0.0183382611288403,0.008801522477306572,-9.174691113454344e-05,-0.007878687656079209,-0.014248540838993093,-0.019065945232673506,-0.02245414550992499,-0.02481962918264313,-0.026688931776954413,-0.0285616249082442,-0.030785431455763502,-0.033396220226302356,-0.036384065957383874,-0.039611807358008295,-0.042874708977495325,-0.04602129827971849,-0.04876840735351676,-0.0511922078711024,-0.05349202507143742,-0.05588446315576029,-0.058569486006512905,-0.061334485695632206,-0.06409096971600799,-0.06667800192433652,-0.06889421733402526,-0.07064670644102065,-0.07159452387039844,-0.07181071546076535,-0.07151644202396261,-0.07100368298178426,-0.07065101111605547,-0.07048869106683416,-0.07072980822311987,-0.07155766715638433,-0.0731131486295433,-0.07557798597276455,-0.07880876876658341,-0.08278612271570354,-0.08741153934670563,-0.09247207638461873,-0.09770149311472667,-0.10257447026327142,-0.10670872924197056,-0.10982995020348474,-0.11183100413969416,-0.1128313589552307,-0.11301448758373299,-0.11274090993244304,-0.11238079784197537,-0.11220847074071333,-0.11234458592217102,-0.11268412978703267,-0.11301105081045508,-0.11305498540013811,-0.11258593734173251,-0.11148373615168111,-0.10980073932146628,-0.10770763341550511,-0.1054462926881802,-0.10324791770292843,-0.10124213074641765,-0.09946812009664219,-0.09780091894525578,-0.09602477026208035,-0.09390989806412436,-0.09126946401871497,-0.08809977147334425,-0.08448447638087377,-0.08060884572899556,-0.0767018442805755,-0.07293244311087436,-0.06945090212173492,-0.06620265228259749,-0.06298436533789666,-0.05949379049702664,-0.055373893411557164,-0.050438284797957665,-0.04457079107496668,-0.037842643104401025,-0.030526785999052296,-0.0230269277166591,-0.01594085861442189,-0.009775321290056154,-0.004916095811172217,-0.0015597815010779533,0.0003534081469393895,0.0009797534259231079,0.0007037014450781505,-2.2057513770595318e-05,-0.0007798907505389766,-0.001223720905452913,-0.001306591767320375,-0.0010400302755034325,-0.0005454884480812632,-1.0353214168038054e-19,0.00048383174895057397,0.0006891146671889215,0.0006104700297742628,0.0003358440867098348,1.6993369342385833e-19,-0.00021134121197744843,-0.000325064462967377,-0.0003095522721996261,-0.00018230828865489329,-1.0371701074488285e-19,0.00022318430179227097,0.00032062526089220774,0.0002842422353727899,0.0001554878061734986,1.4974175807675495e-19,-6.815381241981633e-05,-0.0001118623299407208,-0.00011239143034998198,-6.918042171256088e-05,-6.807132723564155e-20,0.00011524176422053495,0.00016081643194105471,0.00013779374613079003,7.243689596463997e-05,9.75926856796591e-20,-1.1651566382283924e-05,-2.3085033181051755e-05,-2.6407300154584672e-05,-1.7861048511212785e-05,-2.586001506202078e-20,5.0162009665577595e-05,6.722407022808338e-05,5.4826127985801393e-05,2.710772327101699e-05,4.335113986914702e-20,-2.7174832122158777e-07,-5.540390868637722e-07,-6.44283819004276e-07,-4.4039265528766974e-07,-6.586756269862613e-22,1.290562792476465e-06,1.7251762217817422e-06,1.4024773644421408e-06,6.904908490803205e-07,1.1160655145076799e-21,0.0,0.0,0.0,0.0,0.0,0.0,0.0,0.0,0.0,0.0,0.0,0.0,0.0,0.0
0.28838081791029807,0.3114577400101482,0.3121491471255757,0.2945572798290574,0.2660536693927387,0.23503573460925967,0.2086825230220978,0.19107906300472927,0.1827313159844829,0.18104485949885232,0.18169065130822126,0.18035803178704787,0.17400171606304374,0.16175995845162375,0.14487614533442894,0.12597578851839675,0.10808035306975336,0.09335411445068229,0.08266901002900952,0.07548446873653317,0.07026092572857226,0.06524141278433586,0.0588331853481813,0.05027891267369029,0.03971961170916691,0.028006192444789586,0.016421197204492165,0.005975719703525643,-0.0026609898671880092,-0.009319233757773217,-0.014248540838993094,-0.017830426930353947,-0.020673350059864645,-0.023239117083374564,-0.025825471387391278,-0.0285616249082442,-0.031356759598807606,-0.03422602264973508,-0.03712579860162851,-0.04001965371587163,-0.042874708977495325,-0.045574332323428765,-0.04817091992847074,-0.05070648207765249,-0.05325288451627213,-0.05588446315576029,-0.058569486006512905,-0.061334485695632206,-0.06409096971600799,-0.06667800192433652,-0.06889421733402526,-0.07064670644102065,-0.07159452387039844,-0.07181071546076535,-0.07151644202396261,-0.07100368298178426,-0.07065101111605547,-0.07048869106683416,-0.07072980822311987,-0.07155766715638433,-0.0731131486295433,-0.07557798597276455,-0.07880876876658341,-0.08278612271570354,-0.08741153934670563,-0.09247207638461873,-0.0976910670082836,-0.10255329347533115,-0.106682679844002,-0.10981046327608557,-0.11183100413969416,-0.11283800868955648,-0.11302421598445753,-0.11274927567762412,-0.11238490112144178,-0.11220847074071333,-0.1124979477863061,-0.1129991491740677,-0.11340183195037544,-0.11334923245507866,-0.11258593734173251,-0.11139455697774277,-0.10967445518597702,-0.10760472436262414,-0.10540078025002242,-0.10324791770292843,-0.10160599380986206,-0.10015808876730274,-0.0986038230294873,-0.09659857849782302,-0.09390989806412436,-0.09091840126325451,-0.08752928078570803,-0.08391672373210389,-0.0802631547419148,-0.0767018442805755,-0.07354866894725554,-0.07054061618235904,-0.0673933678665862,-0.06378833046087705,-0.05949379049702663,-0.054596463841588144,-0.049112976848821085,-0.043175638384667724,-0.03693590077287302,-0.0305267859990523,-0.024154093314918586,-0.017885589052382283,-0.011833565165060012,-0.00624224474347525,-0.001559781501077953,0.0015259239825234196,0.0022906171988665166,0.00019003131548506414,-0.004918682718013562,-0.01255589616742937,-0.021522162620351074,-0.029823354655186183,-0.03481153332116688,-0.03359543109923199,-0.023552010833780782,-0.002909008914291343,0.028861108866849526,0.07084719244770493,0.12063587348340855,0.1745869266379661,0.22830539187341295,0.27755481481366856,0.31900016976574347,0.3507684762757476,0.3727258641097129,0.38626364610202873,0.39413889558018217,0.3996446539851701,0.40574791284454026,0.41431372662765703,0.42548299218727714,0.4379623254834244,0.4492213606324226,0.45616106422586516,0.4559015891456012,0.44635853125356034,0.42715907594522423,0.3995618849252877,0.3662062985499588,0.3305056103684451,0.2957628105637211,0.26481251272078143,0.2393460407133105,0.21972937439766038,0.20510963159128895,0.19368766969007983,0.18352571738582843,0.17294229582072268,0.16093051435357134,0.14733373340758246,0.13269795363704018,0.11827840378163999,0.10551774999750228,0.0956862490605301,0.08955783522387599,0.08715363823160001,0.08797746146556587,0.0910101077552835,0.09502787621669763,0.09891067431519499,0.1018485484125292,0.10367664169602828,0.10477659181909772,0.1059687227051301,0.10826351340651397,0.11252553940348181,0.11932338231573546,0.1287030144970034,0.14015962419222264,0.1527390288645405,0.1651130862095067,0.17634830219017433,0.18560207263204861,0.19250231676406812,0.19721454432256705,0.20012315040070117,0.20250565638106938,0.20520037555083612,0.20875438931022053,0.21329191088489394,0.21824569527600804,0.22331735727023935,0.22751537345674266,0.2298024889242059,0.2293692774472208,0.22560313521550138,0.2190737996336381,0.2103111689670885,0.2001182628448498,0.189423364820963,0.1789318427426689,0.16961196578670265,0.16172904977978925,0.1551548736577522,0.1494774521947052,0.14405630182212598,0.13859178479109213,0.13272262800453344,0.1263002664887657,0.1194148775241832,0.1122767396814968,0.105413929837314,0.0991793967949821,0.093802822539506,0.08935230285366119,0.08569181214402743,0.0826963450313531,0.08008092150580098,0.07755912527524313,0.07491527617125418,0.07200109680586496,0.0689450346018775,0.0658775330770788,0.06298731758630091,0.06047824948884715,0.0584662864633226,0.05715175474884006,0.056513314304506804,0.05641243469079055,0.05662304837398689,0.056791245564932036,0.056773481821613125,0.056271276295028386,0.05500816972461608,0.052767847259126636,0.04932182614931768,0.04483868699184351,0.03938642903105528,0.03313673629311752,0.026383923629563318,0.019425580146166913,0.012938534397704027,0.007353622038138667,0.0029876033748809814,1.342648892009349e-19,-0.001746675952522737,-0.0022262528196016875,-0.001800712392479152,-0.0009182540230212471,-2.4577378140467896e-19,0.0005552088432357243,0.000792744242149466,0.0007086643299750969,0.00039561695222203007,1.0436512721257869e-19,-0.00040705517143958033,-0.0005802562330745617,-0.0005120307065339565,-0.000279607593359257,-1.736283666547313e-19,0.0001576301186909609,0.0002436555705981737,0.00023295668418088218,0.00013764761201950752,7.713232253891405e-20,-0.0001713709956659161,-0.0002459849023746561,-0.000217854737654026,-0.00011903719843919878,-1.1387764918766382e-19,5.4057156549291096e-05,8.754108083738053e-05,8.698452730590041e-05,5.305141991108299e-05,5.045701562315415e-20,-8.173404273944176e-05,-0.00011498872096765638,-9.945085284482095e-05,-5.2847589128137974e-05,-6.972017575148652e-20,9.193322203933596e-06,1.874329827030847e-05,2.1796302962465614e-05,1.489860749867912e-05,2.2283181877782423e-20,-4.366010256221561e-05,-5.836319721906136e-05,-4.744620403570665e-05,-2.3359499797192468e-05,-3.775681052764105e-20,0.0,0.0,0.0,0.0,0.0,0.0,0.0,0.0,0.0,0.0,0.0,0.0,0.0,0.0
0.4559015891456012,0.48892399004955917,0.4840918142054416,0.44774457007339724,0.3918558576927068,0.3305056103684451,0.2759652431907979,0.2363242174165925,0.21384234130156754,0.2055436451227002,0.20510963159128895,0.20528466529373357,0.2005988438772592,0.18850963868038473,0.16971729417519046,0.14733373340758246,0.12533026179691675,0.10736972961787482,0.0955339983142305,0.09003974309504831,0.08955783522387599,0.09187519820464901,0.09495657111289713,0.09737930339341587,0.09861585998314738,0.09891067431519499,0.09887443854423252,0.0993137735881482,0.1008292051408923,0.103766430801266,0.10826351340651397,0.11429425208571309,0.12188922864965325,0.130996014037028,0.14142156010033524,0.1527390288645405,0.16421429533762125,0.1750454830720604,0.18443995179830222,0.1918647190015171,0.19721454432256705,0.2008087565315963,0.20342214909372414,0.20594543583392244,0.2091212097099843,0.21329191088489394,0.2182162204650457,0.22325749006815993,0.2274417312888827,0.22974739899159646,0.2293692774472208,0.22562193414713255,0.21910130201661182,0.2103348190956497,0.20012986289778026,0.189423364820963,0.17886560007291832,0.16948737317812693,0.16158505723662997,0.15505256465664569,0.1494774521947052,0.1441229610360676,0.13870113058978875,0.1328327335578107,0.12636830218558204,0.1194148775241832,0.1121427162512423,0.10517175096887878,0.09890911112086717,0.09361650218350216,0.08935230285366119,0.08585481292074335,0.08297448405096773,0.08037453395006863,0.077751028722726,0.07491527617125418,0.07172033281552434,0.06843970832623654,0.06531331800403188,0.06259631238466433,0.06047824948884715,0.05890578892948049,0.05795194021777131,0.05742366168240922,0.05706093825175096,0.05662304837398689,0.055801738633254515,0.05481632366082288,0.053823268283765074,0.0530590962112306,0.052767847259126636,0.05291011180934,0.053814776216233214,0.05540095307650644,0.0574503354987801,0.059674925927463374,0.06155352490362151,0.0632024605268434,0.06456011824457696,0.06565593777615415,0.0665820045958001,0.06717505674133305,0.06787269274071098,0.06874554732585325,0.06979047610342641,0.07094954900312817,0.07188550381042319,0.07282348490870706,0.0737297748976624,0.07457222136841231,0.0753170934104562,0.07569714827845152,0.0759521590752083,0.07610960466053694,0.0762118279345304,0.07631409917227827,0.07630817861721509,0.07642714598806655,0.07668464413713093,0.07702253015166415,0.07731110493410034,0.07727456256103798,0.07685154716288257,0.07590694945553736,0.0743984078324943,0.07242111233065587,0.06983253015622458,0.06742528534399515,0.06585540038259938,0.0657525839468787,0.06753111972721139,0.07055385071890924,0.07515698695847088,0.08105783993993759,0.08784206209527964,0.09502093819019654,0.1014737367375702,0.10736507630425998,0.1127045953952934,0.11767427097678829,0.12251075665318167,0.1268409972074553,0.13125108930418447,0.13595287968027137,0.1410855002368481,0.14666380361943876,0.15207967989114302,0.15746405001180164,0.1625851040386596,0.16714869229250753,0.1708168505856959,0.17289567166141798,0.17353670996006448,0.1729030366414494,0.17142928154923762,0.16973542696391938,0.16812187842260612,0.16735039639419064,0.16756911359786056,0.1683561024512071,0.1686540033421428,0.1665959765118668,0.16073165568670866,0.14973229567378268,0.13311564496927974,0.11167659437774594,0.08741556821035822,0.06443757121147203,0.047769558837482656,0.042871289193058444,0.054699185413349075,0.08639687262995978,0.13944629425753546,0.21232451479514353,0.3006668690150344,0.3977004498950653,0.49478722940580283,0.5837462664984835,0.6572678296212463,0.7102892345201227,0.7407017143767813,0.7491079543714371,0.7395944611838945,0.7178353937099259,0.6901279435420006,0.6621237561078572,0.637581049783956,0.6185335577246944,0.6046493349571735,0.593929181827194,0.583545797838933,0.5707068616935527,0.5536695098238972,0.531866191487568,0.5060692578547635,0.47808609346202374,0.45014045212045384,0.42455279868495616,0.4028546505345464,0.38565236051268453,0.3726263890851145,0.36266594433430005,0.35456190375326435,0.3469480836042531,0.33879205945938473,0.3296105682719964,0.31944198374805943,0.30909570689577515,0.2995213546865832,0.2917350253068776,0.2865947474588784,0.28452308446826746,0.2857150622806352,0.2896694214887826,0.29543514808580135,0.3018151874549562,0.307581761206032,0.31198398874798006,0.3146959871848435,0.31605383999809383,0.31703562745103403,0.31903476944627396,0.32361630752899295,0.3319405154472771,0.34439999885739503,0.3603308765598859,0.37772310300732015,0.3941656740684831,0.40621127664904905,0.4103388530901886,0.4036261256687378,0.38395623725182454,0.3518657936584424,0.30874484062897156,0.25741662545170996,0.2018130628343689,0.14609003538419696,0.09526163400578846,0.05281938904283111,0.0208791635944824,1.2394674427646715e-19,-0.011028621974606228,-0.013710041701686292,-0.010857177060776955,-0.005441401489243736,-5.098620117225708e-19,0.0035309424896986293,0.004917427292762049,0.004291155030939603,0.002341541657496492,2.5550959663978642e-19,-0.0020689213984581003,-0.002970336926348398,-0.002647725124235549,-0.0014646175760132107,-5.235491107011177e-19,0.0010165260244975162,0.0015405409620861113,0.0014469305683319804,0.0008415814171825243,3.5365987456688535e-19,-0.0008950293599063333,-0.0013099247578873098,-0.0011852085378247458,-0.0006629073809011994,-5.141337413954645e-19,0.0003881270036130411,0.00061790357452141,0.0006052242707916189,0.0003646951403410831,3.2447883930403267e-19,-0.000504748237650741,-0.0007185556285041607,-0.0006298212178926052,-0.00033979537079018203,-4.291381846646275e-19,7.032056860262204e-05,0.00014336921546083512,0.00016672192965234934,0.00011396082150216916,1.7044611133620862e-19,-0.00033396014730236855,-0.0004464254730629706,-0.0003629203863212074,-0.00017867896627277556,-2.8880532260569994e-19,0.0,0.0,0.0,0.0,0.0,0.0,0.0,0.0,0.0,0.0,0.0,0.0,0.0,0.0
0.7407017143767813,0.8070793688190739,0.8189173259798472,0.7862133285729249,0.7270773620119569,0.6621237561078572,0.6083666893530886,0.5760216997910405,0.5661949632674863,0.572327749829843,0.583545797838933,0.5885079368689586,0.579937222497362,0.5558492395333609,0.5196109018019501,0.47808609346202374,0.4386377652379802,0.40738742127570954,0.38700557403257346,0.3765980194268775,0.3726263890851145,0.37028555926082735,0.365850454443548,0.35727472523918075,0.3446241591974646,0.3296105682719964,0.31447419055132636,0.30163867379955667,0.2925873845934169,0.2877382832912795,0.2865947474588784,0.28795575985014743,0.29085039504186727,0.2944353651045533,0.298182625403536,0.3018151874549562,0.3050342911648104,0.30793651454250986,0.3106615169292144,0.31352623065862745,0.31703562745103403,0.3216624294870695,0.32812854270826697,0.33684532343714857,0.347779737856873,0.3603308765598859,0.37322543755058535,0.38515435196516423,0.3947669438454429,0.40106659232966435,0.4036261256687378,0.4021293301733036,0.398143292699859,0.3926702698888873,0.38668619341444527,0.3809623186929973,0.3754506888347823,0.3709409974536836,0.36705724891410435,0.3631024258550883,0.3582985117172568,0.35157546620378755,0.34330436955409416,0.3335359221298341,0.322618779461898,0.31113624461363226,0.2993943325572836,0.2885836032643825,0.2790960473529959,0.27097869030693394,0.26397397751000773,0.2573120319008275,0.25094004918534385,0.2444231512142854,0.2374803018689263,0.23006536299536276,0.2220923420654787,0.21433982495994977,0.2072366734042733,0.20111896422470932,0.19615674848071782,0.19207451009521995,0.18901788417046647,0.18664829883179607,0.18456333864808616,0.18241285245867853,0.17973472223750872,0.17686892775184518,0.1739401999175372,0.17114094621061032,0.16866895643663926,0.1664026058078922,0.1647527886117322,0.16361654581103166,0.1627677011857228,0.161945676612857,0.16063556194160072,0.15920800217001668,0.15772521034757966,0.1563324344079324,0.1552223967890747,0.15421163107774882,0.15392779013279237,0.1543718215928058,0.15538450208095175,0.15669997905831218,0.1576924075739076,0.15854192318921786,0.15901546717338835,0.1589276205020219,0.15817756132754962,0.15648812266687764,0.15436053138618339,0.1519229354867345,0.14930106133384077,0.14662181186293236,0.1437717585411286,0.14120787606389634,0.13895995603529676,0.13695907818740263,0.13506606239831512,0.13291428451796983,0.13064802924416571,0.12814502893078872,0.12534152757920106,0.12227362596264782,0.11884211982240099,0.11560827457152102,0.11285237280214283,0.11078399807097268,0.10948118952698051,0.10856258489832131,0.10814821338497195,0.10797008190870973,0.10774135800892985,0.10724837321791174,0.10604825694751752,0.10471463933002638,0.10370754835594555,0.10361494872523816,0.10501555690884297,0.10786394489132833,0.11282621031172675,0.11991837234813957,0.1288365429921617,0.13895758386979115,0.14899943145254138,0.15832276415011431,0.16595477806972503,0.1710295788499261,0.17289961083073932,0.1709242158021123,0.1655005411689467,0.15717378229511667,0.14684961265803953,0.1356638720106361,0.12452855485853027,0.11476740474875906,0.10710067060579638,0.10175531357531652,0.09842813319053287,0.09614293559607406,0.09417736790994652,0.09159786702031612,0.08776165532894134,0.08253425853330694,0.07617190632242272,0.06996938152804597,0.0653668676926224,0.06385666209530205,0.06664038387608101,0.0741250146580946,0.08641445561803253,0.1026470779692781,0.12136779522910028,0.1408454919556591,0.15921918935486346,0.17566351205327146,0.18992507293911307,0.20261289036327568,0.21505060003523718,0.2286432096615761,0.24531558561495911,0.2662193601160135,0.2915584029580269,0.3203684010008341,0.3503802647334283,0.3788799196713163,0.40268761894689065,0.41894298470776103,0.4256862019664309,0.4222052200713033,0.40936991666665007,0.3891864178930549,0.36447538335345725,0.3383107515813551,0.31337173932258233,0.2917561917070797,0.27437217198794517,0.26107985211790957,0.2509353011962792,0.2424834745165374,0.23451223558774778,0.22594977412767914,0.21624807542852412,0.2054522265764166,0.1940438450265043,0.18300914285656766,0.1732395944317907,0.1654374783335922,0.15996915195655395,0.1567544737973038,0.15548912042613752,0.15549378536920447,0.15597173599629735,0.1562057538551483,0.1557006213683686,0.15448303656287385,0.15294754019681134,0.15190253023208308,0.15244235575374263,0.15569392552037337,0.1626714878476711,0.17382333296041375,0.1888769001243788,0.2067411520179489,0.22548593756121268,0.2428269712932459,0.2560975237405414,0.26280099276329594,0.2610399482821552,0.24975020491676,0.2293194678965824,0.20103957835791847,0.16714687502587738,0.1305199741410776,0.09410542004184597,0.06110315597614711,0.03373437616522308,0.013279277552179218,1.1336492554715432e-19,-0.006989999821720317,-0.008657728190259804,-0.0068301027565752966,-0.003409514013234409,-3.604446032904308e-19,0.0021725058531197883,0.0030162756685845338,0.002624952229637734,0.0014289085782767264,1.466548764532486e-19,-0.0012701134073259245,-0.0018171562222861265,-0.001614065787001363,-0.0008896457320389964,-3.134234594153408e-19,0.0006096237970730409,0.0009214646896671405,0.0008634973125189772,0.0005012564520748886,1.9316948842517887e-19,-0.0005262559872762282,-0.0007711618853424433,-0.0006987704154758538,-0.00039150034009990714,-2.879872176859092e-19,0.00024185265534382616,0.000380938732942247,0.00036969547789915034,0.0002210116634546761,1.8764172450888844e-19,-0.00028292118347743333,-0.0004065430342824147,-0.0003600367131619417,-0.00019647467296981115,-2.39905466979346e-19,4.547891334037593e-05,9.272217581838323e-05,0.00010782524005809475,7.370267943342462e-05,1.1023380613527142e-19,-0.00021598438266520607,-0.00028871986967423535,-0.00023471404067034962,-0.0001155582980107546,-1.8678108695688491e-19,0.0,0.0,0.0,0.0,0.0,0.0,0.0,0.0,0.0,0.0,0.0,0.0,0.0,0.0
0.4036261256687378,0.4419514971137615,0.45167142380214154,0.43813580195666835,0.4109503175753317,0.3809623186929973,0.35705264919061086,0.34434727023009126,0.34314528348849865,0.34974567125416134,0.3582985117172568,0.3629106465851265,0.35994466270982306,0.34866019353975763,0.331125865024972,0.31113624461363226,0.29257534790302375,0.2784414582461542,0.26977200634577564,0.26568190040198253,0.26397397751000773,0.26197131564686355,0.25779021820386283,0.2506398511990836,0.24096218879086614,0.23006536299536276,0.21941637363152874,0.2103842289871037,0.20363013465343668,0.19909122098670878,0.19615674848071782,0.1938870166684362,0.191617761717577,0.1889437512453177,0.18581027751123236,0.18241285245867853,0.17894124677928425,0.17572009558055393,0.17291668238299615,0.17058011481540264,0.16866895643663926,0.16699888114767186,0.16554986725356158,0.16426452874676414,0.1630867268604519,0.161945676612857,0.16063556194160072,0.15920800217001668,0.15772521034757966,0.1563324344079324,0.1552223967890747,0.15421163107774882,0.15392779013279237,0.1543718215928058,0.15538450208095175,0.15669997905831218,0.1576924075739076,0.15854192318921786,0.15901546717338835,0.1589276205020219,0.15817756132754962,0.15648812266687764,0.15436053138618339,0.1519229354867345,0.14930106133384077,0.14662181186293236,0.1437717585411286,0.14120787606389634,0.13895995603529676,0.13695907818740263,0.13506606239831512,0.13291428451796983,0.13064802924416571,0.12814502893078872,0.12534152757920106,0.12227362596264782,0.11884211982240099,0.11560827457152102,0.11285237280214283,0.11078399807097268,0.10948118952698051,0.10856258489832131,0.10814821338497195,0.10797008190870973,0.10774135800892985,0.10724837321791174,0.10604825694751752,0.10471463933002638,0.10370754835594555,0.10361494872523816,0.10501555690884297,0.10786394489132833,0.11282621031172675,0.11991837234813957,0.1288365429921617,0.13895758386979115,0.14899943145254138,0.15832276415011431,0.16595477806972503,0.1710295788499261,0.17289961083073932,0.1709242158021123,0.1655005411689467,0.15717378229511667,0.14684961265803953,0.1356638720106361,0.12452855485853027,0.11476740474875906,0.10710067060579638,0.10175531357531652,0.09842813319053287,0.09614293559607406,0.09417736790994652,0.09159786702031612,0.08776165532894134,0.08253425853330694,0.07617190632242272,0.06996938152804597,0.0653668676926224,0.06385666209530205,0.06664038387608101,0.0741250146580946,0.08641445561803253,0.1026470779692781,0.12136779522910028,0.1408454919556591,0.15921918935486346,0.17566351205327146,0.18992507293911307,0.20261289036327568,0.21505060003523718,0.2286432096615761,0.24531558561495911,0.2662193601160135,0.2915584029580269,0.3203684010008341,0.3502452055494728,0.3786055967767986,0.40235017654196426,0.4186905521696218,0.4256862019664309,0.4222913603477782,0.40949593781080623,0.38929478727557604,0.3645285369999601,0.3383107515813551,0.3131267806414025,0.291304263923085,0.27385872618763374,0.260720537780175,0.2509353011962792,0.24275155897215528,0.23495862097038364,0.22640729676544888,0.21653677413871678,0.2054522265764166,0.19359420187282161,0.1822137246694306,0.17236928271105434,0.1648484075980261,0.15996915195655395,0.15734795921625486,0.1565156628661051,0.1565940105512688,0.15670294118160272,0.1562057538551483,0.15474296885379532,0.15276470716853208,0.1510315685318079,0.15057403785907295,0.15244235575374263,0.15731681152998073,0.16567405395865445,0.17729761062567836,0.19139574163361803,0.2067411520179489,0.22175865284968943,0.23533895074766348,0.24655962833876854,0.25504888302019335,0.2610399482821552,0.26508323894046304,0.26847483312256437,0.2722268363588963,0.2770307097135026,0.28306567186110815,0.28972957202752164,0.29646664543800616,0.3020586836645177,0.3052531480282979,0.30509139544006114,0.30093228291046364,0.29338975498381725,0.28316907064187796,0.2713032421739797,0.25894225215673455,0.2469436475796457,0.23633838252859568,0.22733981668770334,0.21968557160707408,0.21279310887340797,0.2058430691814738,0.19848250953113122,0.19032916702903457,0.1812953697063552,0.1716033194739595,0.16160983190436048,0.15208394209363968,0.14352987001926987,0.1362724148157161,0.130413530074511,0.12575805702620038,0.12217860029621985,0.11927699935698324,0.11663102443837668,0.11389381807413415,0.11078399534574945,0.10742330808334587,0.10392031832141141,0.10048300139440453,0.09737410607375732,0.09477438528591951,0.09302204654555032,0.09216692359402784,0.0920942207670886,0.092540688328744,0.09302173534229148,0.09328222868993435,0.09280936746289453,0.09109304528192645,0.08770727058373068,0.08224701930530033,0.0748962817226432,0.06578322306793474,0.055248617352010906,0.04385363529186534,0.032192755462724806,0.021359024864887746,0.012082688352506393,0.004882980953377147,1.7124924012966174e-19,-0.0027882918350263957,-0.0035384256554803544,-0.002852536079360094,-0.001451206363185473,-3.2945072294235717e-19,0.000896188667527365,0.0012741921113179223,0.001134437724824064,0.0006309111675802106,1.492157382663648e-19,-0.0006325568618644828,-0.0009030324796472007,-0.0007984163073027485,-0.00043705532423409096,-2.5283505835740793e-19,0.00025625165632254046,0.00039461644929718277,0.00037602814346506344,0.00022153106185122105,1.190730974266902e-19,-0.00026797271947512694,-0.0003859683300488344,-0.0003431378427423097,-0.00018828637247586088,-1.7474933048814275e-19,8.930166996140468e-05,0.00014438657333321373,0.00014327932004663975,8.728954048357472e-05,8.253662072554748e-20,-0.00013324759741503093,-0.00018764395349091256,-0.00016246938898690423,-8.644584726041348e-05,-1.136312077162212e-19,1.52805399497203e-05,3.115388666421643e-05,3.622839173760871e-05,2.476349267747398e-05,3.703765008308383e-20,-7.256897197896142e-05,-9.700749597546828e-05,-7.886198265954223e-05,-3.882663545761013e-05,-6.275690537581492e-20,0.0,0.0,0.0,0.0,0.0,0.0,0.0,0.0,0.0,0.0,0.0,0.0,0.0,0.0
0.4256862019664309,0.45974112853263216,0.460057736146444,0.432411956978904,0.3876235013756519,0.3383107515813551,0.2952458315113302,0.26545771267768353,0.25062831005713004,0.24775428723080906,0.2509353011962792,0.2535292726216828,0.2508239474727534,0.24086651795227465,0.22469165461614318,0.2054522265764166,0.18685660820279643,0.1722248319872619,0.1632167706674848,0.159666889649135,0.15996915195655395,0.1617384644565326,0.1629915699017318,0.1624902438902395,0.1600161578951155,0.1562057538551483,0.15206019948695276,0.14882597642710255,0.14746543467651838,0.14858333826524597,0.15244235575374263,0.15896176619453944,0.1680466721698662,0.17940475314971868,0.19254756980709994,0.2067411520179489,0.22094259707747632,0.23416970963370826,0.24552945399839698,0.2544910865371296,0.2610399482821552,0.26561338439728643,0.26918351180253963,0.2728029547836572,0.277314353863754,0.28306567186110815,0.28968886251527554,0.2963839590859441,0.3019569718422381,0.3051770598630822,0.30509139544006114,0.3009582472953899,0.29342774025191265,0.28320173531950776,0.27131926373548976,0.25894225215673455,0.24685527728962475,0.23617264027400386,0.22714873884551307,0.2195501006905631,0.21279310887340797,0.205933145448767,0.19863062115520588,0.19047873598275528,0.18138810954003698,0.1716033194739595,0.1614344767825374,0.151768209072752,0.14317865085882875,0.1360310277995348,0.130413530074511,0.1259743819681984,0.12254862072383693,0.1196686684099561,0.11688779147591111,0.11389381807413415,0.11041710582276308,0.10676369705282143,0.10318440541430741,0.0999732126395149,0.09737410607375732,0.09535760823737625,0.0940871120242212,0.09338250250049733,0.09296305248060444,0.092540688328744,0.09173786178407513,0.09073739351685421,0.08961420316479081,0.08853528481616871,0.08770727058373068,0.08711498578243687,0.08714436921985155,0.08774456479337306,0.08872639158692909,0.08983392902350316,0.09062050560164343,0.09124816251009917,0.09165404371767372,0.0918590458664959,0.09196058746327565,0.09187793586713289,0.09208443914988079,0.09263383915544206,0.0934713571002546,0.09446709100229705,0.09528857487768225,0.09606500624434375,0.09666174095980791,0.09697672635428459,0.09697359454131843,0.09656661090050699,0.09606856257477416,0.09557386945615161,0.0951427073478275,0.0947962225308599,0.09444408223453127,0.0941785631421413,0.09387916064968146,0.09339939574171151,0.09261885052040138,0.09146392476497493,0.09004065893153268,0.08839572539724443,0.08659970181248393,0.08473828077981906,0.08243512428867934,0.08026771162094179,0.07850990417033946,0.07736708710454755,0.07685771103923673,0.07582815611170321,0.07472165472737809,0.0734667659957875,0.07208846266680427,0.07068072505340899,0.0686119581257827,0.06666630306239706,0.06519001533517142,0.06444663307013915,0.06450373906758122,0.0646320055970097,0.06501837614088775,0.06550286694722107,0.06601768075340785,0.06659429265584389,0.06693571896192789,0.0674308322585191,0.06808147843391363,0.06866114599711616,0.06868484624410659,0.06731016848677576,0.06410057084032565,0.05872897801084451,0.05134072646519957,0.04263242438194011,0.033647463557306835,0.02582992643107738,0.02025685677311458,0.017346260236833146,0.016580002519773648,0.016449036609259237,0.014833237299360874,0.009386754860428434,-0.0016062267970259508,-0.018412269125976575,-0.03922620621709082,-0.05983166856843232,-0.07403086000030262,-0.07437381370590578,-0.05340454077172679,-0.005166063576791691,0.0734075800641063,0.181252479323158,0.3128141532119195,0.4584554483572394,0.6056445450057332,0.7409899961086485,0.8521838536991924,0.9301103777969992,0.9703154374862054,0.9735101421948783,0.9454063671730235,0.8950787554205033,0.8331046678409928,0.7694526764508665,0.7116247798528429,0.6637446086670783,0.6261114635435243,0.5959285899361737,0.5685899154155276,0.5391929324133351,0.5040680804846849,0.4615413017377189,0.4122789965418411,0.3589315987396386,0.30526219019598066,0.25522889463840215,0.21184502129969301,0.17659997351379603,0.1492732820637496,0.12816227157062232,0.11081463303296542,0.09459629242052821,0.07745224632136777,0.058383854251114545,0.037579742734286777,0.01631792047704353,-0.0035859753262619362,-0.020300809522603776,-0.03250557356152053,-0.039752796924860695,-0.042534583241569064,-0.04215372347518294,-0.040322798688975744,-0.03867915056890227,-0.03832982000455212,-0.039604847273285,-0.04196308500856245,-0.044205848940298186,-0.044852727576284016,-0.04255624323701694,-0.03659074341118834,-0.026937786767200555,-0.014353842669599881,-0.00019342111741594317,0.013666867136874247,0.02608769184605494,0.03578425974186327,0.041972789433633244,0.04446588534145213,0.04311424026971871,0.039554768807469345,0.034499909586667266,0.028552071472548936,0.022232942670726064,0.015630443545876248,0.009930672060927242,0.00539983342478792,0.002111031071568168,2.8477813726160055e-19,-0.001381632481954455,-0.0017103251026128474,-0.0013309431162368884,-0.0006459577976146323,-4.483326659078817e-19,0.00021562440264146876,0.00029402716344973084,0.0002531835640959151,0.00013719980167392425,2.719980250286294e-20,-0.00018658022093826106,-0.0002493780549661371,-0.00020445980394581307,-0.00010260954961125324,-7.331536497292947e-20,3.5024418411178137e-05,4.7080263041588636e-05,3.919188671117795e-05,2.0229991960186706e-05,-2.5771321557962294e-20,2.3352118440587988e-06,-7.176463179635719e-07,-4.8097131101715405e-06,-5.240985204197409e-06,2.919391785466603e-20,2.885909911263466e-05,3.9734138603368565e-05,3.37214969944532e-05,1.7651929154860078e-05,2.05678082575445e-21,1.0403250066305149e-05,9.078430016882762e-06,2.348633391385563e-06,-2.1168658286979002e-06,9.807769415477325e-21,7.746937429903088e-06,1.5794416393669048e-05,1.836709205962385e-05,1.2554610566740201e-05,1.8777370347410235e-20,-3.6791061515054336e-05,-4.91809192624299e-05,-3.9981495894244175e-05,-1.968435123977855e-05,-3.181653402566355e-20,0.0,0.0,0.0,0.0,0.0,0.0,0.0,0.0,0.0,0.0,0.0,0.0,0.0,0.0
0.30509139544006114,0.3309772853654428,0.3336525929677482,0.3172817494569073,0.2894703633408938,0.25894225215673455,0.23305239220548984,0.21626534862711327,0.20928613332406465,0.2095917604514432,0.21279310887340797,0.21426112493436625,0.21086790534324087,0.2016137478622787,0.18765937205903746,0.1716033194739595,0.15631692327953792,0.14417034396681894,0.13620582886328275,0.1320765599768335,0.130413530074511,0.12938176934716655,0.1275707241594102,0.12423829941589735,0.11945419326579129,0.11389381807413415,0.10838793786161012,0.1037697652171842,0.1004596761618989,0.09844402249277259,0.09737410607375732,0.09668738370523496,0.09600080976372947,0.0950781450691752,0.0938877437619668,0.092540688328744,0.09113436414795352,0.08986141714866203,0.08883171099154132,0.08810532349234936,0.08770727058373068,0.08758340270324128,0.08777053149445214,0.08825360172856103,0.08897700906889536,0.08983392902350316,0.09062050560164343,0.09124816251009917,0.09165404371767372,0.0918590458664959,0.09196058746327565,0.09187793586713289,0.09208443914988079,0.09263383915544206,0.0934713571002546,0.09446709100229705,0.09528857487768225,0.09606500624434375,0.09666174095980791,0.09697672635428459,0.09697359454131843,0.09656661090050699,0.09606856257477416,0.09557386945615161,0.0951427073478275,0.0947962225308599,0.09444408223453127,0.0941785631421413,0.09387916064968146,0.09339939574171151,0.09261885052040138,0.09146392476497493,0.09004065893153268,0.08839572539724443,0.08659970181248393,0.08473828077981906,0.08243512428867934,0.08026771162094179,0.07850990417033946,0.07736708710454755,0.07685771103923673,0.07582815611170321,0.07472165472737809,0.0734667659957875,0.07208846266680427,0.07068072505340899,0.0686119581257827,0.06666630306239706,0.06519001533517142,0.06444663307013915,0.06450373906758122,0.0646320055970097,0.06501837614088775,0.06550286694722107,0.06601768075340785,0.06659429265584389,0.06693571896192789,0.0674308322585191,0.06808147843391363,0.06866114599711616,0.06868484624410659,0.06731016848677576,0.06410057084032565,0.05872897801084451,0.05134072646519957,0.04263242438194011,0.033647463557306835,0.02582992643107738,0.02025685677311458,0.017346260236833146,0.016580002519773648,0.016449036609259237,0.014833237299360874,0.009386754860428434,-0.0016062267970259508,-0.018412269125976575,-0.03922620621709082,-0.05983166856843232,-0.07403086000030262,-0.07437381370590578,-0.05340454077172679,-0.005166063576791691,0.0734075800641063,0.181252479323158,0.3128141532119195,0.4584554483572394,0.6056445450057332,0.7409899961086485,0.8521838536991924,0.9301103777969992,0.9703154374862054,0.9735101421948783,0.9454063671730235,0.8950787554205033,0.8331046678409928,0.7694526764508665,0.7116023220074194,0.6636989938411866,0.6260553531099556,0.595886615071856,0.5685899154155276,0.539207255948819,0.504089035471178,0.46155932156258406,0.41228783501059163,0.3589315987396386,0.30524552985683273,0.25520264030250495,0.2118197875212969,0.1765852175372802,0.1492732820637496,0.12819149617429249,0.11086639776945918,0.09465305517137772,0.07749077794123975,0.058383854251114545,0.03757109423642649,0.016311823089791642,-0.003583065282005008,-0.020292741989793667,-0.03250557356152053,-0.03971621691924411,-0.042464404607094906,-0.04207034238286013,-0.04026150704887256,-0.03867915056890227,-0.03835927775190799,-0.03965556208165502,-0.04201892318869563,-0.044245363260407775,-0.044852727576284016,-0.04244242635519904,-0.03635697587832163,-0.026639402900265202,-0.014116843634526836,-0.0001934211174159431,0.013313600173015982,0.02532086308655412,0.034730602406348815,0.0410513502277533,0.04446588534145213,0.0452550934418954,0.04532571300842237,0.0455007447501142,0.04623222320872882,0.047598472056345334,0.04899992108016219,0.05071317875929821,0.052058543508088855,0.05227552497517182,0.05073105877123854,0.04678217684698804,0.04097256340619623,0.03355295965969635,0.02497979026381051,0.015868906087159504,0.006714321760119303,-0.0015348113706160078,-0.008532978625383821,-0.01426170646423457,-0.018993246596919533,-0.0232671068755766,-0.02745689601808087,-0.03201240244694009,-0.037192490410430636,-0.04298460171856584,-0.049132193221295785,-0.055094814594925136,-0.06032925102888804,-0.06437676860959489,-0.06697595684021215,-0.06810355378738941,-0.06802778744977513,-0.0671512473228369,-0.06593151532779874,-0.06476688940514867,-0.06388732939498232,-0.06339028726355674,-0.06315763262012161,-0.06296079493883514,-0.06255782197008518,-0.06176085051057922,-0.060580108410244846,-0.05911232752047814,-0.05754038196287871,-0.056059927265991606,-0.05479664725916212,-0.05374208785612198,-0.052728841511878045,-0.051456504493043134,-0.049562032561898034,-0.046738442339865384,-0.04274148184904489,-0.03757142609598158,-0.03144921230379327,-0.024781016280949017,-0.018107451930050283,-0.011913638500523616,-0.006657602269699542,-0.0026483110148279054,4.85593050529751e-20,0.0013451962273042049,0.0016812568613929478,0.0013428438625016671,0.0006809802900108303,-2.6823662201113495e-20,-0.0004964008887820544,-0.0006950949685359852,-0.0006091782596439848,-0.0003335123200750229,-3.9936751189340747e-20,0.0002783609724400513,0.0004053149591323195,0.00036664937359505065,0.00020591079193211007,6.985958115972501e-20,-0.00014984637486634752,-0.0002300358624644335,-0.00021856417707617087,-0.00012842277981335104,-6.800645092729264e-20,0.00015039292676080022,0.00021754008649226063,0.00019429530252951585,0.0001071459397101972,9.771625375624544e-20,-5.177545425557627e-05,-8.426645522300322e-05,-8.407661445049161e-05,-5.145292498984685e-05,-4.982135477386406e-20,8.152914746163042e-05,0.0001143667270780078,9.858244236331434e-05,5.218405529129387e-05,6.960146476470969e-20,-8.63479861488135e-06,-1.760458323472205e-05,-2.0472108173180662e-05,-1.3993469666298711e-05,-2.0929407644507108e-20,4.100761234806819e-05,5.4817447200052245e-05,4.456369610472283e-05,2.1940335824063057e-05,3.546296409658256e-20,0.0,0.0,0.0,0.0,0.0,0.0,0.0,0.0,0.0,0.0,0.0,0.0,0.0,0.0
