-0.12328210646352412,-0.13552039519945283,-0.14185948855632688,-0.1448874434582499,-0.146985368955561,-0.14981786655749113,-0.15455388210084478,-0.16044201260389107,-0.1665932379064331,-0.17206413312015023,-0.17635362665145812,-0.18016823189519907,-0.18393137206103174,-0.1888885803253085,-0.1961435477585467,-0.20608991608910596,-0.21848133373479176,-0.2307979853204692,-0.23999210573987093,-0.24265885797008016,-0.23582620552675373,-0.21820252138167925,-0.18909461491490803,-0.1500363780088177,-0.10405722043725653,-0.055076725476502074,-0.007416825774994313,0.0358983270813764,0.07273214642350463,0.10241404887127475,0.12567275457374957,0.14419192115725052,0.1603518132134567,0.17617883984117919,0.19303810352705594,0.21139319660754258,0.23083492385977375,0.25040063771559273,0.26869001545408744,0.28447618353529697,0.2971136386413356,0.30683375664845386,0.3145162842701195,0.32126773574445133,0.32815488586612723,0.3358749374536862,0.34462299121628137,0.35388137541616416,0.36267363260135577,0.36988624923586305,0.3746362362660367,0.3766057167735588,0.37592982163877103,0.37338417601399876,0.3699939765732777,0.3666892700006098,0.36410552213487707,0.3622211991378475,0.360837847394763,0.3596942680920724,0.3587423037351829,0.3584161484630618,0.35929993434229107,0.3623391516862727,0.36826165438802516,0.37709861966284913,0.38792071140683154,0.39835410423300394,0.4053260948420818,0.40539664320597985,0.3954549355905153,0.37355132744074004,0.33901676854645785,0.2932928362939637,0.23954125602094548,0.18207688239341316,0.12542865420300037,0.07378390877197108,0.03002588512524293,-0.004738288640892774,-0.03130117080368907,-0.052404348075902905,-0.07096118525328618,-0.09014806997123312,0.0,0.0,0.0,0.0,0.0,0.0,0.0,0.0,0.0,0.0,0.0,0.0,0.0,0.0,0.0,0.0,0.0,0.0,0.0,0.0,0.0,0.0,0.0,0.0,0.0,0.0,0.0,0.0,0.0,0.0,0.0,0.0,0.0,0.0,0.0,0.0,0.0,0.0,0.0,0.0,0.0,0.0,0.0,0.0,0.0,0.0,0.0,0.0,0.0,0.0,0.0,0.0,0.0,0.0,0.0,0.0,0.0,0.0,0.0,0.0,0.0,0.0,0.0,0.0,0.0,0.0,0.0,0.0,0.0,0.0,0.0,0.0,0.0,0.0,0.0,0.0,0.0,0.0,0.0,0.0,0.0,0.0,0.0,0.0,0.0,0.0,0.0,0.0,0.0,0.0,0.0,0.0,0.0,0.0,0.0,0.0,0.0,0.0,0.0,0.0,0.0,0.0,0.0,0.0,0.0,0.0,0.0,0.0,0.0,0.0,0.0,0.0,0.0,0.0,0.0,0.0,0.0,0.0,0.0,0.0,0.0,0.0,0.0,0.0,0.0,0.0,0.0,0.0,0.0,0.0,0.0,0.0,0.0,0.0,0.0,0.0,0.0,0.0,0.0,0.0,0.0,0.0,0.0,0.0,0.0,0.0,0.0,0.0,0.0,0.0,0.0,0.0,0.0,0.0,0.0,0.0,0.0,0.0,0.0,0.0,0.0,0.0,0.0,0.0,0.0,0.0,0.0,0.0,0.0,0.0,0.0,0.0,0.0,0.0,0.0,0.0,0.0,0.0,0.0,0.0,0.0,0.0,0.0,0.0,0.0,0.0,0.0,0.0,0.0,0.0,0.0,0.0,0.0,0.0,0.0,0.0,0.0,0.0,0.0,0.0,0.0,0.0,0.0,0.0,0.0,0.0,0.0,0.0,0.0,0.0,0.0,0.0,0.0,0.0,0.0,0.0
-0.03130117080368907,-0.052404348075902905,-0.07096118525328618,-0.09014806997123312,-0.11225987783513268,-0.13807021444323128,-0.16702688709765615,-0.19598770940864466,-0.22114233122443774,-0.23850054331759238,-0.24483925808277354,-0.23903762154093475,-0.22069899082902456,-0.1917989164694308,-0.15574984266216027,-0.1167028523265821,-0.07937789698597549,-0.04645277825825038,-0.019989705828538817,-0.0007875283805447803,0.011433553429609326,0.017025567066290888,0.0181228609532359,0.016322339097251733,0.01307470248288527,0.009575643649201271,0.006217137256147688,0.004206477817309618,0.003883437284465229,0.005200564144259003,0.007717733868793222,0.010303359329342095,0.012467775167856666,0.013293458022029624,0.01215641046564186,0.009016518140698471,0.004364554313684278,8.596349215308115e-05,-0.0017910713018474394,0.0009507438072497793,0.010315302412603719,0.02755404481570822,0.05334097279025037,0.086766273365359,0.12574870634384522,0.16739585644801708,0.2084724760728569,0.24624710031541966,0.2786133939025343,0.3045984867190621,0.32447641048343046,0.3395889313174859,0.3519201650721762,0.36355927653206,0.3761127810199622,0.3902943732053489,0.405737869792661,0.4213020756098349,0.4355784105196068,0.4473650640127031,0.45611233592726724,0.4620369247333756,0.4662757311541883,0.4705998887604699,0.47669168200860507,0.48545506269674776,0.49624698618212487,0.5074653566827808,0.5163858753640725,0.5198094661700937,0.5147977894662283,0.498984232962284,0.4723417739905915,0.4364033609540037,0.3942188014829082,0.3496786676504736,0.3064000778456122,0.26754620251432787,0.23466965190354688,0.2075888626326014,0.18455954583471898,0.16279109521827687,0.1393780603147131,0.11204087516905877,0.0,0.0,0.0,0.0,0.0,0.0,0.0,0.0,0.0,0.0,0.0,0.0,0.0,0.0,0.0,0.0,0.0,0.0,0.0,0.0,0.0,0.0,0.0,0.0,0.0,0.0,0.0,0.0,0.0,0.0,0.0,0.0,0.0,0.0,0.0,0.0,0.0,0.0,0.0,0.0,0.0,0.0,0.0,0.0,0.0,0.0,0.0,0.0,0.0,0.0,0.0,0.0,0.0,0.0,0.0,0.0,0.0,0.0,0.0,0.0,0.0,0.0,0.0,0.0,0.0,0.0,0.0,0.0,0.0,0.0,0.0,0.0,0.0,0.0,0.0,0.0,0.0,0.0,0.0,0.0,0.0,0.0,0.0,0.0,0.0,0.0,0.0,0.0,0.0,0.0,0.0,0.0,0.0,0.0,0.0,0.0,0.0,0.0,0.0,0.0,0.0,0.0,0.0,0.0,0.0,0.0,0.0,0.0,0.0,0.0,0.0,0.0,0.0,0.0,0.0,0.0,0.0,0.0,0.0,0.0,0.0,0.0,0.0,0.0,0.0,0.0,0.0,0.0,0.0,0.0,0.0,0.0,0.0,0.0,0.0,0.0,0.0,0.0,0.0,0.0,0.0,0.0,0.0,0.0,0.0,0.0,0.0,0.0,0.0,0.0,0.0,0.0,0.0,0.0,0.0,0.0,0.0,0.0,0.0,0.0,0.0,0.0,0.0,0.0,0.0,0.0,0.0,0.0,0.0,0.0,0.0,0.0,0.0,0.0,0.0,0.0,0.0,0.0,0.0,0.0,0.0,0.0,0.0,0.0,0.0,0.0,0.0,0.0,0.0,0.0,0.0,0.0,0.0,0.0,0.0,0.0,0.0,0.0,0.0,0.0,0.0,0.0,0.0,0.0,0.0,0.0,0.0,0.0,0.0,0.0,0.0,0.0,0.0,0.0,0.0,0.0
0.36355927653206,0.3761127810199622,0.3902943732053489,0.405737869792661,0.4213020756098349,0.4355784105196068,0.4473650640127031,0.45611233592726724,0.4620369247333756,0.4662757311541883,0.4705998887604699,0.47669168200860507,0.48545506269674776,0.49624698618212487,0.5074653566827808,0.5163858753640725,0.5198094661700937,0.5147977894662283,0.498984232962284,0.4723417739905915,0.4364033609540037,0.3942188014829082,0.3496786676504736,0.3064000778456122,0.26754620251432787,0.23466965190354688,0.2075888626326014,0.18455954583471898,0.16279109521827687,0.1393780603147131,0.11204087516905877,0.07982959884463019,0.04346178465394007,0.005073919788926708,-0.03175566863104936,-0.0631681983312874,-0.08581339871802603,-0.09763597652683886,-0.09864678921266745,-0.09008827516656427,-0.07472181746293877,-0.055966902855622815,-0.03709194341682336,-0.02069836331979077,-0.007519916216263472,0.0029643015891549726,0.012492725996794315,0.023452089693192135,0.03801255159992434,0.05800440448872768,0.08367875573369656,0.11390926807525055,0.14649642605455226,0.17840924045158718,0.20767304183203322,0.23267065604669057,0.2529952923100637,0.26954076241591235,0.2836896046489448,0.2985693610098716,0.3164652818848993,0.33872742767256664,0.36526928180143164,0.39376697561646296,0.4217752210593903,0.4451761313924107,0.45954722765123707,0.46099780118695094,0.4462968275421324,0.4155609350195276,0.37031519253370704,0.3140665975397423,0.25186085001747216,0.18915867519742732,0.13241710292061798,0.0868502944937324,0.05627004216272814,0.04272389884799333,0.04619712929599959,0.06542997158600074,0.09750925743070776,0.13850553981456332,0.1839066993948252,0.22891887674324546,0.0,0.0,0.0,0.0,0.0,0.0,0.0,0.0,0.0,0.0,0.0,0.0,0.0,0.0,0.0,0.0,0.0,0.0,0.0,0.0,0.0,0.0,0.0,0.0,0.0,0.0,0.0,0.0,0.0,0.0,0.0,0.0,0.0,0.0,0.0,0.0,0.0,0.0,0.0,0.0,0.0,0.0,0.0,0.0,0.0,0.0,0.0,0.0,0.0,0.0,0.0,0.0,0.0,0.0,0.0,0.0,0.0,0.0,0.0,0.0,0.0,0.0,0.0,0.0,0.0,0.0,0.0,0.0,0.0,0.0,0.0,0.0,0.0,0.0,0.0,0.0,0.0,0.0,0.0,0.0,0.0,0.0,0.0,0.0,0.0,0.0,0.0,0.0,0.0,0.0,0.0,0.0,0.0,0.0,0.0,0.0,0.0,0.0,0.0,0.0,0.0,0.0,0.0,0.0,0.0,0.0,0.0,0.0,0.0,0.0,0.0,0.0,0.0,0.0,0.0,0.0,0.0,0.0,0.0,0.0,0.0,0.0,0.0,0.0,0.0,0.0,0.0,0.0,0.0,0.0,0.0,0.0,0.0,0.0,0.0,0.0,0.0,0.0,0.0,0.0,0.0,0.0,0.0,0.0,0.0,0.0,0.0,0.0,0.0,0.0,0.0,0.0,0.0,0.0,0.0,0.0,0.0,0.0,0.0,0.0,0.0,0.0,0.0,0.0,0.0,0.0,0.0,0.0,0.0,0.0,0.0,0.0,0.0,0.0,0.0,0.0,0.0,0.0,0.0,0.0,0.0,0.0,0.0,0.0,0.0,0.0,0.0,0.0,0.0,0.0,0.0,0.0,0.0,0.0,0.0,0.0,0.0,0.0,0.0,0.0,0.0,0.0,0.0,0.0,0.0,0.0,0.0,0.0,0.0,0.0,0.0,0.0,0.0,0.0,0.0,0.0
0.06542997158600074,0.09750925743070776,0.13850553981456332,0.1839066993948252,0.22891887674324546,0.26914151347263743,0.3005771574386155,0.31997947012685785,0.32508949994165703,0.3148409456024962,0.28948932452837,0.25082252160113283,0.20204333698371948,0.14755050968594427,0.09241974839393037,0.04229500957039862,0.002505445164409787,-0.02254406251544602,-0.0299884805697685,-0.019226662507371116,0.008753132436879429,0.050853357577091085,0.10247469270723303,0.1581824078706132,0.21207619240252074,0.2599556475961066,0.298784056533357,0.3273719836077742,0.3463532963109949,0.3572249156061779,0.36358886017076497,0.3686836114351135,0.37512991603403195,0.3843264576328451,0.3954498466466576,0.40762590975745183,0.4182418984717398,0.42413713595878105,0.42229961895469537,0.40978292456385623,0.38666251978089095,0.35392559090693027,0.3140915569657915,0.2707864128099164,0.22759501672139082,0.1887853546675819,0.15718537956041362,0.13412230147277307,0.11927320666513738,0.11069451586347089,0.1059138563584204,0.10216103559801225,0.09720664851048687,0.08990587829689517,0.0802175178382465,0.0699307577955163,0.06147270293182177,0.05756196632203601,0.06053854992865293,0.0714781154575465,0.09086500222441478,0.1174031715205366,0.148677035697145,0.18169857622394597,0.21323451355586087,0.24146787225967567,0.26544804496721275,0.28547121716672264,0.3028586025192391,0.3191192329853147,0.3364268502985109,0.35627387910879466,0.37921691696911686,0.4046815283236835,0.430569900350314,0.4552723680142345,0.47686389799371093,0.4940448259904429,0.5065044541281278,0.5143353231275662,0.5199292212078738,0.5254892776655283,0.5329604328640807,0.5433696949310151,0.0,0.0,0.0,0.0,0.0,0.0,0.0,0.0,0.0,0.0,0.0,0.0,0.0,0.0,0.0,0.0,0.0,0.0,0.0,0.0,0.0,0.0,0.0,0.0,0.0,0.0,0.0,0.0,0.0,0.0,0.0,0.0,0.0,0.0,0.0,0.0,0.0,0.0,0.0,0.0,0.0,0.0,0.0,0.0,0.0,0.0,0.0,0.0,0.0,0.0,0.0,0.0,0.0,0.0,0.0,0.0,0.0,0.0,0.0,0.0,0.0,0.0,0.0,0.0,0.0,0.0,0.0,0.0,0.0,0.0,0.0,0.0,0.0,0.0,0.0,0.0,0.0,0.0,0.0,0.0,0.0,0.0,0.0,0.0,0.0,0.0,0.0,0.0,0.0,0.0,0.0,0.0,0.0,0.0,0.0,0.0,0.0,0.0,0.0,0.0,0.0,0.0,0.0,0.0,0.0,0.0,0.0,0.0,0.0,0.0,0.0,0.0,0.0,0.0,0.0,0.0,0.0,0.0,0.0,0.0,0.0,0.0,0.0,0.0,0.0,0.0,0.0,0.0,0.0,0.0,0.0,0.0,0.0,0.0,0.0,0.0,0.0,0.0,0.0,0.0,0.0,0.0,0.0,0.0,0.0,0.0,0.0,0.0,0.0,0.0,0.0,0.0,0.0,0.0,0.0,0.0,0.0,0.0,0.0,0.0,0.0,0.0,0.0,0.0,0.0,0.0,0.0,0.0,0.0,0.0,0.0,0.0,0.0,0.0,0.0,0.0,0.0,0.0,0.0,0.0,0.0,0.0,0.0,0.0,0.0,0.0,0.0,0.0,0.0,0.0,0.0,0.0,0.0,0.0,0.0,0.0,0.0,0.0,0.0,0.0,0.0,0.0,0.0,0.0,0.0,0.0,0.0,0.0,0.0,0.0,0.0,0.0,0.0,0.0,0.0,0.0
0.16960105039291196,0.16911643969979134,0.1684401847111687,0.16563589598183792,0.15972074743368292,0.15233633173909558,0.14600777513144939,0.1438189366036892,0.1485826527794075,0.16158147308761092,0.1836343572114428,0.21373768349200006,0.24959596510754728,0.2880861979154524,0.3253009456780016,0.3589696399881952,0.387387733923537,0.41005885040707657,0.4275897430514974,0.4407006862457874,0.45178436292787066,0.4625502571023176,0.47418297642265433,0.48711895466053245,0.5003423200285516,0.5137863246528709,0.5265061435826377,0.5376389762898268,0.5466481662695676,0.5526964746164655,0.5570210464759371,0.5603921740159269,0.563615949375333,0.5672996891410256,0.5709265872008239,0.5752536390202203,0.579911291308847,0.5843307250070915,0.5879512120124836,0.5896339654318197,0.5902679409937287,0.5902102849808422,0.589965441784812,0.5900100553493283,0.5899556492163713,0.5905063381863116,0.591416632341129,0.5921592666554989,0.592068898686173,0.5899841950484501,0.5860815093821388,0.5804987508517769,0.5737197395793503,0.5664355724668236,0.5588802408723225,0.5521448244541118,0.5467532412113434,0.5429719588441128,0.5408022462474744,0.5396031418876681,0.5394615701026507,0.5401104575410657,0.5412868780717437,0.5427281640748972,0.5438446679896867,0.5447746892896148,0.54530038360509,0.5452681026310905,0.5446540819023201,0.5433806649775389,0.5420882247725829,0.5409765376770255,0.5401356775203286,0.5395323554679351,0.5387818553584784,0.5381391614690963,0.5373273533815986,0.5361089161993932,0.5344106290335501,0.532091085469916,0.5299723693782186,0.5283035907001646,0.5271700050273711,0.5264603837737969,0.0,0.0,0.0,0.0,0.0,0.0,0.0,0.0,0.0,0.0,0.0,0.0,0.0,0.0,0.0,0.0,0.0,0.0,0.0,0.0,0.0,0.0,0.0,0.0,0.0,0.0,0.0,0.0,0.0,0.0,0.0,0.0,0.0,0.0,0.0,0.0,0.0,0.0,0.0,0.0,0.0,0.0,0.0,0.0,0.0,0.0,0.0,0.0,0.0,0.0,0.0,0.0,0.0,0.0,0.0,0.0,0.0,0.0,0.0,0.0,0.0,0.0,0.0,0.0,0.0,0.0,0.0,0.0,0.0,0.0,0.0,0.0,0.0,0.0,0.0,0.0,0.0,0.0,0.0,0.0,0.0,0.0,0.0,0.0,0.0,0.0,0.0,0.0,0.0,0.0,0.0,0.0,0.0,0.0,0.0,0.0,0.0,0.0,0.0,0.0,0.0,0.0,0.0,0.0,0.0,0.0,0.0,0.0,0.0,0.0,0.0,0.0,0.0,0.0,0.0,0.0,0.0,0.0,0.0,0.0,0.0,0.0,0.0,0.0,0.0,0.0,0.0,0.0,0.0,0.0,0.0,0.0,0.0,0.0,0.0,0.0,0.0,0.0,0.0,0.0,0.0,0.0,0.0,0.0,0.0,0.0,0.0,0.0,0.0,0.0,0.0,0.0,0.0,0.0,0.0,0.0,0.0,0.0,0.0,0.0,0.0,0.0,0.0,0.0,0.0,0.0,0.0,0.0,0.0,0.0,0.0,0.0,0.0,0.0,0.0,0.0,0.0,0.0,0.0,0.0,0.0,0.0,0.0,0.0,0.0,0.0,0.0,0.0,0.0,0.0,0.0,0.0,0.0,0.0,0.0,0.0,0.0,0.0,0.0,0.0,0.0,0.0,0.0,0.0,0.0,0.0,0.0,0.0,0.0,0.0,0.0,0.0,0.0,0.0,0.0,0.0
0.08145783444950035,0.03929160954763044,0.007001700188080673,-0.014245275033261347,-0.0254240867819923,-0.027529445176968752,-0.023201771150850977,-0.015454454690989263,-0.007060577478432711,-0.0007384554227664623,0.0031710404859660703,0.00441779591712006,0.0032629520661891284,0.00012412007639592704,-0.005432229875196467,-0.012516936864967354,-0.021202440282161273,-0.03156457536414844,-0.04339651842317891,-0.056708125983685034,-0.06937987375614194,-0.07969071847161112,-0.0859498864669534,-0.08691715692275374,-0.08286147428147489,-0.07339703873280926,-0.05972430288230896,-0.043590576076823824,-0.026850029942914463,-0.011766045519194246,0.0016312173692594077,0.013259976315677182,0.02356333565788711,0.033217097036924825,0.04206486725111745,0.051279117189344525,0.060909679570182826,0.07069543401274632,0.08026776150247643,0.08866885100349481,0.09682913216606287,0.10538219459229067,0.11523164330845471,0.12731842596802806,0.1416495853942262,0.15926333669703038,0.18000415130963227,0.20314910822618745,0.22753785476747265,0.25121731043715273,0.27352301214361496,0.29374984127881704,0.3117190909588971,0.32775728356691725,0.34207247680464137,0.35593597948522515,0.3703593857438524,0.38605505218984215,0.403186100372664,0.4207801327236538,0.4382068154403174,0.4543402702679436,0.46808549567149693,0.4786149171784107,0.48506305848139564,0.4879960463445979,0.48827840813769613,0.4871114369729999,0.48571405520243693,0.4847279695565571,0.4848938466765019,0.48641211339650053,0.4891563992368093,0.49281319322646316,0.4969179786031786,0.501287520676088,0.5059065465836802,0.5108637822203089,0.5162119399606315,0.5216149412814787,0.5269645615818214,0.5319468392850806,0.5362404071251823,0.5396106866947998,0.0,0.0,0.0,0.0,0.0,0.0,0.0,0.0,0.0,0.0,0.0,0.0,0.0,0.0,0.0,0.0,0.0,0.0,0.0,0.0,0.0,0.0,0.0,0.0,0.0,0.0,0.0,0.0,0.0,0.0,0.0,0.0,0.0,0.0,0.0,0.0,0.0,0.0,0.0,0.0,0.0,0.0,0.0,0.0,0.0,0.0,0.0,0.0,0.0,0.0,0.0,0.0,0.0,0.0,0.0,0.0,0.0,0.0,0.0,0.0,0.0,0.0,0.0,0.0,0.0,0.0,0.0,0.0,0.0,0.0,0.0,0.0,0.0,0.0,0.0,0.0,0.0,0.0,0.0,0.0,0.0,0.0,0.0,0.0,0.0,0.0,0.0,0.0,0.0,0.0,0.0,0.0,0.0,0.0,0.0,0.0,0.0,0.0,0.0,0.0,0.0,0.0,0.0,0.0,0.0,0.0,0.0,0.0,0.0,0.0,0.0,0.0,0.0,0.0,0.0,0.0,0.0,0.0,0.0,0.0,0.0,0.0,0.0,0.0,0.0,0.0,0.0,0.0,0.0,0.0,0.0,0.0,0.0,0.0,0.0,0.0,0.0,0.0,0.0,0.0,0.0,0.0,0.0,0.0,0.0,0.0,0.0,0.0,0.0,0.0,0.0,0.0,0.0,0.0,0.0,0.0,0.0,0.0,0.0,0.0,0.0,0.0,0.0,0.0,0.0,0.0,0.0,0.0,0.0,0.0,0.0,0.0,0.0,0.0,0.0,0.0,0.0,0.0,0.0,0.0,0.0,0.0,0.0,0.0,0.0,0.0,0.0,0.0,0.0,0.0,0.0,0.0,0.0,0.0,0.0,0.0,0.0,0.0,0.0,0.0,0.0,0.0,0.0,0.0,0.0,0.0,0.0,0.0,0.0,0.0,0.0,0.0,0.0,0.0,0.0,0.0
0.185190500811941,0.18501390336177584,0.1969049122243384,0.21794597744304703,0.2443864687812925,0.27236451754762325,0.298186993450943,0.32022756475559083,0.33751744217614776,0.3502554305549412,0.35953853428330557,0.3663909970908993,0.3731000851752606,0.3808288114588791,0.3900316643492972,0.4004522426726612,0.4107878801203064,0.42075113065516556,0.42945818849169914,0.43635060890313565,0.44136595106201687,0.44443418089401737,0.4470117683691774,0.44990584288308844,0.4536425477592543,0.45830831297296637,0.46303601911428605,0.46780437260164426,0.4718003843235203,0.47435724846315686,0.47525067488391587,0.47437357303744987,0.47333322915043186,0.4733336268725055,0.4753980131249115,0.47994830939335614,0.48597483672899644,0.49248903741889943,0.4967674006870258,0.4953432884508923,0.4846459439027964,0.46128231586692237,0.42436028570427103,0.37418863872199587,0.31310431427488955,0.24534710848464963,0.17611969191271995,0.1122584762042288,0.05978187224162579,0.023449057288168214,0.006048273066502804,0.0075978717883262116,0.026667797144700443,0.05956626686287482,0.10134450108662676,0.14658863206698897,0.18978118299639474,0.22731574707165292,0.25656557758752235,0.2764168919300566,0.28712899106747514,0.2895671531877594,0.28619721224134076,0.27917416875617196,0.2704648680374805,0.2616279288711682,0.25355017727546597,0.24710066405213135,0.24228532028567,0.2387745037344943,0.2361268666748613,0.23407601659246016,0.23250324707678083,0.23107499900399484,0.22951235630544428,0.22766458252918134,0.2255422414683193,0.2235576355425281,0.22180159219131693,0.22033438179262915,0.2192022983835014,0.21830043160197668,0.21795248412956628,0.21791185491675236,0.0,0.0,0.0,0.0,0.0,0.0,0.0,0.0,0.0,0.0,0.0,0.0,0.0,0.0,0.0,0.0,0.0,0.0,0.0,0.0,0.0,0.0,0.0,0.0,0.0,0.0,0.0,0.0,0.0,0.0,0.0,0.0,0.0,0.0,0.0,0.0,0.0,0.0,0.0,0.0,0.0,0.0,0.0,0.0,0.0,0.0,0.0,0.0,0.0,0.0,0.0,0.0,0.0,0.0,0.0,0.0,0.0,0.0,0.0,0.0,0.0,0.0,0.0,0.0,0.0,0.0,0.0,0.0,0.0,0.0,0.0,0.0,0.0,0.0,0.0,0.0,0.0,0.0,0.0,0.0,0.0,0.0,0.0,0.0,0.0,0.0,0.0,0.0,0.0,0.0,0.0,0.0,0.0,0.0,0.0,0.0,0.0,0.0,0.0,0.0,0.0,0.0,0.0,0.0,0.0,0.0,0.0,0.0,0.0,0.0,0.0,0.0,0.0,0.0,0.0,0.0,0.0,0.0,0.0,0.0,0.0,0.0,0.0,0.0,0.0,0.0,0.0,0.0,0.0,0.0,0.0,0.0,0.0,0.0,0.0,0.0,0.0,0.0,0.0,0.0,0.0,0.0,0.0,0.0,0.0,0.0,0.0,0.0,0.0,0.0,0.0,0.0,0.0,0.0,0.0,0.0,0.0,0.0,0.0,0.0,0.0,0.0,0.0,0.0,0.0,0.0,0.0,0.0,0.0,0.0,0.0,0.0,0.0,0.0,0.0,0.0,0.0,0.0,0.0,0.0,0.0,0.0,0.0,0.0,0.0,0.0,0.0,0.0,0.0,0.0,0.0,0.0,0.0,0.0,0.0,0.0,0.0,0.0,0.0,0.0,0.0,0.0,0.0,0.0,0.0,0.0,0.0,0.0,0.0,0.0,0.0,0.0,0.0,0.0,0.0,0.0
0.0075978717883262116,0.026667797144700443,0.05956626686287482,0.10134450108662676,0.14658863206698897,0.18978118299639474,0.22731574707165292,0.25656557758752235,0.2764168919300566,0.28712899106747514,0.2895671531877594,0.28619721224134076,0.27917416875617196,0.2704648680374805,0.2616279288711682,0.25355017727546597,0.24710066405213135,0.24228532028567,0.2387745037344943,0.2361268666748613,0.23407601659246016,0.23250324707678083,0.23107499900399484,0.22951235630544428,0.22766458252918134,0.2255422414683193,0.2235576355425281,0.22180159219131693,0.22033438179262915,0.2192022983835014,0.21830043160197668,0.21795248412956628,0.21791185491675236,0.21780397598426626,0.2172753250098367,0.21602593005946585,0.21458589011363993,0.21340676604312747,0.2132910505050351,0.21534835163617197,0.22066039531508091,0.2306151864928297,0.24553284992081084,0.2648231375497686,0.28695875318383307,0.3094234670880495,0.3299170048155349,0.345971334184548,0.35577023591979023,0.3585691547314941,0.35454812766726573,0.34569158142904943,0.3345994833263024,0.32398159430143075,0.31584748469651003,0.3102862739571076,0.3066277283564543,0.3020736014047978,0.292480244675065,0.2731258146615259,0.23903377433500397,0.18819595207211795,0.120479658898497,0.03861474724746687,-0.051963656498902625,-0.14434149510995675,-0.22974916768422013,-0.3004309086581273,-0.3505299758802121,-0.3770531276593312,-0.3805582685849881,-0.3639471382926087,-0.3326381779651415,-0.2930785958321388,-0.2514982188691783,-0.21309925490095627,-0.1807575462019971,-0.15574679683244583,-0.1378423152717858,-0.1259433100790254,-0.1188609678339101,-0.11533143155160272,-0.1147889396996498,-0.11697931566112982,0.0,0.0,0.0,0.0,0.0,0.0,0.0,0.0,0.0,0.0,0.0,0.0,0.0,0.0,0.0,0.0,0.0,0.0,0.0,0.0,0.0,0.0,0.0,0.0,0.0,0.0,0.0,0.0,0.0,0.0,0.0,0.0,0.0,0.0,0.0,0.0,0.0,0.0,0.0,0.0,0.0,0.0,0.0,0.0,0.0,0.0,0.0,0.0,0.0,0.0,0.0,0.0,0.0,0.0,0.0,0.0,0.0,0.0,0.0,0.0,0.0,0.0,0.0,0.0,0.0,0.0,0.0,0.0,0.0,0.0,0.0,0.0,0.0,0.0,0.0,0.0,0.0,0.0,0.0,0.0,0.0,0.0,0.0,0.0,0.0,0.0,0.0,0.0,0.0,0.0,0.0,0.0,0.0,0.0,0.0,0.0,0.0,0.0,0.0,0.0,0.0,0.0,0.0,0.0,0.0,0.0,0.0,0.0,0.0,0.0,0.0,0.0,0.0,0.0,0.0,0.0,0.0,0.0,0.0,0.0,0.0,0.0,0.0,0.0,0.0,0.0,0.0,0.0,0.0,0.0,0.0,0.0,0.0,0.0,0.0,0.0,0.0,0.0,0.0,0.0,0.0,0.0,0.0,0.0,0.0,0.0,0.0,0.0,0.0,0.0,0.0,0.0,0.0,0.0,0.0,0.0,0.0,0.0,0.0,0.0,0.0,0.0,0.0,0.0,0.0,0.0,0.0,0.0,0.0,0.0,0.0,0.0,0.0,0.0,0.0,0.0,0.0,0.0,0.0,0.0,0.0,0.0,0.0,0.0,0.0,0.0,0.0,0.0,0.0,0.0,0.0,0.0,0.0,0.0,0.0,0.0,0.0,0.0,0.0,0.0,0.0,0.0,0.0,0.0,0.0,0.0,0.0,0.0,0.0,0.0,0.0,0.0,0.0,0.0,0.0,0.0
-0.22974916768422013,-0.3004309086581273,-0.3505299758802121,-0.3770531276593312,-0.3805582685849881,-0.3639471382926087,-0.3326381779651415,-0.2930785958321388,-0.2514982188691783,-0.21309925490095627,-0.1807575462019971,-0.15574679683244583,-0.1378423152717858,-0.1259433100790254,-0.1188609678339101,-0.11533143155160272,-0.1147889396996498,-0.11697931566112982,-0.12153712168272213,-0.12784849766521897,-0.1336393826420536,-0.13604094377724724,-0.13163521067097306,-0.1171309332864189,-0.09071351541043694,-0.051034793573413895,0.0008481728481442099,0.06192106738428863,0.12765712158982873,0.19218871663007037,0.251329805305814,0.301680487255217,0.3418118181447083,0.3724451764660762,0.39539331485864965,0.4151304441160439,0.4356122475309699,0.45983450983662094,0.48895016854304013,0.5210359457683242,0.5535731842759034,0.5818822381932413,0.6007279576474466,0.605455160620004,0.592242785597496,0.5613262308642067,0.5150453560953746,0.45808488250353463,0.39655935669397474,0.3361362833944538,0.2826642541586362,0.23977675502139553,0.2085979754664047,0.18766355276794547,0.17294417765292028,0.1601336889425943,0.1452950915614186,0.12593173525540335,0.10161135163415082,0.07358293299610054,0.045845926716827884,0.02355811932124515,0.012039648836154333,0.015559150500356146,0.035803357556131295,0.07290901647171333,0.12442283332024928,0.18597108589045688,0.25202531537663353,0.3165848449531721,0.3748422403770996,0.4235023816644693,0.46121157498695564,0.4884914802529109,0.5073325305008475,0.5204294445068576,0.5306693698454845,0.5404161766915117,0.5511087513061951,0.5630479878886018,0.576014077250314,0.5892162872424814,0.601903089781829,0.6137260223594794,0.0,0.0,0.0,0.0,0.0,0.0,0.0,0.0,0.0,0.0,0.0,0.0,0.0,0.0,0.0,0.0,0.0,0.0,0.0,0.0,0.0,0.0,0.0,0.0,0.0,0.0,0.0,0.0,0.0,0.0,0.0,0.0,0.0,0.0,0.0,0.0,0.0,0.0,0.0,0.0,0.0,0.0,0.0,0.0,0.0,0.0,0.0,0.0,0.0,0.0,0.0,0.0,0.0,0.0,0.0,0.0,0.0,0.0,0.0,0.0,0.0,0.0,0.0,0.0,0.0,0.0,0.0,0.0,0.0,0.0,0.0,0.0,0.0,0.0,0.0,0.0,0.0,0.0,0.0,0.0,0.0,0.0,0.0,0.0,0.0,0.0,0.0,0.0,0.0,0.0,0.0,0.0,0.0,0.0,0.0,0.0,0.0,0.0,0.0,0.0,0.0,0.0,0.0,0.0,0.0,0.0,0.0,0.0,0.0,0.0,0.0,0.0,0.0,0.0,0.0,0.0,0.0,0.0,0.0,0.0,0.0,0.0,0.0,0.0,0.0,0.0,0.0,0.0,0.0,0.0,0.0,0.0,0.0,0.0,0.0,0.0,0.0,0.0,0.0,0.0,0.0,0.0,0.0,0.0,0.0,0.0,0.0,0.0,0.0,0.0,0.0,0.0,0.0,0.0,0.0,0.0,0.0,0.0,0.0,0.0,0.0,0.0,0.0,0.0,0.0,0.0,0.0,0.0,0.0,0.0,0.0,0.0,0.0,0.0,0.0,0.0,0.0,0.0,0.0,0.0,0.0,0.0,0.0,0.0,0.0,0.0,0.0,0.0,0.0,0.0,0.0,0.0,0.0,0.0,0.0,0.0,0.0,0.0,0.0,0.0,0.0,0.0,0.0,0.0,0.0,0.0,0.0,0.0,0.0,0.0,0.0,0.0,0.0,0.0,0.0,0.0
0.07732328449152027,0.046770895849840746,0.03348835878452369,0.03391603954600203,0.04235666929219734,0.05302018865744359,0.0614089466953605,0.0646284898293794,0.06407572067501616,0.06277608832522132,0.06520987145452686,0.07604699754088029,0.09802744886028095,0.13367083617552641,0.18209426144539373,0.24003877242466157,0.30260371552082843,0.3633831960618343,0.4186552333409949,0.4652202135178357,0.5018297516851733,0.5291604335007765,0.5482858152777738,0.5633273094504498,0.5772167671976366,0.5920625061939706,0.6087661156956872,0.626068529701743,0.6439444500658542,0.6609729063686968,0.6759464743813957,0.6883717978905978,0.6978789611122902,0.706847087561781,0.7170392605113506,0.7299422031908495,0.7461549228127405,0.7640438769231452,0.7824921306156514,0.7980803649329282,0.8066105691112565,0.8039380477348834,0.7859271661575673,0.7523189194169358,0.7040887490160311,0.6444524118958584,0.5784706313806867,0.5114690015178575,0.4506280199157737,0.4016314737608265,0.3684940697445493,0.35300321502648996,0.35388102339247296,0.36908274602889657,0.39478397804459436,0.42651135031005827,0.4598637034402722,0.49072597393069206,0.5170062503084615,0.5378448171271974,0.5538389944478493,0.5667241918540546,0.5786981910843181,0.5923014616132419,0.609351363564942,0.6306000048180647,0.6554759021189733,0.6819547967340523,0.7074151874489978,0.72839664492453,0.7415354471004459,0.7442276123838921,0.7350002530956617,0.7143882457761392,0.6838572494420907,0.6460182456401536,0.6043135793569104,0.562225111894278,0.5242597672856769,0.4937898549407018,0.47334365166652664,0.4643995463299289,0.466613877637458,0.47999608337768274,0.0,0.0,0.0,0.0,0.0,0.0,0.0,0.0,0.0,0.0,0.0,0.0,0.0,0.0,0.0,0.0,0.0,0.0,0.0,0.0,0.0,0.0,0.0,0.0,0.0,0.0,0.0,0.0,0.0,0.0,0.0,0.0,0.0,0.0,0.0,0.0,0.0,0.0,0.0,0.0,0.0,0.0,0.0,0.0,0.0,0.0,0.0,0.0,0.0,0.0,0.0,0.0,0.0,0.0,0.0,0.0,0.0,0.0,0.0,0.0,0.0,0.0,0.0,0.0,0.0,0.0,0.0,0.0,0.0,0.0,0.0,0.0,0.0,0.0,0.0,0.0,0.0,0.0,0.0,0.0,0.0,0.0,0.0,0.0,0.0,0.0,0.0,0.0,0.0,0.0,0.0,0.0,0.0,0.0,0.0,0.0,0.0,0.0,0.0,0.0,0.0,0.0,0.0,0.0,0.0,0.0,0.0,0.0,0.0,0.0,0.0,0.0,0.0,0.0,0.0,0.0,0.0,0.0,0.0,0.0,0.0,0.0,0.0,0.0,0.0,0.0,0.0,0.0,0.0,0.0,0.0,0.0,0.0,0.0,0.0,0.0,0.0,0.0,0.0,0.0,0.0,0.0,0.0,0.0,0.0,0.0,0.0,0.0,0.0,0.0,0.0,0.0,0.0,0.0,0.0,0.0,0.0,0.0,0.0,0.0,0.0,0.0,0.0,0.0,0.0,0.0,0.0,0.0,0.0,0.0,0.0,0.0,0.0,0.0,0.0,0.0,0.0,0.0,0.0,0.0,0.0,0.0,0.0,0.0,0.0,0.0,0.0,0.0,0.0,0.0,0.0,0.0,0.0,0.0,0.0,0.0,0.0,0.0,0.0,0.0,0.0,0.0,0.0,0.0,0.0,0.0,0.0,0.0,0.0,0.0,0.0,0.0,0.0,0.0,0.0,0.0
0.13232058686185325,0.10253976960329567,0.07698100777688047,0.05118842446845896,0.021740793454161952,-0.012802079326566889,-0.05172054025751639,-0.09099880441870967,-0.12556777578575787,-0.1496625859853724,-0.157924745514987,-0.1466495331204772,-0.11384902255601997,-0.0611417501558715,0.006924236078165092,0.08352120397688831,0.1601920198868865,0.22924043992929666,0.2831796511419408,0.31622669866888636,0.3249671534687636,0.3081633173102509,0.2684593630899731,0.2102174025079633,0.13950842743761757,0.06333566884732891,-0.01182229065323309,-0.07900503052779179,-0.1336342501595591,-0.17337362326131991,-0.19829581577410574,-0.21126310603108356,-0.21522099592177613,-0.21462099963752923,-0.21362167457829417,-0.21512799342450123,-0.22082234530710218,-0.22867684576956404,-0.2357816173160366,-0.23821657375626037,-0.23196017107489672,-0.21456863659677705,-0.18342934726211746,-0.13892112021870257,-0.08356243272123969,-0.021667578174084864,0.04048518461924098,0.09776520057195004,0.1445558127782074,0.17603224262368758,0.188625014726727,0.17961213523982825,0.14970786791932514,0.10129065887028402,0.03882140498031806,-0.03151368094428794,-0.10296711045551604,-0.1673616598010743,-0.21725663718973187,-0.24661288015539545,-0.2516523766153029,-0.23177719374968273,-0.18869777354824785,-0.1267077974821669,-0.0519418353269288,0.02847875084034635,0.10691603658479513,0.17758126050596307,0.23602898296226107,0.2798383659056717,0.30860987829599557,0.3230632006586536,0.32647086230204797,0.32226021462275223,0.3139793750378093,0.30480571483026775,0.29682132781864684,0.29196755589214973,0.29109254653293654,0.2942809542689732,0.3010015513645398,0.31015183163602406,0.3206077390496999,0.33137546510448923,0.0,0.0,0.0,0.0,0.0,0.0,0.0,0.0,0.0,0.0,0.0,0.0,0.0,0.0,0.0,0.0,0.0,0.0,0.0,0.0,0.0,0.0,0.0,0.0,0.0,0.0,0.0,0.0,0.0,0.0,0.0,0.0,0.0,0.0,0.0,0.0,0.0,0.0,0.0,0.0,0.0,0.0,0.0,0.0,0.0,0.0,0.0,0.0,0.0,0.0,0.0,0.0,0.0,0.0,0.0,0.0,0.0,0.0,0.0,0.0,0.0,0.0,0.0,0.0,0.0,0.0,0.0,0.0,0.0,0.0,0.0,0.0,0.0,0.0,0.0,0.0,0.0,0.0,0.0,0.0,0.0,0.0,0.0,0.0,0.0,0.0,0.0,0.0,0.0,0.0,0.0,0.0,0.0,0.0,0.0,0.0,0.0,0.0,0.0,0.0,0.0,0.0,0.0,0.0,0.0,0.0,0.0,0.0,0.0,0.0,0.0,0.0,0.0,0.0,0.0,0.0,0.0,0.0,0.0,0.0,0.0,0.0,0.0,0.0,0.0,0.0,0.0,0.0,0.0,0.0,0.0,0.0,0.0,0.0,0.0,0.0,0.0,0.0,0.0,0.0,0.0,0.0,0.0,0.0,0.0,0.0,0.0,0.0,0.0,0.0,0.0,0.0,0.0,0.0,0.0,0.0,0.0,0.0,0.0,0.0,0.0,0.0,0.0,0.0,0.0,0.0,0.0,0.0,0.0,0.0,0.0,0.0,0.0,0.0,0.0,0.0,0.0,0.0,0.0,0.0,0.0,0.0,0.0,0.0,0.0,0.0,0.0,0.0,0.0,0.0,0.0,0.0,0.0,0.0,0.0,0.0,0.0,0.0,0.0,0.0,0.0,0.0,0.0,0.0,0.0,0.0,0.0,0.0,0.0,0.0,0.0,0.0,0.0,0.0,0.0,0.0
0.32226021462275223,0.3139793750378093,0.30480571483026775,0.29682132781864684,0.29196755589214973,0.29109254653293654,0.2942809542689732,0.3010015513645398,0.31015183163602406,0.3206077390496999,0.33137546510448923,0.3416820042738273,0.3510675642650766,0.359189893233132,0.3666814263206282,0.37485346903740246,0.3856069428497317,0.4011335771656134,0.4230517238115012,0.4530890002490316,0.49194722143951863,0.5389439835265559,0.5917370176275428,0.6458441768764709,0.6966786490301167,0.7391288485438802,0.768709752525145,0.7823404580894722,0.7782416395706295,0.7581216363924659,0.7252363687458498,0.6842478617783022,0.6403424190075394,0.5977658586787631,0.5606534672085344,0.5314088276817559,0.5108449291575808,0.49834437992560665,0.49183356640709713,0.48949460205205064,0.4896408422424143,0.4910533359190274,0.49296091992264224,0.4942223742768349,0.4948974921342646,0.4945672530660334,0.4924994798762058,0.4875774599196779,0.47762151164540134,0.4622061146697894,0.44082905321238564,0.41391330863522197,0.38300165946701414,0.35015577608703563,0.3194898724441188,0.29497831568328686,0.2803453308136779,0.27842585901435046,0.2903003774917684,0.3160930628578435,0.35377276147063835,0.39981841738148555,0.4497697956447142,0.4984609864071784,0.5422681646914924,0.578147766687899,0.6044753330854499,0.6211137322750779,0.6285988677315795,0.6296732869402116,0.6268383079175097,0.6224355601881022,0.6182588538978996,0.6147338358354407,0.6130068090191839,0.6128885153139233,0.6138658078040138,0.6154039755207212,0.6165153773764758,0.6180307654385235,0.6199842975736346,0.6223620588086789,0.625035929650156,0.6272011932945443,0.0,0.0,0.0,0.0,0.0,0.0,0.0,0.0,0.0,0.0,0.0,0.0,0.0,0.0,0.0,0.0,0.0,0.0,0.0,0.0,0.0,0.0,0.0,0.0,0.0,0.0,0.0,0.0,0.0,0.0,0.0,0.0,0.0,0.0,0.0,0.0,0.0,0.0,0.0,0.0,0.0,0.0,0.0,0.0,0.0,0.0,0.0,0.0,0.0,0.0,0.0,0.0,0.0,0.0,0.0,0.0,0.0,0.0,0.0,0.0,0.0,0.0,0.0,0.0,0.0,0.0,0.0,0.0,0.0,0.0,0.0,0.0,0.0,0.0,0.0,0.0,0.0,0.0,0.0,0.0,0.0,0.0,0.0,0.0,0.0,0.0,0.0,0.0,0.0,0.0,0.0,0.0,0.0,0.0,0.0,0.0,0.0,0.0,0.0,0.0,0.0,0.0,0.0,0.0,0.0,0.0,0.0,0.0,0.0,0.0,0.0,0.0,0.0,0.0,0.0,0.0,0.0,0.0,0.0,0.0,0.0,0.0,0.0,0.0,0.0,0.0,0.0,0.0,0.0,0.0,0.0,0.0,0.0,0.0,0.0,0.0,0.0,0.0,0.0,0.0,0.0,0.0,0.0,0.0,0.0,0.0,0.0,0.0,0.0,0.0,0.0,0.0,0.0,0.0,0.0,0.0,0.0,0.0,0.0,0.0,0.0,0.0,0.0,0.0,0.0,0.0,0.0,0.0,0.0,0.0,0.0,0.0,0.0,0.0,0.0,0.0,0.0,0.0,0.0,0.0,0.0,0.0,0.0,0.0,0.0,0.0,0.0,0.0,0.0,0.0,0.0,0.0,0.0,0.0,0.0,0.0,0.0,0.0,0.0,0.0,0.0,0.0,0.0,0.0,0.0,0.0,0.0,0.0,0.0,0.0,0.0,0.0,0.0,0.0,0.0,0.0
0.19700627318614894,0.19497517262341657,0.21032140347773834,0.23940527568564188,0.27745060942696376,0.31923809793222,0.3593175850671335,0.39405721388806875,0.42035555203073105,0.43635714897967487,0.44146992267829105,0.4357786562357748,0.42144578260233556,0.40052677285597965,0.37538584008673354,0.3484982703316932,0.3217795176825991,0.2980141898247179,0.27870369801746464,0.2645722358447594,0.2555266179850953,0.25024601118183576,0.24803874354240504,0.24719446519295707,0.24605538406854532,0.24346757838674168,0.2386039025330573,0.23299001598439606,0.22834145804284192,0.2269832813838638,0.23140853878838802,0.24313582556680233,0.2642068941058417,0.2945373071369004,0.33250522618319567,0.3751063105325613,0.41765404744124757,0.45677440675154274,0.4885047147898669,0.5097568072090131,0.5188040822767346,0.5146836101161083,0.49989981725201227,0.47720054256298905,0.44997642978051583,0.4216543578669664,0.39442087221459227,0.370956010249351,0.3519978940607931,0.33702061906663955,0.32450463345719827,0.3118747254971082,0.2977073169677133,0.2807789099629371,0.26081413091883376,0.23855294873707905,0.2151501878617867,0.1931222966560907,0.17449140682955583,0.16076055907074863,0.1526012640169599,0.14945961528322496,0.15070258628809793,0.15465806291812897,0.15950929382971835,0.16377629498226662,0.16630339276052214,0.1676600874184852,0.16870365478664343,0.17070742698744257,0.17495132594757334,0.1818534432718838,0.19216122122176796,0.20545789796807248,0.22070087933154234,0.23651636703022946,0.25119734621997797,0.264353778319353,0.27594799731287334,0.2867320470195559,0.29808140811288564,0.3113058467004921,0.3282316117679414,0.34967990350606576,0.0,0.0,0.0,0.0,0.0,0.0,0.0,0.0,0.0,0.0,0.0,0.0,0.0,0.0,0.0,0.0,0.0,0.0,0.0,0.0,0.0,0.0,0.0,0.0,0.0,0.0,0.0,0.0,0.0,0.0,0.0,0.0,0.0,0.0,0.0,0.0,0.0,0.0,0.0,0.0,0.0,0.0,0.0,0.0,0.0,0.0,0.0,0.0,0.0,0.0,0.0,0.0,0.0,0.0,0.0,0.0,0.0,0.0,0.0,0.0,0.0,0.0,0.0,0.0,0.0,0.0,0.0,0.0,0.0,0.0,0.0,0.0,0.0,0.0,0.0,0.0,0.0,0.0,0.0,0.0,0.0,0.0,0.0,0.0,0.0,0.0,0.0,0.0,0.0,0.0,0.0,0.0,0.0,0.0,0.0,0.0,0.0,0.0,0.0,0.0,0.0,0.0,0.0,0.0,0.0,0.0,0.0,0.0,0.0,0.0,0.0,0.0,0.0,0.0,0.0,0.0,0.0,0.0,0.0,0.0,0.0,0.0,0.0,0.0,0.0,0.0,0.0,0.0,0.0,0.0,0.0,0.0,0.0,0.0,0.0,0.0,0.0,0.0,0.0,0.0,0.0,0.0,0.0,0.0,0.0,0.0,0.0,0.0,0.0,0.0,0.0,0.0,0.0,0.0,0.0,0.0,0.0,0.0,0.0,0.0,0.0,0.0,0.0,0.0,0.0,0.0,0.0,0.0,0.0,0.0,0.0,0.0,0.0,0.0,0.0,0.0,0.0,0.0,0.0,0.0,0.0,0.0,0.0,0.0,0.0,0.0,0.0,0.0,0.0,0.0,0.0,0.0,0.0,0.0,0.0,0.0,0.0,0.0,0.0,0.0,0.0,0.0,0.0,0.0,0.0,0.0,0.0,0.0,0.0,0.0,0.0,0.0,0.0,0.0,0.0,0.0
0.061748895874865706,0.06622306140291916,0.08765837477797381,0.12284125701321873,0.16722470339964463,0.21560882837045317,0.2626719681723379,0.30420205474741946,0.3369080375347121,0.3588545183465264,0.3694687608660406,0.3690205146427276,0.35941985470354354,0.342864870398768,0.3218290376385668,0.29881194360919355,0.27573210851124136,0.25526088580190726,0.23943221521322222,0.22996751110307467,0.22815512635234647,0.2341424843642281,0.24852087749217944,0.270541636525699,0.2985583367320508,0.33009279314317486,0.36141677844628367,0.3899352283795923,0.4126332015044474,0.42712681687791276,0.43203045993400324,0.42646140515299186,0.41237191409867935,0.39201541828656067,0.36825210110176343,0.3439943869951107,0.3209016242531988,0.3011508168642942,0.2848258071029377,0.27058639702675275,0.2559583140562182,0.23721397017502494,0.21240494741260546,0.17989993972133556,0.13969717255581374,0.09371804109972358,0.04531271624650954,-0.0001170376239043369,-0.037171802013116505,-0.06106670551003831,-0.06852223185677109,-0.05840130370607863,-0.031835383011568505,0.007876765535428638,0.055955009005913776,0.10703353037810902,0.15594715234686543,0.19916084078683716,0.2345894710634757,0.26196610919576024,0.2825892926129891,0.2984341576395271,0.3125637297384555,0.3271741928762615,0.3435271646328347,0.3617705733354301,0.38074820970827544,0.3994500261110005,0.41636767845393946,0.43035147951459096,0.4409518540578711,0.4482041493654154,0.45348753226907723,0.4581366392893678,0.46332028160272465,0.46966572817982016,0.47663327356822344,0.48399955977685327,0.4906966216390728,0.4956862052380824,0.49837960230176925,0.49835075680312013,0.497185884914063,0.49635342754716527,0.0,0.0,0.0,0.0,0.0,0.0,0.0,0.0,0.0,0.0,0.0,0.0,0.0,0.0,0.0,0.0,0.0,0.0,0.0,0.0,0.0,0.0,0.0,0.0,0.0,0.0,0.0,0.0,0.0,0.0,0.0,0.0,0.0,0.0,0.0,0.0,0.0,0.0,0.0,0.0,0.0,0.0,0.0,0.0,0.0,0.0,0.0,0.0,0.0,0.0,0.0,0.0,0.0,0.0,0.0,0.0,0.0,0.0,0.0,0.0,0.0,0.0,0.0,0.0,0.0,0.0,0.0,0.0,0.0,0.0,0.0,0.0,0.0,0.0,0.0,0.0,0.0,0.0,0.0,0.0,0.0,0.0,0.0,0.0,0.0,0.0,0.0,0.0,0.0,0.0,0.0,0.0,0.0,0.0,0.0,0.0,0.0,0.0,0.0,0.0,0.0,0.0,0.0,0.0,0.0,0.0,0.0,0.0,0.0,0.0,0.0,0.0,0.0,0.0,0.0,0.0,0.0,0.0,0.0,0.0,0.0,0.0,0.0,0.0,0.0,0.0,0.0,0.0,0.0,0.0,0.0,0.0,0.0,0.0,0.0,0.0,0.0,0.0,0.0,0.0,0.0,0.0,0.0,0.0,0.0,0.0,0.0,0.0,0.0,0.0,0.0,0.0,0.0,0.0,0.0,0.0,0.0,0.0,0.0,0.0,0.0,0.0,0.0,0.0,0.0,0.0,0.0,0.0,0.0,0.0,0.0,0.0,0.0,0.0,0.0,0.0,0.0,0.0,0.0,0.0,0.0,0.0,0.0,0.0,0.0,0.0,0.0,0.0,0.0,0.0,0.0,0.0,0.0,0.0,0.0,0.0,0.0,0.0,0.0,0.0,0.0,0.0,0.0,0.0,0.0,0.0,0.0,0.0,0.0,0.0,0.0,0.0,0.0,0.0,0.0,0.0
0.3435271646328347,0.3617705733354301,0.38074820970827544,0.3994500261110005,0.41636767845393946,0.43035147951459096,0.4409518540578711,0.4482041493654154,0.45348753226907723,0.4581366392893678,0.46332028160272465,0.46966572817982016,0.47663327356822344,0.48399955977685327,0.4906966216390728,0.4956862052380824,0.49837960230176925,0.49835075680312013,0.497185884914063,0.49635342754716527,0.49730182958721375,0.5008780636100078,0.506273254069919,0.5124729191296187,0.5166115307612758,0.5149067778766726,0.5033765249182464,0.47819089790430225,0.4381483921973937,0.38373715125513563,0.31776777059800104,0.24508283328421068,0.1715850364843708,0.10403956915424539,0.048297419679743936,0.008564326039755205,-0.013210858349825036,-0.01750768769148482,-0.007012427070421287,0.014135341236756256,0.04114438131682861,0.06944425464885289,0.09523056967541578,0.11649020234221447,0.13253958820237138,0.14395563764713581,0.15209936764753082,0.15818248962831763,0.16398013172582646,0.17029189635350517,0.17726421463913258,0.18455642320945925,0.19140490291906428,0.19783216509441215,0.20384611915315887,0.20993336884675332,0.21701347877138766,0.22609280182629912,0.23845373403211967,0.2544166376954207,0.27350250607713134,0.29448117944096924,0.31533922665873143,0.3347219806338758,0.3510663759040249,0.3634689528401151,0.3719488801105507,0.37700784010907246,0.380930374309285,0.3855844923271092,0.3924429060679262,0.40209208234007016,0.4134209599807942,0.4252133675524157,0.4345719927194709,0.4380265167796632,0.4322352845695896,0.4141856842126431,0.38353946222865415,0.3410761572890301,0.2893287174669584,0.23229787238302121,0.1745926430257566,0.12171790292664632,0.0,0.0,0.0,0.0,0.0,0.0,0.0,0.0,0.0,0.0,0.0,0.0,0.0,0.0,0.0,0.0,0.0,0.0,0.0,0.0,0.0,0.0,0.0,0.0,0.0,0.0,0.0,0.0,0.0,0.0,0.0,0.0,0.0,0.0,0.0,0.0,0.0,0.0,0.0,0.0,0.0,0.0,0.0,0.0,0.0,0.0,0.0,0.0,0.0,0.0,0.0,0.0,0.0,0.0,0.0,0.0,0.0,0.0,0.0,0.0,0.0,0.0,0.0,0.0,0.0,0.0,0.0,0.0,0.0,0.0,0.0,0.0,0.0,0.0,0.0,0.0,0.0,0.0,0.0,0.0,0.0,0.0,0.0,0.0,0.0,0.0,0.0,0.0,0.0,0.0,0.0,0.0,0.0,0.0,0.0,0.0,0.0,0.0,0.0,0.0,0.0,0.0,0.0,0.0,0.0,0.0,0.0,0.0,0.0,0.0,0.0,0.0,0.0,0.0,0.0,0.0,0.0,0.0,0.0,0.0,0.0,0.0,0.0,0.0,0.0,0.0,0.0,0.0,0.0,0.0,0.0,0.0,0.0,0.0,0.0,0.0,0.0,0.0,0.0,0.0,0.0,0.0,0.0,0.0,0.0,0.0,0.0,0.0,0.0,0.0,0.0,0.0,0.0,0.0,0.0,0.0,0.0,0.0,0.0,0.0,0.0,0.0,0.0,0.0,0.0,0.0,0.0,0.0,0.0,0.0,0.0,0.0,0.0,0.0,0.0,0.0,0.0,0.0,0.0,0.0,0.0,0.0,0.0,0.0,0.0,0.0,0.0,0.0,0.0,0.0,0.0,0.0,0.0,0.0,0.0,0.0,0.0,0.0,0.0,0.0,0.0,0.0,0.0,0.0,0.0,0.0,0.0,0.0,0.0,0.0,0.0,0.0,0.0,0.0,0.0,0.0
0.03197350273710538,0.045502964737393944,0.07042265047204099,0.10329063881439059,0.14012825583595664,0.17655720960176907,0.20877949822222497,0.23324145087736303,0.24699950605099863,0.24789605147546043,0.23438941602130736,0.20684076192058415,0.16666402654959542,0.11666638642386781,0.060931205891097094,0.004183862684217555,-0.04771284907292756,-0.08939868103935636,-0.11644960599598292,-0.12603363969326625,-0.11764317223368102,-0.09231158959144949,-0.053338736733441375,-0.005451555504843548,0.045971170198292055,0.09535481193527777,0.13899973233520996,0.17430415897723245,0.2003889211898169,0.21797598008985036,0.22846637172546136,0.23503753306198027,0.24032432597303469,0.2463858929248153,0.25432140070502846,0.2635779990753935,0.273749513237101,0.28308045073880467,0.2894166151426018,0.2906668213202065,0.2846965053907632,0.27144986853186137,0.25130779578932644,0.22568250085161673,0.1968666149963125,0.16728410562575222,0.14050613503273848,0.11948446001537098,0.10654228989948057,0.10306640867241854,0.10899389645124385,0.12386394004094699,0.14612566667873927,0.17356784151876642,0.2035670580716817,0.23292433939129906,0.2594603641335738,0.2810781001244241,0.29624474796935557,0.3040677074709449,0.30380477757133434,0.2964587457484635,0.283221514569655,0.26580401903032624,0.24627364899905135,0.22643385136312938,0.2088701054827072,0.1956923464462423,0.1885635766790859,0.18847959052715776,0.19529893521481578,0.2086341810806243,0.22737247723945297,0.24990436780763023,0.2742828487384955,0.2982492460915636,0.32002874220995103,0.338104466036532,0.35154125324109636,0.3600861069498333,0.36411811006038647,0.36469962476617057,0.36297462335119723,0.36010055950418374,0.0,0.0,0.0,0.0,0.0,0.0,0.0,0.0,0.0,0.0,0.0,0.0,0.0,0.0,0.0,0.0,0.0,0.0,0.0,0.0,0.0,0.0,0.0,0.0,0.0,0.0,0.0,0.0,0.0,0.0,0.0,0.0,0.0,0.0,0.0,0.0,0.0,0.0,0.0,0.0,0.0,0.0,0.0,0.0,0.0,0.0,0.0,0.0,0.0,0.0,0.0,0.0,0.0,0.0,0.0,0.0,0.0,0.0,0.0,0.0,0.0,0.0,0.0,0.0,0.0,0.0,0.0,0.0,0.0,0.0,0.0,0.0,0.0,0.0,0.0,0.0,0.0,0.0,0.0,0.0,0.0,0.0,0.0,0.0,0.0,0.0,0.0,0.0,0.0,0.0,0.0,0.0,0.0,0.0,0.0,0.0,0.0,0.0,0.0,0.0,0.0,0.0,0.0,0.0,0.0,0.0,0.0,0.0,0.0,0.0,0.0,0.0,0.0,0.0,0.0,0.0,0.0,0.0,0.0,0.0,0.0,0.0,0.0,0.0,0.0,0.0,0.0,0.0,0.0,0.0,0.0,0.0,0.0,0.0,0.0,0.0,0.0,0.0,0.0,0.0,0.0,0.0,0.0,0.0,0.0,0.0,0.0,0.0,0.0,0.0,0.0,0.0,0.0,0.0,0.0,0.0,0.0,0.0,0.0,0.0,0.0,0.0,0.0,0.0,0.0,0.0,0.0,0.0,0.0,0.0,0.0,0.0,0.0,0.0,0.0,0.0,0.0,0.0,0.0,0.0,0.0,0.0,0.0,0.0,0.0,0.0,0.0,0.0,0.0,0.0,0.0,0.0,0.0,0.0,0.0,0.0,0.0,0.0,0.0,0.0,0.0,0.0,0.0,0.0,0.0,0.0,0.0,0.0,0.0,0.0,0.0,0.0,0.0,0.0,0.0,0.0
0.026177030723718117,-0.03248856359671115,-0.07275631791150382,-0.0915576217787999,-0.0890284790196274,-0.06705289125725468,-0.03021805500926168,0.015546896981811163,0.06405553221421081,0.10942691719199776,0.1484583093916095,0.17943757356456783,0.20259549581685704,0.21966868620722152,0.23266334076628892,0.24481042654066387,0.2581841480552462,0.2737950585248866,0.29147977452093743,0.3097321105397366,0.32738193494004286,0.3427975970331913,0.35485140411872224,0.36329086283465334,0.3686387796437708,0.37274810597943364,0.37737500194487433,0.38398618346153823,0.39325339491154976,0.4044696057699086,0.4162667201498718,0.4257213356309155,0.42922811171497766,0.4232159269884462,0.4046719635225938,0.3727215702892241,0.3278888230186523,0.27263785147955355,0.21117682355710066,0.148638467539383,0.09139305764043264,0.04489551860530484,0.013349078825159538,-0.0008622798742448788,0.002188595088082733,0.0212346115201817,0.052740774846267026,0.09200715998228902,0.1339657341878525,0.17367165318223565,0.20800385071819663,0.23513592581080497,0.25494305681654417,0.26879374824994984,0.27878260904858815,0.2878845306729566,0.2987327864149413,0.3130488481986393,0.3311430712057962,0.3513172745108693,0.37122104526950295,0.38733012358389285,0.39586204152167653,0.39349239416164267,0.3775065324496138,0.34789117918996176,0.3060868523440844,0.25527500252783186,0.19990776445450328,0.1444171966425115,0.09422245585419219,0.05324106383623076,0.0237965162426136,0.006323134747363934,-0.001199127083858337,-0.0007539687697819069,0.004434220984332826,0.011243517862796797,0.017299575121945472,0.02069821835984434,0.022207331605019445,0.022942302194885602,0.024481299787813614,0.028276015496527022,0.0,0.0,0.0,0.0,0.0,0.0,0.0,0.0,0.0,0.0,0.0,0.0,0.0,0.0,0.0,0.0,0.0,0.0,0.0,0.0,0.0,0.0,0.0,0.0,0.0,0.0,0.0,0.0,0.0,0.0,0.0,0.0,0.0,0.0,0.0,0.0,0.0,0.0,0.0,0.0,0.0,0.0,0.0,0.0,0.0,0.0,0.0,0.0,0.0,0.0,0.0,0.0,0.0,0.0,0.0,0.0,0.0,0.0,0.0,0.0,0.0,0.0,0.0,0.0,0.0,0.0,0.0,0.0,0.0,0.0,0.0,0.0,0.0,0.0,0.0,0.0,0.0,0.0,0.0,0.0,0.0,0.0,0.0,0.0,0.0,0.0,0.0,0.0,0.0,0.0,0.0,0.0,0.0,0.0,0.0,0.0,0.0,0.0,0.0,0.0,0.0,0.0,0.0,0.0,0.0,0.0,0.0,0.0,0.0,0.0,0.0,0.0,0.0,0.0,0.0,0.0,0.0,0.0,0.0,0.0,0.0,0.0,0.0,0.0,0.0,0.0,0.0,0.0,0.0,0.0,0.0,0.0,0.0,0.0,0.0,0.0,0.0,0.0,0.0,0.0,0.0,0.0,0.0,0.0,0.0,0.0,0.0,0.0,0.0,0.0,0.0,0.0,0.0,0.0,0.0,0.0,0.0,0.0,0.0,0.0,0.0,0.0,0.0,0.0,0.0,0.0,0.0,0.0,0.0,0.0,0.0,0.0,0.0,0.0,0.0,0.0,0.0,0.0,0.0,0.0,0.0,0.0,0.0,0.0,0.0,0.0,0.0,0.0,0.0,0.0,0.0,0.0,0.0,0.0,0.0,0.0,0.0,0.0,0.0,0.0,0.0,0.0,0.0,0.0,0.0,0.0,0.0,0.0,0.0,0.0,0.0,0.0,0.0,0.0,0.0,0.0
0.23513592581080497,0.25494305681654417,0.26879374824994984,0.27878260904858815,0.2878845306729566,0.2987327864149413,0.3130488481986393,0.3311430712057962,0.3513172745108693,0.37122104526950295,0.38733012358389285,0.39586204152167653,0.39349239416164267,0.3775065324496138,0.34789117918996176,0.3060868523440844,0.25527500252783186,0.19990776445450328,0.1444171966425115,0.09422245585419219,0.05324106383623076,0.0237965162426136,0.006323134747363934,-0.001199127083858337,-0.0007539687697819069,0.004434220984332826,0.011243517862796797,0.017299575121945472,0.02069821835984434,0.022207331605019445,0.022942302194885602,0.024481299787813614,0.028276015496527022,0.034462721566466396,0.043828578665505644,0.05568407123702498,0.06880134422702427,0.08184956353492955,0.09325392332525939,0.10333359294956124,0.11278169866261455,0.12294392604792159,0.13542311157333212,0.15112196964205665,0.17122866057535005,0.1958786738490537,0.22432313861633524,0.2550210202708951,0.2855039112136288,0.31404487172809253,0.33895802308641876,0.35922255363653244,0.37461892896845816,0.3853309537851024,0.39286841647307513,0.3985982179292757,0.4037854311398502,0.409339831763493,0.415328977912533,0.42218140987640185,0.42955727776148445,0.43697902969165864,0.44406073455852774,0.45029563777569404,0.45633081642174667,0.46249478815665,0.46909487292569446,0.4762639232769288,0.483521764024535,0.4908534314411768,0.4977623956669461,0.5037465525827276,0.5084671119953299,0.5115508783049847,0.5135232139291975,0.5149938755754488,0.516612313074806,0.518812147227185,0.5213482245935785,0.5241166855080206,0.5266263590278194,0.5283910277338928,0.5291571824590402,0.528798052377479,0.0,0.0,0.0,0.0,0.0,0.0,0.0,0.0,0.0,0.0,0.0,0.0,0.0,0.0,0.0,0.0,0.0,0.0,0.0,0.0,0.0,0.0,0.0,0.0,0.0,0.0,0.0,0.0,0.0,0.0,0.0,0.0,0.0,0.0,0.0,0.0,0.0,0.0,0.0,0.0,0.0,0.0,0.0,0.0,0.0,0.0,0.0,0.0,0.0,0.0,0.0,0.0,0.0,0.0,0.0,0.0,0.0,0.0,0.0,0.0,0.0,0.0,0.0,0.0,0.0,0.0,0.0,0.0,0.0,0.0,0.0,0.0,0.0,0.0,0.0,0.0,0.0,0.0,0.0,0.0,0.0,0.0,0.0,0.0,0.0,0.0,0.0,0.0,0.0,0.0,0.0,0.0,0.0,0.0,0.0,0.0,0.0,0.0,0.0,0.0,0.0,0.0,0.0,0.0,0.0,0.0,0.0,0.0,0.0,0.0,0.0,0.0,0.0,0.0,0.0,0.0,0.0,0.0,0.0,0.0,0.0,0.0,0.0,0.0,0.0,0.0,0.0,0.0,0.0,0.0,0.0,0.0,0.0,0.0,0.0,0.0,0.0,0.0,0.0,0.0,0.0,0.0,0.0,0.0,0.0,0.0,0.0,0.0,0.0,0.0,0.0,0.0,0.0,0.0,0.0,0.0,0.0,0.0,0.0,0.0,0.0,0.0,0.0,0.0,0.0,0.0,0.0,0.0,0.0,0.0,0.0,0.0,0.0,0.0,0.0,0.0,0.0,0.0,0.0,0.0,0.0,0.0,0.0,0.0,0.0,0.0,0.0,0.0,0.0,0.0,0.0,0.0,0.0,0.0,0.0,0.0,0.0,0.0,0.0,0.0,0.0,0.0,0.0,0.0,0.0,0.0,0.0,0.0,0.0,0.0,0.0,0.0,0.0,0.0,0.0,0.0
0.23012686296311122,0.22001260811639078,0.21463024349474272,0.21158410093257776,0.20867572645539073,0.2044208301303843,0.1978720534879517,0.1902911408180277,0.18324748783193673,0.17874276075527185,0.17871479729765744,0.18421286942455065,0.19626826106932296,0.2143366634457371,0.23688362441932437,0.26170268984545497,0.28606388165318136,0.3081239796251433,0.32597671616438306,0.33834318573783334,0.34469058239325245,0.345017795528214,0.3404922595946552,0.3321158337793315,0.3210297453305491,0.30847644407125935,0.29563803424215546,0.2843324854047377,0.27588318311924226,0.27150833217878667,0.2722623057492663,0.27876756311766065,0.2916432826232922,0.3102767086881767,0.3332135786184246,0.35834000666579535,0.3828782710560955,0.40508785715412376,0.4231780475783589,0.4362304886105355,0.4444177075823245,0.4483890991626153,0.4508333934092017,0.4539043350497148,0.45926052714973453,0.46753983597489945,0.47787233006237634,0.48856027442297967,0.4964995761393023,0.4982050590751,0.49066196436747445,0.47231297124329186,0.4430051681374019,0.40423643047551433,0.35891180308032605,0.3107853727284433,0.2637855193959951,0.22117830520458642,0.18483887175312635,0.15510485752775746,0.13090878108941212,0.11012629485042888,0.09055844461798859,0.07012362303764266,0.04756547712917752,0.02275236270750924,-0.003437252352105602,-0.029040949673252454,-0.05213071303185158,-0.07115830325072718,-0.08540405567439366,-0.09530024018302667,-0.10192463678277604,-0.10734587426561114,-0.11372253302311985,-0.12256881869116322,-0.13445973688518906,-0.1475650912648998,-0.15889902157566319,-0.16440326465083432,-0.1597335817079328,-0.14177598723305154,-0.10774094796473516,-0.057509998923640344,0.0,0.0,0.0,0.0,0.0,0.0,0.0,0.0,0.0,0.0,0.0,0.0,0.0,0.0,0.0,0.0,0.0,0.0,0.0,0.0,0.0,0.0,0.0,0.0,0.0,0.0,0.0,0.0,0.0,0.0,0.0,0.0,0.0,0.0,0.0,0.0,0.0,0.0,0.0,0.0,0.0,0.0,0.0,0.0,0.0,0.0,0.0,0.0,0.0,0.0,0.0,0.0,0.0,0.0,0.0,0.0,0.0,0.0,0.0,0.0,0.0,0.0,0.0,0.0,0.0,0.0,0.0,0.0,0.0,0.0,0.0,0.0,0.0,0.0,0.0,0.0,0.0,0.0,0.0,0.0,0.0,0.0,0.0,0.0,0.0,0.0,0.0,0.0,0.0,0.0,0.0,0.0,0.0,0.0,0.0,0.0,0.0,0.0,0.0,0.0,0.0,0.0,0.0,0.0,0.0,0.0,0.0,0.0,0.0,0.0,0.0,0.0,0.0,0.0,0.0,0.0,0.0,0.0,0.0,0.0,0.0,0.0,0.0,0.0,0.0,0.0,0.0,0.0,0.0,0.0,0.0,0.0,0.0,0.0,0.0,0.0,0.0,0.0,0.0,0.0,0.0,0.0,0.0,0.0,0.0,0.0,0.0,0.0,0.0,0.0,0.0,0.0,0.0,0.0,0.0,0.0,0.0,0.0,0.0,0.0,0.0,0.0,0.0,0.0,0.0,0.0,0.0,0.0,0.0,0.0,0.0,0.0,0.0,0.0,0.0,0.0,0.0,0.0,0.0,0.0,0.0,0.0,0.0,0.0,0.0,0.0,0.0,0.0,0.0,0.0,0.0,0.0,0.0,0.0,0.0,0.0,0.0,0.0,0.0,0.0,0.0,0.0,0.0,0.0,0.0,0.0,0.0,0.0,0.0,0.0,0.0,0.0,0.0,0.0,0.0,0.0
0.15510485752775746,0.13090878108941212,0.11012629485042888,0.09055844461798859,0.07012362303764266,0.04756547712917752,0.02275236270750924,-0.003437252352105602,-0.029040949673252454,-0.05213071303185158,-0.07115830325072718,-0.08540405567439366,-0.09530024018302667,-0.10192463678277604,-0.10734587426561114,-0.11372253302311985,-0.12256881869116322,-0.13445973688518906,-0.1475650912648998,-0.15889902157566319,-0.16440326465083432,-0.1597335817079328,-0.14177598723305154,-0.10774094796473516,-0.057509998923640344,0.006518453163522124,0.07949421045543693,0.15390075353528565,0.2225028387587804,0.2772985559996673,0.31115018744917605,0.3187220026188067,0.2964444818314622,0.24550193601752784,0.169560797342276,0.07519755534223435,-0.028809456977287946,-0.1334154326932329,-0.22779227148093786,-0.3032758939400115,-0.3537336729207341,-0.37634091657338253,-0.372784979629497,-0.34583469234428466,-0.3013578624163226,-0.24634573107430216,-0.1877731800134275,-0.13259124236028894,-0.08433122433504098,-0.045485783172799055,-0.01708547096811554,0.0007945565465275795,0.007681685435096928,0.00503706968647034,-0.005893862977718807,-0.023385330090572674,-0.045062152054007716,-0.06835423745852846,-0.08893547834964512,-0.1023215410544359,-0.10414667135726728,-0.090918860654543,-0.06097449688687094,-0.014299003946903553,0.04692186974018616,0.11861476770903645,0.1953946626853415,0.27123041764143785,0.3408034975357202,0.4001380139649712,0.4471376413938198,0.4817081860252259,0.5053985167442389,0.5210227466810033,0.5319422469385207,0.5412549728000471,0.551200327117261,0.5628108633796084,0.5762279116778934,0.5908173321228953,0.6057906686733423,0.620692468209296,0.6356184887112424,0.6514362548804,0.0,0.0,0.0,0.0,0.0,0.0,0.0,0.0,0.0,0.0,0.0,0.0,0.0,0.0,0.0,0.0,0.0,0.0,0.0,0.0,0.0,0.0,0.0,0.0,0.0,0.0,0.0,0.0,0.0,0.0,0.0,0.0,0.0,0.0,0.0,0.0,0.0,0.0,0.0,0.0,0.0,0.0,0.0,0.0,0.0,0.0,0.0,0.0,0.0,0.0,0.0,0.0,0.0,0.0,0.0,0.0,0.0,0.0,0.0,0.0,0.0,0.0,0.0,0.0,0.0,0.0,0.0,0.0,0.0,0.0,0.0,0.0,0.0,0.0,0.0,0.0,0.0,0.0,0.0,0.0,0.0,0.0,0.0,0.0,0.0,0.0,0.0,0.0,0.0,0.0,0.0,0.0,0.0,0.0,0.0,0.0,0.0,0.0,0.0,0.0,0.0,0.0,0.0,0.0,0.0,0.0,0.0,0.0,0.0,0.0,0.0,0.0,0.0,0.0,0.0,0.0,0.0,0.0,0.0,0.0,0.0,0.0,0.0,0.0,0.0,0.0,0.0,0.0,0.0,0.0,0.0,0.0,0.0,0.0,0.0,0.0,0.0,0.0,0.0,0.0,0.0,0.0,0.0,0.0,0.0,0.0,0.0,0.0,0.0,0.0,0.0,0.0,0.0,0.0,0.0,0.0,0.0,0.0,0.0,0.0,0.0,0.0,0.0,0.0,0.0,0.0,0.0,0.0,0.0,0.0,0.0,0.0,0.0,0.0,0.0,0.0,0.0,0.0,0.0,0.0,0.0,0.0,0.0,0.0,0.0,0.0,0.0,0.0,0.0,0.0,0.0,0.0,0.0,0.0,0.0,0.0,0.0,0.0,0.0,0.0,0.0,0.0,0.0,0.0,0.0,0.0,0.0,0.0,0.0,0.0,0.0,0.0,0.0,0.0,0.0,0.0
0.0007945565465275795,0.007681685435096928,0.00503706968647034,-0.005893862977718807,-0.023385330090572674,-0.045062152054007716,-0.06835423745852846,-0.08893547834964512,-0.1023215410544359,-0.10414667135726728,-0.090918860654543,-0.06097449688687094,-0.014299003946903553,0.04692186974018616,0.11861476770903645,0.1953946626853415,0.27123041764143785,0.3408034975357202,0.4001380139649712,0.4471376413938198,0.4817081860252259,0.5053985167442389,0.5210227466810033,0.5319422469385207,0.5412549728000471,0.551200327117261,0.5628108633796084,0.5762279116778934,0.5908173321228953,0.6057906686733423,0.620692468209296,0.6356184887112424,0.6514362548804,0.6689023714253534,0.6884620759699366,0.709901381119923,0.7321854158572741,0.7537181538512079,0.7727586794484662,0.7880050509863116,0.7991102940305499,0.8069099382875602,0.8131704405397975,0.8205048644447644,0.8312335038016163,0.8464010848879149,0.8649560637460851,0.8838283345587876,0.8983803954137932,0.9032809650529104,0.89369187574528,0.8662185501497149,0.8203490964713079,0.7582713871170552,0.684634906702261,0.6056602048010292,0.5277149976414427,0.4568027412737647,0.3971593217851443,0.35083042521745234,0.3176285338567784,0.29527530555645026,0.2808693773266853,0.2712239037675518,0.2636080741342587,0.25609777604416933,0.24704085166442874,0.2365577729637271,0.22458432603852113,0.21085300188695164,0.19456701823156022,0.17349766287770899,0.14701893695425278,0.11404782044646038,0.07446260939829524,0.029606835686083136,-0.01825562938763192,-0.06379489609820836,-0.10169661138296716,-0.12684971466835218,-0.13535334685939396,-0.12594805546417334,-0.09842848070952641,-0.05581104347187805,0.0,0.0,0.0,0.0,0.0,0.0,0.0,0.0,0.0,0.0,0.0,0.0,0.0,0.0,0.0,0.0,0.0,0.0,0.0,0.0,0.0,0.0,0.0,0.0,0.0,0.0,0.0,0.0,0.0,0.0,0.0,0.0,0.0,0.0,0.0,0.0,0.0,0.0,0.0,0.0,0.0,0.0,0.0,0.0,0.0,0.0,0.0,0.0,0.0,0.0,0.0,0.0,0.0,0.0,0.0,0.0,0.0,0.0,0.0,0.0,0.0,0.0,0.0,0.0,0.0,0.0,0.0,0.0,0.0,0.0,0.0,0.0,0.0,0.0,0.0,0.0,0.0,0.0,0.0,0.0,0.0,0.0,0.0,0.0,0.0,0.0,0.0,0.0,0.0,0.0,0.0,0.0,0.0,0.0,0.0,0.0,0.0,0.0,0.0,0.0,0.0,0.0,0.0,0.0,0.0,0.0,0.0,0.0,0.0,0.0,0.0,0.0,0.0,0.0,0.0,0.0,0.0,0.0,0.0,0.0,0.0,0.0,0.0,0.0,0.0,0.0,0.0,0.0,0.0,0.0,0.0,0.0,0.0,0.0,0.0,0.0,0.0,0.0,0.0,0.0,0.0,0.0,0.0,0.0,0.0,0.0,0.0,0.0,0.0,0.0,0.0,0.0,0.0,0.0,0.0,0.0,0.0,0.0,0.0,0.0,0.0,0.0,0.0,0.0,0.0,0.0,0.0,0.0,0.0,0.0,0.0,0.0,0.0,0.0,0.0,0.0,0.0,0.0,0.0,0.0,0.0,0.0,0.0,0.0,0.0,0.0,0.0,0.0,0.0,0.0,0.0,0.0,0.0,0.0,0.0,0.0,0.0,0.0,0.0,0.0,0.0,0.0,0.0,0.0,0.0,0.0,0.0,0.0,0.0,0.0,0.0,0.0,0.0,0.0,0.0,0.0
0.35083042521745234,0.3176285338567784,0.29527530555645026,0.2808693773266853,0.2712239037675518,0.2636080741342587,0.25609777604416933,0.24704085166442874,0.2365577729637271,0.22458432603852113,0.21085300188695164,0.19456701823156022,0.17349766287770899,0.14701893695425278,0.11404782044646038,0.07446260939829524,0.029606835686083136,-0.01825562938763192,-0.06379489609820836,-0.10169661138296716,-0.12684971466835218,-0.13535334685939396,-0.12594805546417334,-0.09842848070952641,-0.05581104347187805,-0.0030304576773074452,0.05400363638576991,0.10872001152896783,0.15730294429292355,0.1966073867454551,0.22523097850220192,0.24336061963093378,0.25146539271437685,0.25273096374271076,0.2494457175084773,0.24368410879527952,0.2371771631795951,0.23047741119557955,0.2258120108465047,0.2240489687595177,0.225715009097033,0.23099370672825642,0.23892287748628505,0.2500285170886653,0.2633653216810848,0.2776973904518538,0.29180747796607376,0.3042066920773131,0.31552029852795965,0.32637135704443304,0.3381083566456087,0.35262124920389104,0.37148935619919754,0.3970362269004449,0.4302563396701044,0.47082396101591995,0.5168346748248744,0.5642039679212547,0.6090131017191589,0.6463446460852472,0.6715589866341665,0.6810481004458576,0.6720657464540422,0.6455189124666968,0.6039531207772869,0.5517545845485434,0.4944677895237896,0.43722447294470024,0.3860949637229994,0.34571792679685037,0.3192112097555066,0.30788747860172155,0.3105774753988711,0.32581473872323646,0.35091894104097265,0.3826585724545404,0.4175380054003065,0.45134721135805567,0.48142397294947886,0.5052266252037471,0.5208697073946698,0.5271885321988914,0.5230936104671904,0.5097831297299972,0.0,0.0,0.0,0.0,0.0,0.0,0.0,0.0,0.0,0.0,0.0,0.0,0.0,0.0,0.0,0.0,0.0,0.0,0.0,0.0,0.0,0.0,0.0,0.0,0.0,0.0,0.0,0.0,0.0,0.0,0.0,0.0,0.0,0.0,0.0,0.0,0.0,0.0,0.0,0.0,0.0,0.0,0.0,0.0,0.0,0.0,0.0,0.0,0.0,0.0,0.0,0.0,0.0,0.0,0.0,0.0,0.0,0.0,0.0,0.0,0.0,0.0,0.0,0.0,0.0,0.0,0.0,0.0,0.0,0.0,0.0,0.0,0.0,0.0,0.0,0.0,0.0,0.0,0.0,0.0,0.0,0.0,0.0,0.0,0.0,0.0,0.0,0.0,0.0,0.0,0.0,0.0,0.0,0.0,0.0,0.0,0.0,0.0,0.0,0.0,0.0,0.0,0.0,0.0,0.0,0.0,0.0,0.0,0.0,0.0,0.0,0.0,0.0,0.0,0.0,0.0,0.0,0.0,0.0,0.0,0.0,0.0,0.0,0.0,0.0,0.0,0.0,0.0,0.0,0.0,0.0,0.0,0.0,0.0,0.0,0.0,0.0,0.0,0.0,0.0,0.0,0.0,0.0,0.0,0.0,0.0,0.0,0.0,0.0,0.0,0.0,0.0,0.0,0.0,0.0,0.0,0.0,0.0,0.0,0.0,0.0,0.0,0.0,0.0,0.0,0.0,0.0,0.0,0.0,0.0,0.0,0.0,0.0,0.0,0.0,0.0,0.0,0.0,0.0,0.0,0.0,0.0,0.0,0.0,0.0,0.0,0.0,0.0,0.0,0.0,0.0,0.0,0.0,0.0,0.0,0.0,0.0,0.0,0.0,0.0,0.0,0.0,0.0,0.0,0.0,0.0,0.0,0.0,0.0,0.0,0.0,0.0,0.0,0.0,0.0,0.0
0.6715589866341665,0.6810481004458576,0.6720657464540422,0.6455189124666968,0.6039531207772869,0.5517545845485434,0.4944677895237896,0.43722447294470024,0.3860949637229994,0.34571792679685037,0.3192112097555066,0.30788747860172155,0.3105774753988711,0.32581473872323646,0.35091894104097265,0.3826585724545404,0.4175380054003065,0.45134721135805567,0.48142397294947886,0.5052266252037471,0.5208697073946698,0.5271885321988914,0.5230936104671904,0.5097831297299972,0.48882437653082866,0.4625706544824715,0.4338916651440412,0.40500611235314554,0.37945659599092346,0.3595643604057619,0.34661336040446106,0.340594798089191,0.3393380704623928,0.34147784345988724,0.34470389732572226,0.34699224148631547,0.347135716944625,0.3443852215333332,0.3407893027601269,0.33896935638414977,0.3421960763632628,0.3536766358000589,0.37523602884871116,0.40849728809758634,0.4527615567507139,0.5055395300330937,0.5629120437632924,0.6193934601777623,0.671332407618679,0.7151884764526522,0.7489002516894198,0.772147451726526,0.7851995221210403,0.7918029723212698,0.795202870995029,0.7983808448077979,0.8033796774510061,0.8099957561507283,0.8184610856958064,0.8270240302251411,0.8332430624622711,0.8346119031754863,0.8284571180641642,0.814615683139156,0.7936108636546567,0.7671472733099295,0.7377734181395259,0.7075596746918794,0.6803663411270325,0.6589366490244218,0.6453659521014876,0.6409349331035655,0.6450280588030579,0.6583699768051866,0.680022838451382,0.7082927348306357,0.7407248932360617,0.7731344737812029,0.8028979261073558,0.8263341338735489,0.839882846196962,0.8405148533685579,0.825182374458906,0.7943135304487704,0.0,0.0,0.0,0.0,0.0,0.0,0.0,0.0,0.0,0.0,0.0,0.0,0.0,0.0,0.0,0.0,0.0,0.0,0.0,0.0,0.0,0.0,0.0,0.0,0.0,0.0,0.0,0.0,0.0,0.0,0.0,0.0,0.0,0.0,0.0,0.0,0.0,0.0,0.0,0.0,0.0,0.0,0.0,0.0,0.0,0.0,0.0,0.0,0.0,0.0,0.0,0.0,0.0,0.0,0.0,0.0,0.0,0.0,0.0,0.0,0.0,0.0,0.0,0.0,0.0,0.0,0.0,0.0,0.0,0.0,0.0,0.0,0.0,0.0,0.0,0.0,0.0,0.0,0.0,0.0,0.0,0.0,0.0,0.0,0.0,0.0,0.0,0.0,0.0,0.0,0.0,0.0,0.0,0.0,0.0,0.0,0.0,0.0,0.0,0.0,0.0,0.0,0.0,0.0,0.0,0.0,0.0,0.0,0.0,0.0,0.0,0.0,0.0,0.0,0.0,0.0,0.0,0.0,0.0,0.0,0.0,0.0,0.0,0.0,0.0,0.0,0.0,0.0,0.0,0.0,0.0,0.0,0.0,0.0,0.0,0.0,0.0,0.0,0.0,0.0,0.0,0.0,0.0,0.0,0.0,0.0,0.0,0.0,0.0,0.0,0.0,0.0,0.0,0.0,0.0,0.0,0.0,0.0,0.0,0.0,0.0,0.0,0.0,0.0,0.0,0.0,0.0,0.0,0.0,0.0,0.0,0.0,0.0,0.0,0.0,0.0,0.0,0.0,0.0,0.0,0.0,0.0,0.0,0.0,0.0,0.0,0.0,0.0,0.0,0.0,0.0,0.0,0.0,0.0,0.0,0.0,0.0,0.0,0.0,0.0,0.0,0.0,0.0,0.0,0.0,0.0,0.0,0.0,0.0,0.0,0.0,0.0,0.0,0.0,0.0,0.0
0.772147451726526,0.7851995221210403,0.7918029723212698,0.795202870995029,0.7983808448077979,0.8033796774510061,0.8099957561507283,0.8184610856958064,0.8270240302251411,0.8332430624622711,0.8346119031754863,0.8284571180641642,0.814615683139156,0.7936108636546567,0.7671472733099295,0.7377734181395259,0.7075596746918794,0.6803663411270325,0.6589366490244218,0.6453659521014876,0.6409349331035655,0.6450280588030579,0.6583699768051866,0.680022838451382,0.7082927348306357,0.7407248932360617,0.7731344737812029,0.8028979261073558,0.8263341338735489,0.839882846196962,0.8405148533685579,0.825182374458906,0.7943135304487704,0.7493665639051713,0.6935981937086346,0.631758616523716,0.568653134892575,0.5111720035022432,0.46503711132043085,0.4347541560442456,0.42300237967887405,0.4295214722364734,0.45350848262149396,0.49168220520003386,0.5394455874223253,0.5915217676933092,0.6416726612648159,0.6863351609685793,0.7221305466846026,0.7469666102966996,0.7600411557077444,0.7605587406042282,0.7511522725914851,0.7339899381477532,0.7116467534178734,0.6868913516072291,0.6616215488420653,0.6396000704080598,0.6231845373635493,0.6141830315704931,0.6137415475067138,0.6216194678329581,0.6382729288360938,0.6622731998457659,0.6913345514373394,0.7226468751466916,0.7528334196183596,0.7801352990453871,0.8027154202356923,0.8197391441997645,0.8315522027866693,0.839244266929516,0.8455339606807215,0.852518070114775,0.861687575308167,0.8735032731632328,0.8866290792774191,0.9000728211427492,0.9112029469579089,0.9171448976113545,0.9154543435397964,0.9038419713215401,0.8832780945460671,0.8549462470068915,0.0,0.0,0.0,0.0,0.0,0.0,0.0,0.0,0.0,0.0,0.0,0.0,0.0,0.0,0.0,0.0,0.0,0.0,0.0,0.0,0.0,0.0,0.0,0.0,0.0,0.0,0.0,0.0,0.0,0.0,0.0,0.0,0.0,0.0,0.0,0.0,0.0,0.0,0.0,0.0,0.0,0.0,0.0,0.0,0.0,0.0,0.0,0.0,0.0,0.0,0.0,0.0,0.0,0.0,0.0,0.0,0.0,0.0,0.0,0.0,0.0,0.0,0.0,0.0,0.0,0.0,0.0,0.0,0.0,0.0,0.0,0.0,0.0,0.0,0.0,0.0,0.0,0.0,0.0,0.0,0.0,0.0,0.0,0.0,0.0,0.0,0.0,0.0,0.0,0.0,0.0,0.0,0.0,0.0,0.0,0.0,0.0,0.0,0.0,0.0,0.0,0.0,0.0,0.0,0.0,0.0,0.0,0.0,0.0,0.0,0.0,0.0,0.0,0.0,0.0,0.0,0.0,0.0,0.0,0.0,0.0,0.0,0.0,0.0,0.0,0.0,0.0,0.0,0.0,0.0,0.0,0.0,0.0,0.0,0.0,0.0,0.0,0.0,0.0,0.0,0.0,0.0,0.0,0.0,0.0,0.0,0.0,0.0,0.0,0.0,0.0,0.0,0.0,0.0,0.0,0.0,0.0,0.0,0.0,0.0,0.0,0.0,0.0,0.0,0.0,0.0,0.0,0.0,0.0,0.0,0.0,0.0,0.0,0.0,0.0,0.0,0.0,0.0,0.0,0.0,0.0,0.0,0.0,0.0,0.0,0.0,0.0,0.0,0.0,0.0,0.0,0.0,0.0,0.0,0.0,0.0,0.0,0.0,0.0,0.0,0.0,0.0,0.0,0.0,0.0,0.0,0.0,0.0,0.0,0.0,0.0,0.0,0.0,0.0,0.0,0.0
0.7605587406042282,0.7511522725914851,0.7339899381477532,0.7116467534178734,0.6868913516072291,0.6616215488420653,0.6396000704080598,0.6231845373635493,0.6141830315704931,0.6137415475067138,0.6216194678329581,0.6382729288360938,0.6622731998457659,0.6913345514373394,0.7226468751466916,0.7528334196183596,0.7801352990453871,0.8027154202356923,0.8197391441997645,0.8315522027866693,0.839244266929516,0.8455339606807215,0.852518070114775,0.861687575308167,0.8735032731632328,0.8866290792774191,0.9000728211427492,0.9112029469579089,0.9171448976113545,0.9154543435397964,0.9038419713215401,0.8832780945460671,0.8549462470068915,0.8210165032853175,0.7842849579304967,0.7469375037046994,0.7128624534146419,0.6846439579429164,0.664276149374724,0.6531155723211969,0.6510486149742539,0.6590126143849382,0.6764600227661424,0.701899658798376,0.7327299713995147,0.7642524746228203,0.7928727971464237,0.8135662010537779,0.8214104427952688,0.8123443704778325,0.7828428187140537,0.733983531608952,0.6682090847236849,0.5902250148557475,0.5063677602622224,0.4227749730629712,0.3468908493563745,0.28351147838153895,0.23487403097324863,0.20039115004661232,0.1764201338704693,0.15906557623100134,0.14327494137918498,0.12488464121846087,0.10174855944726771,0.07361294769732706,0.04454859095132802,0.019531771603736498,0.004122343951794928,0.0031059688479231277,0.018378602475209737,0.05126485514983388,0.09917466344626416,0.15721363462398796,0.2192710176366514,0.27850751827770986,0.33129760145184967,0.37497498830753945,0.4091408890905474,0.4354360664253796,0.45614599060057787,0.4757017092397466,0.49685159282217606,0.5209847170747827,0.0,0.0,0.0,0.0,0.0,0.0,0.0,0.0,0.0,0.0,0.0,0.0,0.0,0.0,0.0,0.0,0.0,0.0,0.0,0.0,0.0,0.0,0.0,0.0,0.0,0.0,0.0,0.0,0.0,0.0,0.0,0.0,0.0,0.0,0.0,0.0,0.0,0.0,0.0,0.0,0.0,0.0,0.0,0.0,0.0,0.0,0.0,0.0,0.0,0.0,0.0,0.0,0.0,0.0,0.0,0.0,0.0,0.0,0.0,0.0,0.0,0.0,0.0,0.0,0.0,0.0,0.0,0.0,0.0,0.0,0.0,0.0,0.0,0.0,0.0,0.0,0.0,0.0,0.0,0.0,0.0,0.0,0.0,0.0,0.0,0.0,0.0,0.0,0.0,0.0,0.0,0.0,0.0,0.0,0.0,0.0,0.0,0.0,0.0,0.0,0.0,0.0,0.0,0.0,0.0,0.0,0.0,0.0,0.0,0.0,0.0,0.0,0.0,0.0,0.0,0.0,0.0,0.0,0.0,0.0,0.0,0.0,0.0,0.0,0.0,0.0,0.0,0.0,0.0,0.0,0.0,0.0,0.0,0.0,0.0,0.0,0.0,0.0,0.0,0.0,0.0,0.0,0.0,0.0,0.0,0.0,0.0,0.0,0.0,0.0,0.0,0.0,0.0,0.0,0.0,0.0,0.0,0.0,0.0,0.0,0.0,0.0,0.0,0.0,0.0,0.0,0.0,0.0,0.0,0.0,0.0,0.0,0.0,0.0,0.0,0.0,0.0,0.0,0.0,0.0,0.0,0.0,0.0,0.0,0.0,0.0,0.0,0.0,0.0,0.0,0.0,0.0,0.0,0.0,0.0,0.0,0.0,0.0,0.0,0.0,0.0,0.0,0.0,0.0,0.0,0.0,0.0,0.0,0.0,0.0,0.0,0.0,0.0,0.0,0.0,0.0
0.3468908493563745,0.28351147838153895,0.23487403097324863,0.20039115004661232,0.1764201338704693,0.15906557623100134,0.14327494137918498,0.12488464121846087,0.10174855944726771,0.07361294769732706,0.04454859095132802,0.019531771603736498,0.004122343951794928,0.0031059688479231277,0.018378602475209737,0.05126485514983388,0.09917466344626416,0.15721363462398796,0.2192710176366514,0.27850751827770986,0.33129760145184967,0.37497498830753945,0.4091408890905474,0.4354360664253796,0.45614599060057787,0.4757017092397466,0.49685159282217606,0.5209847170747827,0.5479333890336389,0.5754195496798943,0.6022755028613437,0.626286288227027,0.6458382494053195,0.660430711641898,0.6699585621271958,0.6773253096272193,0.6849763193257787,0.6950386857975611,0.708580036898796,0.72422865159588,0.7408269197641908,0.7547489098822997,0.7615139086342085,0.7567293621556941,0.7362484028448296,0.6997566635099102,0.6482137155198424,0.5848627890192962,0.5148458446110891,0.4438131885060535,0.3790846215750797,0.3265186511024125,0.29040145964263586,0.27296232706648405,0.27377366368550143,0.29137882756180544,0.3223918103535551,0.36241115231890825,0.4065639226557592,0.449509842196292,0.48732597811370537,0.5165523316273869,0.5346740566613991,0.5401655182450343,0.5319796252486155,0.5110719939582128,0.4792287797812338,0.4392594534018748,0.3947985592464202,0.349764034465734,0.3088603919870298,0.27628964560151037,0.2556262542658435,0.2494316002478061,0.2589208598864083,0.2839249274873712,0.32221847304886747,0.3700270361219197,0.4225242588949274,0.4741347686218481,0.5205452561431598,0.5577542565855876,0.5831171296318628,0.5956169175420486,0.0,0.0,0.0,0.0,0.0,0.0,0.0,0.0,0.0,0.0,0.0,0.0,0.0,0.0,0.0,0.0,0.0,0.0,0.0,0.0,0.0,0.0,0.0,0.0,0.0,0.0,0.0,0.0,0.0,0.0,0.0,0.0,0.0,0.0,0.0,0.0,0.0,0.0,0.0,0.0,0.0,0.0,0.0,0.0,0.0,0.0,0.0,0.0,0.0,0.0,0.0,0.0,0.0,0.0,0.0,0.0,0.0,0.0,0.0,0.0,0.0,0.0,0.0,0.0,0.0,0.0,0.0,0.0,0.0,0.0,0.0,0.0,0.0,0.0,0.0,0.0,0.0,0.0,0.0,0.0,0.0,0.0,0.0,0.0,0.0,0.0,0.0,0.0,0.0,0.0,0.0,0.0,0.0,0.0,0.0,0.0,0.0,0.0,0.0,0.0,0.0,0.0,0.0,0.0,0.0,0.0,0.0,0.0,0.0,0.0,0.0,0.0,0.0,0.0,0.0,0.0,0.0,0.0,0.0,0.0,0.0,0.0,0.0,0.0,0.0,0.0,0.0,0.0,0.0,0.0,0.0,0.0,0.0,0.0,0.0,0.0,0.0,0.0,0.0,0.0,0.0,0.0,0.0,0.0,0.0,0.0,0.0,0.0,0.0,0.0,0.0,0.0,0.0,0.0,0.0,0.0,0.0,0.0,0.0,0.0,0.0,0.0,0.0,0.0,0.0,0.0,0.0,0.0,0.0,0.0,0.0,0.0,0.0,0.0,0.0,0.0,0.0,0.0,0.0,0.0,0.0,0.0,0.0,0.0,0.0,0.0,0.0,0.0,0.0,0.0,0.0,0.0,0.0,0.0,0.0,0.0,0.0,0.0,0.0,0.0,0.0,0.0,0.0,0.0,0.0,0.0,0.0,0.0,0.0,0.0,0.0,0.0,0.0,0.0,0.0,0.0
0.29040145964263586,0.27296232706648405,0.27377366368550143,0.29137882756180544,0.3223918103535551,0.36241115231890825,0.4065639226557592,0.449509842196292,0.48732597811370537,0.5165523316273869,0.5346740566613991,0.5401655182450343,0.5319796252486155,0.5110719939582128,0.4792287797812338,0.4392594534018748,0.3947985592464202,0.349764034465734,0.3088603919870298,0.27628964560151037,0.2556262542658435,0.2494316002478061,0.2589208598864083,0.2839249274873712,0.32221847304886747,0.3700270361219197,0.4225242588949274,0.4741347686218481,0.5205452561431598,0.5577542565855876,0.5831171296318628,0.5956169175420486,0.5951333412723577,0.5845784057820024,0.5668726336294019,0.545229349984001,0.5226541296475836,0.5010878843085603,0.4828235361074859,0.4684290421482835,0.4576392531060828,0.4496913417531185,0.4434669677916993,0.43863826848312165,0.43429328603775935,0.42965907244055274,0.4242484260392701,0.4179741268367586,0.41144748396069286,0.4052983449134821,0.4005796293215949,0.3988055103254218,0.40202234832753597,0.4120160005121692,0.4298570458068204,0.4554534605560609,0.48716050333818717,0.5215974095542334,0.5540001415857775,0.5781018334095559,0.5872540836175498,0.5755154963509524,0.5385296393487404,0.4753154837370129,0.3875453953652653,0.2801482779919018,0.16099210540093464,0.03991983361938286,-0.07168520304198649,-0.16322306569449035,-0.2258403510046405,-0.25353128554908316,-0.24404663415543826,-0.19868448164734404,-0.12282626038735484,-0.025072244924153782,0.08377466677259714,0.19162131096634535,0.28762738928490755,0.36206754741172437,0.4078228108381594,0.4210806190942774,0.40107204832413385,0.3517993638035625,0.0,0.0,0.0,0.0,0.0,0.0,0.0,0.0,0.0,0.0,0.0,0.0,0.0,0.0,0.0,0.0,0.0,0.0,0.0,0.0,0.0,0.0,0.0,0.0,0.0,0.0,0.0,0.0,0.0,0.0,0.0,0.0,0.0,0.0,0.0,0.0,0.0,0.0,0.0,0.0,0.0,0.0,0.0,0.0,0.0,0.0,0.0,0.0,0.0,0.0,0.0,0.0,0.0,0.0,0.0,0.0,0.0,0.0,0.0,0.0,0.0,0.0,0.0,0.0,0.0,0.0,0.0,0.0,0.0,0.0,0.0,0.0,0.0,0.0,0.0,0.0,0.0,0.0,0.0,0.0,0.0,0.0,0.0,0.0,0.0,0.0,0.0,0.0,0.0,0.0,0.0,0.0,0.0,0.0,0.0,0.0,0.0,0.0,0.0,0.0,0.0,0.0,0.0,0.0,0.0,0.0,0.0,0.0,0.0,0.0,0.0,0.0,0.0,0.0,0.0,0.0,0.0,0.0,0.0,0.0,0.0,0.0,0.0,0.0,0.0,0.0,0.0,0.0,0.0,0.0,0.0,0.0,0.0,0.0,0.0,0.0,0.0,0.0,0.0,0.0,0.0,0.0,0.0,0.0,0.0,0.0,0.0,0.0,0.0,0.0,0.0,0.0,0.0,0.0,0.0,0.0,0.0,0.0,0.0,0.0,0.0,0.0,0.0,0.0,0.0,0.0,0.0,0.0,0.0,0.0,0.0,0.0,0.0,0.0,0.0,0.0,0.0,0.0,0.0,0.0,0.0,0.0,0.0,0.0,0.0,0.0,0.0,0.0,0.0,0.0,0.0,0.0,0.0,0.0,0.0,0.0,0.0,0.0,0.0,0.0,0.0,0.0,0.0,0.0,0.0,0.0,0.0,0.0,0.0,0.0,0.0,0.0,0.0,0.0,0.0,0.0
0.03991983361938286,-0.07168520304198649,-0.16322306569449035,-0.2258403510046405,-0.25353128554908316,-0.24404663415543826,-0.19868448164734404,-0.12282626038735484,-0.025072244924153782,0.08377466677259714,0.19162131096634535,0.28762738928490755,0.36206754741172437,0.4078228108381594,0.4210806190942774,0.40107204832413385,0.3517993638035625,0.27940072498909474,0.19197041148774183,0.09848198780745869,0.007304438719496848,-0.07384396449723808,-0.1402071879893526,-0.1899562766163583,-0.22411664347936006,-0.24604372050048245,-0.2601600612518074,-0.27152650517053495,-0.2843351087023007,-0.30093123981271425,-0.3213771448312681,-0.3431537265204937,-0.362551892059823,-0.37532680078516106,-0.37774583614606844,-0.3675932449599263,-0.3442779057421928,-0.30969915687946326,-0.2674989401287643,-0.22223017767544545,-0.1788739853060561,-0.1403263767857728,-0.1086544870362193,-0.08437822420309199,-0.06671451920482248,-0.054970865570630856,-0.04628117214205433,-0.03891964171208063,-0.031749995005293755,-0.024280082286256836,-0.016998983821853986,-0.009534470763626247,-0.0016819611416186285,0.0071865574986004445,0.018154354632308807,0.03248144027712672,0.0515010218769845,0.0762830811632492,0.10703789421354346,0.1426867906709637,0.18012941233650925,0.2159523681522694,0.2455404320258007,0.2640602449989419,0.2672192267096186,0.25110737456644,0.21584572562320078,0.1632624788141568,0.0976456817796399,0.02521694849105228,-0.047664473480643496,-0.1131377820387513,-0.16513310067497622,-0.19992076586945662,-0.21678532972751408,-0.2188297048546755,-0.21019089499834057,-0.19626582551754357,-0.18211491519357392,-0.1712883487739841,-0.16572988323216994,-0.16345419763617058,-0.16007377269152862,-0.14958078055454946,0.0,0.0,0.0,0.0,0.0,0.0,0.0,0.0,0.0,0.0,0.0,0.0,0.0,0.0,0.0,0.0,0.0,0.0,0.0,0.0,0.0,0.0,0.0,0.0,0.0,0.0,0.0,0.0,0.0,0.0,0.0,0.0,0.0,0.0,0.0,0.0,0.0,0.0,0.0,0.0,0.0,0.0,0.0,0.0,0.0,0.0,0.0,0.0,0.0,0.0,0.0,0.0,0.0,0.0,0.0,0.0,0.0,0.0,0.0,0.0,0.0,0.0,0.0,0.0,0.0,0.0,0.0,0.0,0.0,0.0,0.0,0.0,0.0,0.0,0.0,0.0,0.0,0.0,0.0,0.0,0.0,0.0,0.0,0.0,0.0,0.0,0.0,0.0,0.0,0.0,0.0,0.0,0.0,0.0,0.0,0.0,0.0,0.0,0.0,0.0,0.0,0.0,0.0,0.0,0.0,0.0,0.0,0.0,0.0,0.0,0.0,0.0,0.0,0.0,0.0,0.0,0.0,0.0,0.0,0.0,0.0,0.0,0.0,0.0,0.0,0.0,0.0,0.0,0.0,0.0,0.0,0.0,0.0,0.0,0.0,0.0,0.0,0.0,0.0,0.0,0.0,0.0,0.0,0.0,0.0,0.0,0.0,0.0,0.0,0.0,0.0,0.0,0.0,0.0,0.0,0.0,0.0,0.0,0.0,0.0,0.0,0.0,0.0,0.0,0.0,0.0,0.0,0.0,0.0,0.0,0.0,0.0,0.0,0.0,0.0,0.0,0.0,0.0,0.0,0.0,0.0,0.0,0.0,0.0,0.0,0.0,0.0,0.0,0.0,0.0,0.0,0.0,0.0,0.0,0.0,0.0,0.0,0.0,0.0,0.0,0.0,0.0,0.0,0.0,0.0,0.0,0.0,0.0,0.0,0.0,0.0,0.0,0.0,0.0,0.0,0.0
-0.2188297048546755,-0.21019089499834057,-0.19626582551754357,-0.18211491519357392,-0.1712883487739841,-0.16572988323216994,-0.16345419763617058,-0.16007377269152862,-0.14958078055454946,-0.1257913678204542,-0.08454597414208039,-0.023038258659620864,0.05843576272237707,0.1563929553902777,0.26444712790196845,0.37347895849770263,0.47456809219009327,0.5592104387882046,0.6206548575169076,0.6546856236243912,0.6594673441114325,0.6371991559881531,0.5926255067263416,0.5326309994225285,0.46533187204388365,0.3985352198642954,0.3404932582174181,0.2979002185968966,0.275566026490595,0.2759781204633761,0.29854780467431924,0.34141174707481486,0.4004820728071713,0.47030726109202775,0.5447289478361248,0.6168604893001064,0.682211912503507,0.7373926317638723,0.7809788652844954,0.8134797752088735,0.8359755350901741,0.8524784914242819,0.8665517805939492,0.8811834254815188,0.8981010769774687,0.916561033278571,0.936052664949566,0.9547845107553028,0.9708280134633182,0.9827223787460639,0.9891341686901183,0.9911821639005014,0.9907844643927338,0.9903055758796373,0.99168644766375,0.9949788290861218,0.9998751624465771,1.0044364760161348,1.005762787109273,1.0006505165814363,0.9857770551954171,0.9601597382602595,0.9244223548644804,0.8810234550337209,0.8337614062847983,0.7862986478589892,0.7434283636113205,0.708388751796702,0.6828817093798604,0.6668722959881603,0.6579849065651858,0.654531128063332,0.6535306599176269,0.6522949682632352,0.6490720845480447,0.6426475499930638,0.6349871790727663,0.6285135801093718,0.6262867163517587,0.6312718731079291,0.6447691684238818,0.6684174551093012,0.7016327191990787,0.7422494175680444,0.0,0.0,0.0,0.0,0.0,0.0,0.0,0.0,0.0,0.0,0.0,0.0,0.0,0.0,0.0,0.0,0.0,0.0,0.0,0.0,0.0,0.0,0.0,0.0,0.0,0.0,0.0,0.0,0.0,0.0,0.0,0.0,0.0,0.0,0.0,0.0,0.0,0.0,0.0,0.0,0.0,0.0,0.0,0.0,0.0,0.0,0.0,0.0,0.0,0.0,0.0,0.0,0.0,0.0,0.0,0.0,0.0,0.0,0.0,0.0,0.0,0.0,0.0,0.0,0.0,0.0,0.0,0.0,0.0,0.0,0.0,0.0,0.0,0.0,0.0,0.0,0.0,0.0,0.0,0.0,0.0,0.0,0.0,0.0,0.0,0.0,0.0,0.0,0.0,0.0,0.0,0.0,0.0,0.0,0.0,0.0,0.0,0.0,0.0,0.0,0.0,0.0,0.0,0.0,0.0,0.0,0.0,0.0,0.0,0.0,0.0,0.0,0.0,0.0,0.0,0.0,0.0,0.0,0.0,0.0,0.0,0.0,0.0,0.0,0.0,0.0,0.0,0.0,0.0,0.0,0.0,0.0,0.0,0.0,0.0,0.0,0.0,0.0,0.0,0.0,0.0,0.0,0.0,0.0,0.0,0.0,0.0,0.0,0.0,0.0,0.0,0.0,0.0,0.0,0.0,0.0,0.0,0.0,0.0,0.0,0.0,0.0,0.0,0.0,0.0,0.0,0.0,0.0,0.0,0.0,0.0,0.0,0.0,0.0,0.0,0.0,0.0,0.0,0.0,0.0,0.0,0.0,0.0,0.0,0.0,0.0,0.0,0.0,0.0,0.0,0.0,0.0,0.0,0.0,0.0,0.0,0.0,0.0,0.0,0.0,0.0,0.0,0.0,0.0,0.0,0.0,0.0,0.0,0.0,0.0,0.0,0.0,0.0,0.0,0.0,0.0
0.5751163195840402,0.5370828337081812,0.5056913106076196,0.4850920805434355,0.4782475012958242,0.4855574154098653,0.5071927713136152,0.5405224636382118,0.5814795233920035,0.6253378194315745,0.6669139287870954,0.703571249047235,0.7333375650793339,0.7558936085153072,0.7724281375673248,0.7846197368203953,0.7958214620077319,0.8082230105477783,0.8230136133813566,0.8401554390048354,0.858084482551478,0.8756705606217129,0.8907861361357393,0.90174202923335,0.9078827404423458,0.9093516575921592,0.9087696876156769,0.9082386757294717,0.9095333377555108,0.9135007046156285,0.9191775957128381,0.9256656240268676,0.9299913836030693,0.9287647073320872,0.9191186687889111,0.8989813244605269,0.8694317251041587,0.8320623270345573,0.789504976803248,0.7448646984013066,0.7006645302528328,0.6601026555338129,0.6245952930968064,0.5947283912187062,0.5706107280137022,0.5517977044067801,0.5388846282600972,0.5314281056292683,0.5284275964195082,0.5281812144669807,0.52800892096989,0.5257843506500152,0.518919053304873,0.5056671400345234,0.48575170092025916,0.46033094273336245,0.4325915625256543,0.405654093669717,0.38194908410325734,0.3622994339436012,0.34514813413711826,0.3280219812284584,0.30681716830275607,0.2777631477758441,0.23884716696694325,0.19036692601259703,0.13659349086976913,0.08302855145485083,0.03577587394560598,0.0,0.0,0.0,0.0,0.0,0.0,0.0,0.0,0.0,0.0,0.0,0.0,0.0,0.0,0.0,0.0,0.0,0.0,0.0,0.0,0.0,0.0,0.0,0.0,0.0,0.0,0.0,0.0,0.0,0.0,0.0,0.0,0.0,0.0,0.0,0.0,0.0,0.0,0.0,0.0,0.0,0.0,0.0,0.0,0.0,0.0,0.0,0.0,0.0,0.0,0.0,0.0,0.0,0.0,0.0,0.0,0.0,0.0,0.0,0.0,0.0,0.0,0.0,0.0,0.0,0.0,0.0,0.0,0.0,0.0,0.0,0.0,0.0,0.0,0.0,0.0,0.0,0.0,0.0,0.0,0.0,0.0,0.0,0.0,0.0,0.0,0.0,0.0,0.0,0.0,0.0,0.0,0.0,0.0,0.0,0.0,0.0,0.0,0.0,0.0,0.0,0.0,0.0,0.0,0.0,0.0,0.0,0.0,0.0,0.0,0.0,0.0,0.0,0.0,0.0,0.0,0.0,0.0,0.0,0.0,0.0,0.0,0.0,0.0,0.0,0.0,0.0,0.0,0.0,0.0,0.0,0.0,0.0,0.0,0.0,0.0,0.0,0.0,0.0,0.0,0.0,0.0,0.0,0.0,0.0,0.0,0.0,0.0,0.0,0.0,0.0,0.0,0.0,0.0,0.0,0.0,0.0,0.0,0.0,0.0,0.0,0.0,0.0,0.0,0.0,0.0,0.0,0.0,0.0,0.0,0.0,0.0,0.0,0.0,0.0,0.0,0.0,0.0,0.0,0.0,0.0,0.0,0.0,0.0,0.0,0.0,0.0,0.0,0.0,0.0,0.0,0.0,0.0,0.0,0.0,0.0,0.0,0.0,0.0,0.0,0.0,0.0,0.0,0.0,0.0,0.0,0.0,0.0,0.0,0.0,0.0,0.0,0.0,0.0,0.0,0.0,0.0,0.0,0.0,0.0,0.0,0.0,0.0,0.0,0.0,0.0,0.0,0.0,0.0,0.0,0.0
0.5257843506500152,0.518919053304873,0.5056671400345234,0.48575170092025916,0.46033094273336245,0.4325915625256543,0.405654093669717,0.38194908410325734,0.3622994339436012,0.34514813413711826,0.3280219812284584,0.30681716830275607,0.2777631477758441,0.23884716696694325,0.19036692601259703,0.13659349086976913,0.08302855145485083,0.03577587394560598,0.0,0.0,0.0,0.0,0.0,0.0,0.0,0.0,0.0,0.0,0.0,0.0,0.0,0.0,0.0,0.0,0.0,0.0,0.0,0.0,0.0,0.0,0.0,0.0,0.0,0.0,0.0,0.0,0.0,0.0,0.0,0.0,0.0,0.0,0.0,0.0,0.0,0.0,0.0,0.0,0.0,0.0,0.0,0.0,0.0,0.0,0.0,0.0,0.0,0.0,0.0,0.0,0.0,0.0,0.0,0.0,0.0,0.0,0.0,0.0,0.0,0.0,0.0,0.0,0.0,0.0,0.0,0.0,0.0,0.0,0.0,0.0,0.0,0.0,0.0,0.0,0.0,0.0,0.0,0.0,0.0,0.0,0.0,0.0,0.0,0.0,0.0,0.0,0.0,0.0,0.0,0.0,0.0,0.0,0.0,0.0,0.0,0.0,0.0,0.0,0.0,0.0,0.0,0.0,0.0,0.0,0.0,0.0,0.0,0.0,0.0,0.0,0.0,0.0,0.0,0.0,0.0,0.0,0.0,0.0,0.0,0.0,0.0,0.0,0.0,0.0,0.0,0.0,0.0,0.0,0.0,0.0,0.0,0.0,0.0,0.0,0.0,0.0,0.0,0.0,0.0,0.0,0.0,0.0,0.0,0.0,0.0,0.0,0.0,0.0,0.0,0.0,0.0,0.0,0.0,0.0,0.0,0.0,0.0,0.0,0.0,0.0,0.0,0.0,0.0,0.0,0.0,0.0,0.0,0.0,0.0,0.0,0.0,0.0,0.0,0.0,0.0,0.0,0.0,0.0,0.0,0.0,0.0,0.0,0.0,0.0,0.0,0.0,0.0,0.0,0.0,0.0,0.0,0.0,0.0,0.0,0.0,0.0,0.0,0.0,0.0,0.0,0.0,0.0,0.0,0.0,0.0,0.0,0.0,0.0,0.0,0.0,0.0,0.0,0.0,0.0,0.0,0.0,0.0,0.0,0.0,0.0,0.0,0.0,0.0,0.0,0.0,0.0,0.0,0.0,0.0,0.0,0.0,0.0,0.0,0.0,0.0,0.0,0.0,0.0,0.0,0.0,0.0,0.0,0.0,0.0,0.0,0.0,0.0,0.0,0.0,0.0,0.0,0.0,0.0,0.0,0.0,0.0,0.0,0.0,0.0,0.0,0.0,0.0,0.0,0.0,0.0,0.0,0.0,0.0,0.0,0.0,0.0,0.0,0.0,0.0,0.0,0.0,0.0,0.0,0.0,0.0
