0.7978966883441106,0.30507370059580274,-0.30983150663240866,-0.6724490633582128,-0.7516250286834708,-0.15734225497565196,0.024610351428439037,0.14061459500508067,0.1626270863461951,0.17180944661970737,0.15259508927622367,0.15181930322471687,0.13831041147417739,0.12145732217576954,0.11688741146214526,0.11214442300774696,0.11037127141218056,0.12406966869604141,0.11269616097549956,0.09810940852398142,0.0834450787911854,0.08119770682287103,0.05393699500089505,0.03911576866241401,0.011781373582866184,0.012503893074004901,0.006967347225738274,-0.0110637565910357,-0.016624197432141358,-0.009711525596660414,0.0034351568326236315,-0.005265831621926481,-0.007733852327249741,-0.02893285436919482,-0.03454421226830759,-0.05889476297672225,-0.07390843621991228,-0.0827120910306938,-0.09779405041394906,-0.11292226984232542,-0.10626446045599747,-0.1183929786605333,-0.12123651781448253,-0.14600819057868575,-0.1583975703162363,-0.19273910744513484,-0.2116031300612555,-0.2243632193938851,-0.24039313634223214,-0.2503455660176284,-0.2604742222990887,-0.2645517578244826,-0.26258999342553946,-0.2670799279810907,-0.268669740079543,-0.28608753922803287,-0.2974968454099888,-0.30601910519494185,-0.30229022453973603,-0.2894213480503168,-0.2892396104445104,-0.26116419524676837,-0.23013449504514044,-0.20860781341675513,-0.1778395548562514,-0.15028730460035875,-0.12904840054492786,-0.10161967378706535,-0.09606112979170792,-0.08739012724849965,-0.06310557666524158,-0.048149572599372886,-0.03002274845131858,-0.024308522045239367,-0.018509611291098377,-0.025091439118288816,-0.031558984717250604,-0.03477893533547552,-0.0565806469875717,-0.0751117589452227,-0.08724205691980011,-0.09296238735901102,-0.11098558984320109,-0.12258289351164821,-0.12462720330904545,-0.12647284338942433,-0.13123435523725446,-0.1451470842679186,-0.15572576575324382,-0.16296644135344152,-0.17934640622370024,-0.17990099505787097,-0.19270925986584062,-0.19592741308515554,-0.19267353016910294,-0.18606594461947631,-0.19794445591334123,-0.1971057945211164,-0.21475091106768388,-0.21655683753379487,-0.23060474202238826,-0.22569217395617422,-0.23614093822045423,-0.24634977117229473,-0.2469578633687599,-0.2473256029609811,-0.23809218933899334,-0.22237761738862255,-0.20954232643943682,-0.21830747744716467,-0.23619243524588854,-0.23511571777008258,-0.24939987186878754,-0.24160293847818012,-0.2585281440305517,-0.247132389123199,-0.2323764954445608,-0.22050009504935073,-0.18966110830934974,-0.1679407685343724,-0.13661761927088478,-0.08633119787575774,-0.048284178227598645,-0.025598252748570166,-0.008915315687281211,0.014241827622909875,0.006426000986714475,-0.026128500152045625,-0.02102507519307123,-0.03131557913280081,-0.04140863011758039,-0.06691591349701745,-0.0953683577771137,-0.11117759596031648,-0.14243880242667561,-0.167324655600896,-0.17648915383747615,-0.18554828542967677,-0.1664356133767414,-0.15972938003234632,-0.14984465828561838,-0.13679795311214893,-0.12996685377848524,-0.11688811298007079,-0.10694046153056194,-0.10014268765994588,-0.06843249509544708,-0.03991189950847737,-0.017722223217076227,0.08235973440228223,0.2665510596597044,0.5005046074567916,0.6375435123101668,0.5465881615756367,-0.04385442022426003,-0.5815487462699052,-0.508019950936033,-0.3256289647422545,-0.1934901252872609,-0.1271812154042598,-0.0923571104084675,-0.07027428044238757,-0.048430368767660215,-0.06424708271303248,-0.04281997519687092,-0.0434140557987186,-0.037929796616174516,-0.026350477848157555,-0.02114122216840944,-0.01916726513606154,-0.004814179851471867,8.893542105267715e-05,0.0017935562885597889,-0.024652065867737633,-0.035556556909691284,-0.04027303348689085,-0.03255467910392054,-0.021756706633561718,-0.03907679412768192,-0.015867393034313115,-0.011410140094989474,-0.013223262380004597,0.0,0.0,0.0,0.0,0.0,0.0,0.0,0.0,0.0,0.0,0.0,0.0,0.0,0.0,0.0,0.0,0.0,0.0,0.0,0.0,0.0,0.0,0.0,0.0,0.0,0.0,0.0,0.0,0.0,0.0,0.0,0.0,0.0,0.0,0.0,0.0,0.0,0.0,0.0,0.0,0.0,0.0,0.0,0.0,0.0,0.0,0.0,0.0,0.0,0.0,0.0,0.0,0.0,0.0,0.0,0.0,0.0,0.0,0.0,0.0,0.0,0.0,0.0,0.0,0.0,0.0,0.0,0.0,0.0,0.0,0.0,0.0,0.0,0.0,0.0,0.0,0.0,0.0,0.0,0.0,0.0,0.0,0.0,0.0,0.0,0.0,0.0,0.0,0.0,0.0,0.0,0.0,0.0,0.0,0.0,0.0,0.0,0.0,0.0,0.0,0.0,0.0,0.0,0.0,0.0,0.0,0.0,0.0,0.0,0.0,0.0,0.0,0.0,0.0,0.0,0.0,0.0,0.0,N
0.5465881615756367,-0.04385442022426003,-0.5815487462699052,-0.508019950936033,-0.3256289647422545,-0.1934901252872609,-0.1271812154042598,-0.0923571104084675,-0.07027428044238757,-0.048430368767660215,-0.06424708271303248,-0.04281997519687092,-0.0434140557987186,-0.037929796616174516,-0.026350477848157555,-0.02114122216840944,-0.01916726513606154,-0.004814179851471867,8.893542105267715e-05,0.0017935562885597889,-0.024652065867737633,-0.035556556909691284,-0.04027303348689085,-0.03255467910392054,-0.021756706633561718,-0.03907679412768192,-0.015867393034313115,-0.011410140094989474,-0.013223262380004597,0.0005344282341523121,-0.01694142110855612,-0.031331239773357694,-0.04575899341864914,-0.050868934293965745,-0.06538811102547476,-0.07684256948465792,-0.07899966350713078,-0.07186799762035062,-0.07105801208682186,-0.08906082690507383,-0.06972407505885894,-0.08170412629570958,-0.10941287697027319,-0.12166205955434461,-0.13718727489384275,-0.1435227671143747,-0.1500447223576553,-0.16612984683713528,-0.16995334813263982,-0.18025342278459291,-0.18456666915666417,-0.20163200812656665,-0.2189866893286539,-0.24288938358016166,-0.26087771279309924,-0.27609031516592336,-0.27606356849244307,-0.2701725282792977,-0.3021117247251247,-0.2845251960627763,-0.2860617264150448,-0.29112122357887615,-0.2872201341226266,-0.28683235300074184,-0.2993078066712278,-0.28718970940103844,-0.29102132248031837,-0.27021697635415776,-0.24035044543992598,-0.21075295234898273,-0.16579416674956382,-0.1397671199836517,-0.11704207435503017,-0.08198983101745463,-0.06890502135281734,-0.04343873506913892,-0.027406530006958557,-0.030144190060477583,-0.01418562063344031,-0.010710183504500786,0.00214496915271406,-0.0005614781134554714,0.015511684416526117,0.012939863564166654,0.0011001300503582223,0.004969245258896526,-0.016001443413374644,-0.03995787891023819,-0.04192696324427339,-0.05934060851540779,-0.054746988244918776,-0.07182038078513575,-0.07311086459049573,-0.07109257445204067,-0.05951932563470974,-0.06958819894084439,-0.07945383889923399,-0.10159396448838909,-0.11104475178849454,-0.13276628434842144,-0.14179615042591664,-0.14749469683802102,-0.14362180605880234,-0.1488994496508842,-0.1602087284865218,-0.1525898463593836,-0.17284801172491443,-0.1679425522690249,-0.16595833297166124,-0.1918604181760214,-0.21133050653759752,-0.21813236258138957,-0.21851072630367072,-0.21559028611491432,-0.22185647138620954,-0.21235248790808386,-0.19644385457942382,-0.2053376564891579,-0.20471706339178353,-0.213308832401583,-0.22175814724706622,-0.21759016418859425,-0.2164119558673906,-0.2275903474403123,-0.2386509294230989,-0.24647998789399994,-0.23236286031439668,-0.22438786857468102,-0.22256162295048787,-0.2362514452923566,-0.2436227962326977,-0.24468258309917684,-0.26127912305796,-0.2559769739662567,-0.25998375760073505,-0.2514629175889021,-0.25537969427053203,-0.24989597589071083,-0.24749509035457384,-0.24193894981805664,-0.24883085691412457,-0.25569235478053853,-0.25940545947818927,-0.24749081649144866,-0.2573911215648361,-0.2454239068258381,-0.2552713293388929,-0.24324999566683658,-0.2374403456419261,-0.2316006558268674,-0.22260945187776848,-0.2229463321808226,-0.23261022532230108,-0.2547203814519444,-0.2487133448201184,-0.25827033972489294,-0.25218771209303564,-0.24918396594783834,-0.2554963690675707,-0.24928024529357137,-0.2305315526048885,-0.23356826808827263,-0.2459054747149044,-0.24257753086196143,-0.2454217822081978,-0.24819381174425786,-0.2508896102565637,-0.2472647089261655,-0.23419451905655883,-0.22103524775150035,-0.22962396326595735,-0.23499488722085163,-0.2402641182888873,-0.23918722202522827,-0.24112079339781153,-0.23982047607624268,-0.24464293885952484,-0.2555842933011767,-0.24455887793956715,-0.23652364319355812,-0.2221133696680493,-0.220044680521323,0.0,0.0,0.0,0.0,0.0,0.0,0.0,0.0,0.0,0.0,0.0,0.0,0.0,0.0,0.0,0.0,0.0,0.0,0.0,0.0,0.0,0.0,0.0,0.0,0.0,0.0,0.0,0.0,0.0,0.0,0.0,0.0,0.0,0.0,0.0,0.0,0.0,0.0,0.0,0.0,0.0,0.0,0.0,0.0,0.0,0.0,0.0,0.0,0.0,0.0,0.0,0.0,0.0,0.0,0.0,0.0,0.0,0.0,0.0,0.0,0.0,0.0,0.0,0.0,0.0,0.0,0.0,0.0,0.0,0.0,0.0,0.0,0.0,0.0,0.0,0.0,0.0,0.0,0.0,0.0,0.0,0.0,0.0,0.0,0.0,0.0,0.0,0.0,0.0,0.0,0.0,0.0,0.0,0.0,0.0,0.0,0.0,0.0,0.0,0.0,0.0,0.0,0.0,0.0,0.0,0.0,0.0,0.0,0.0,0.0,0.0,0.0,0.0,0.0,0.0,0.0,0.0,0.0,N
0.9603188385763762,0.6660410749996982,0.09057613391218183,-0.43538549898877915,-0.6435590007632035,-0.5027767972010178,-0.3188151418452613,-0.16341114475220805,-0.06773256264125668,-0.03798598398518496,-0.017974924088358157,-0.004547322373288698,-0.0007926632925575605,0.002679148190528724,-0.0003440196573843979,0.01512643644462136,0.024154706059053843,0.026765254307135555,0.02610138646054544,0.028425234888678097,0.024396570720631117,0.026515175540666014,0.009837087949916168,0.005580551260119748,0.007520138597300663,0.006308958889596372,0.030041229093582478,0.031925130306062977,0.0244512293137375,0.02634909281119946,0.018904544236621412,0.005243427864049965,-0.017750141459878133,-0.028231723914768803,-0.04804080914891212,-0.0553352028037305,-0.037634303830847954,-0.03550184855394192,-0.03957944505780531,-0.062351151870469856,-0.06325869094581837,-0.06414868235871693,-0.05566668148056306,-0.07526213976829282,-0.11358248888762801,-0.14255483022181187,-0.1528281265845664,-0.1631336531870611,-0.18284256295672852,-0.18388404752360443,-0.1912309983529768,-0.17993344742253092,-0.1905658790412618,-0.19505874612621066,-0.2215063614226495,-0.24808012231475413,-0.2623121521691408,-0.27045571442401817,-0.27876266888899975,-0.28724230088757247,-0.3021413265346569,-0.2860199094186305,-0.2856783881857917,-0.28550947342573424,-0.29174364257394486,-0.2981269712535615,-0.27968014381018746,-0.24574122325816183,-0.2430876023387256,-0.21240993004758418,-0.20048563035299385,-0.18232773483928547,-0.14231010617688544,-0.10224931639782067,-0.074601867840483,-0.06246439345357835,-0.05645359642381104,-0.06590829695884112,-0.07208648319789121,-0.07496824308162212,-0.04645275431782339,-0.036445022697604995,-0.02308649141403013,-0.0063610493875299046,-0.020575892496794368,-0.01891425865231569,-0.026325088590542167,-0.04279687728573192,-0.04335763689580352,-0.03423838937544621,-0.027911574795853655,-0.024369905283610077,-0.029847588312114343,-0.02873855692390065,-0.021038825656926274,-0.016106098870611013,-0.01705881619670102,-0.011415581374226907,-0.011657739410178558,-0.02090722009053486,-0.032926536769473796,-0.019637945683734698,-0.021609145533232982,-0.01700500232255625,-0.008953100572604511,0.008778418363837748,0.020578829947007216,0.023316922497711334,0.04194193124306306,0.032757367729702946,0.01758946690977331,0.012022665043889047,0.028519874150200297,0.032739729304581744,0.043382861660461125,0.05418691211057958,0.05888806694779797,0.06370179828307931,0.07484204610148015,0.08292020114570092,0.08790663809131588,0.08977007932732145,0.10719876168130343,0.0933550646441495,0.10124594953324118,0.12459289962345249,0.1633560514934551,0.2081330852431753,0.22767823623980032,0.2749888239576007,0.4061799904036525,0.624320888592845,0.7327846919427948,0.15115578560540216,-0.4185847183478962,-0.6894441163814518,-0.73011609692691,-0.3627566770955953,-0.18016508555644817,-0.035642534654567765,0.04901870148864079,0.09570806981269381,0.1419145275258213,0.15024054898092665,0.15817142790210914,0.15950768859133158,0.16052862124608008,0.15503068640159134,0.16176989314089274,0.14021646412639488,0.1434445337722282,0.13092033943787318,0.13075253298485845,0.12424489484406531,0.12390130009372413,0.1203823746351092,0.11370748300609862,0.10701434875668397,0.1034388892138699,0.0905142558995527,0.08385363294163822,0.058505932286919526,0.06128297694830004,0.06723049170360323,0.045152260011079304,0.035615059510794356,0.03238122525256476,0.029211676525337626,0.016745734416803326,0.01994352097584212,0.010720460474594906,-0.020288168560622488,-0.04188579696710695,-0.05095877931291157,-0.08495708034693761,-0.08460549081344629,-0.10919716152009398,-0.10257870937898814,-0.11780439433655002,-0.1330444345018204,-0.16391207996214288,-0.1885787699535576,0.0,0.0,0.0,0.0,0.0,0.0,0.0,0.0,0.0,0.0,0.0,0.0,0.0,0.0,0.0,0.0,0.0,0.0,0.0,0.0,0.0,0.0,0.0,0.0,0.0,0.0,0.0,0.0,0.0,0.0,0.0,0.0,0.0,0.0,0.0,0.0,0.0,0.0,0.0,0.0,0.0,0.0,0.0,0.0,0.0,0.0,0.0,0.0,0.0,0.0,0.0,0.0,0.0,0.0,0.0,0.0,0.0,0.0,0.0,0.0,0.0,0.0,0.0,0.0,0.0,0.0,0.0,0.0,0.0,0.0,0.0,0.0,0.0,0.0,0.0,0.0,0.0,0.0,0.0,0.0,0.0,0.0,0.0,0.0,0.0,0.0,0.0,0.0,0.0,0.0,0.0,0.0,0.0,0.0,0.0,0.0,0.0,0.0,0.0,0.0,0.0,0.0,0.0,0.0,0.0,0.0,0.0,0.0,0.0,0.0,0.0,0.0,0.0,0.0,0.0,0.0,0.0,0.0,N
0.7327846919427948,0.15115578560540216,-0.4185847183478962,-0.6894441163814518,-0.73011609692691,-0.3627566770955953,-0.18016508555644817,-0.035642534654567765,0.04901870148864079,0.09570806981269381,0.1419145275258213,0.15024054898092665,0.15817142790210914,0.15950768859133158,0.16052862124608008,0.15503068640159134,0.16176989314089274,0.14021646412639488,0.1434445337722282,0.13092033943787318,0.13075253298485845,0.12424489484406531,0.12390130009372413,0.1203823746351092,0.11370748300609862,0.10701434875668397,0.1034388892138699,0.0905142558995527,0.08385363294163822,0.058505932286919526,0.06128297694830004,0.06723049170360323,0.045152260011079304,0.035615059510794356,0.03238122525256476,0.029211676525337626,0.016745734416803326,0.01994352097584212,0.010720460474594906,-0.020288168560622488,-0.04188579696710695,-0.05095877931291157,-0.08495708034693761,-0.08460549081344629,-0.10919716152009398,-0.10257870937898814,-0.11780439433655002,-0.1330444345018204,-0.16391207996214288,-0.1885787699535576,-0.203937553494628,-0.2193625688338738,-0.2535887680462948,-0.25358667605977137,-0.25993220118183724,-0.26951789647784186,-0.2698745416512072,-0.2922136087648711,-0.2991000784158868,-0.29053707024903885,-0.3008449901326673,-0.3019361867481281,-0.27819873896680997,-0.26393873550115826,-0.24353617445634082,-0.2138502902217479,-0.19982212467749616,-0.1671091145562102,-0.14689310596619248,-0.09859177913589778,-0.08146967301969654,-0.08302750327878819,-0.06892542564466886,-0.06722839058806152,-0.056079063885195346,-0.06666438921841386,-0.052167302321349085,-0.046896807139781005,-0.047720501153847045,-0.06086758087389621,-0.07696724884555062,-0.08040924374298253,-0.10550733484262856,-0.12105195625954857,-0.14575743001063696,-0.13905493695696572,-0.14774172792566825,-0.15621162396359373,-0.1488589450945233,-0.16312184433218543,-0.17091479728042522,-0.17535468771502322,-0.17643858391378675,-0.19600530533356628,-0.20285065056136878,-0.20945345637706628,-0.21581198855461525,-0.20944390884802788,-0.21842961956120646,-0.22092653571114376,-0.21381340950965783,-0.21581051648836969,-0.23315750635919025,-0.2315316055427584,-0.232773687329807,-0.24000351338126139,-0.2313793302987136,-0.2349826001046973,-0.25705347534375655,-0.2445483977513937,-0.22866826746689572,-0.23125340374445674,-0.22110084382000977,-0.20757028827230206,-0.22810335734746062,-0.22965611144854448,-0.22470887894812747,-0.19141989291865358,-0.16411107554579787,-0.13030165045796416,-0.07439105980419158,-0.036942906882892756,-0.008598482969816051,0.004398874640460015,0.01140562700799308,0.01865677690333728,-0.0019361523218041632,-0.028539790532247256,-0.048682591426293886,-0.05301430229842341,-0.06338765081131534,-0.09229574141303393,-0.11167001737469964,-0.14024567731767626,-0.15619601727455096,-0.1501756641733305,-0.15652248218132642,-0.16277184312972304,-0.16269997114198273,-0.14072291833924816,-0.13742073600043214,-0.0997680511886708,-0.027783417911487474,0.022350296006224735,0.11301667113431574,0.2878767469482325,0.49074340464862065,0.6279844650521164,0.6964498172499596,0.7553889449166634,0.5957095313700481,0.07383841609836606,-0.8289938332610159,-0.38424703459558907,-0.25498165599470185,-0.17284223878852775,-0.12844910166914242,-0.09994214236476465,-0.08106284709146955,-0.05307264560195807,-0.040916580554087034,-0.03209828361335457,-0.029723412595720478,-0.021297709463505565,-0.01616939551444946,-0.02056762463375797,-0.012640920059204003,-0.020462117628945925,-0.022182049909176937,-0.01779407510798367,-0.026013869866126416,-0.01251488317706645,-0.005375643841658506,-0.013954664114561866,-0.022650078181320116,-0.03770257840663818,-0.027911598275698835,-0.0400825856853288,-0.03989692281141238,-0.033599611026738835,-0.04927808017196508,-0.05885725480321058,0.0,0.0,0.0,0.0,0.0,0.0,0.0,0.0,0.0,0.0,0.0,0.0,0.0,0.0,0.0,0.0,0.0,0.0,0.0,0.0,0.0,0.0,0.0,0.0,0.0,0.0,0.0,0.0,0.0,0.0,0.0,0.0,0.0,0.0,0.0,0.0,0.0,0.0,0.0,0.0,0.0,0.0,0.0,0.0,0.0,0.0,0.0,0.0,0.0,0.0,0.0,0.0,0.0,0.0,0.0,0.0,0.0,0.0,0.0,0.0,0.0,0.0,0.0,0.0,0.0,0.0,0.0,0.0,0.0,0.0,0.0,0.0,0.0,0.0,0.0,0.0,0.0,0.0,0.0,0.0,0.0,0.0,0.0,0.0,0.0,0.0,0.0,0.0,0.0,0.0,0.0,0.0,0.0,0.0,0.0,0.0,0.0,0.0,0.0,0.0,0.0,0.0,0.0,0.0,0.0,0.0,0.0,0.0,0.0,0.0,0.0,0.0,0.0,0.0,0.0,0.0,0.0,0.0,N
0.5957095313700481,0.07383841609836606,-0.8289938332610159,-0.38424703459558907,-0.25498165599470185,-0.17284223878852775,-0.12844910166914242,-0.09994214236476465,-0.08106284709146955,-0.05307264560195807,-0.040916580554087034,-0.03209828361335457,-0.029723412595720478,-0.021297709463505565,-0.01616939551444946,-0.02056762463375797,-0.012640920059204003,-0.020462117628945925,-0.022182049909176937,-0.01779407510798367,-0.026013869866126416,-0.01251488317706645,-0.005375643841658506,-0.013954664114561866,-0.022650078181320116,-0.03770257840663818,-0.027911598275698835,-0.0400825856853288,-0.03989692281141238,-0.033599611026738835,-0.04927808017196508,-0.05885725480321058,-0.0467438452099998,-0.047268682834092246,-0.0417202267210971,-0.05819091640215998,-0.05300965247301731,-0.0698718433280354,-0.0900698978077189,-0.11361830473627874,-0.11557075139754042,-0.14274616268922452,-0.14835816505410998,-0.1480248810809052,-0.1604851278626242,-0.16391563812918591,-0.1832965590138204,-0.21240646966155374,-0.24502427042018896,-0.2905300303385457,-0.3239816463245188,-0.3329137253972165,-0.3485363928790265,-0.33964769112311355,-0.3499208341805849,-0.29821234121540974,-0.215696154882279,-0.186584780051825,-0.16092234058845856,-0.15427743591899246,-0.12605552357205413,-0.10430689678495136,-0.0702794770595678,-0.06138547702092914,-0.027672434514607436,-0.0034341806024432153,0.02071713486414445,0.035446949861715704,0.043900155533818874,0.03049903644632984,0.0171068032934778,0.0037438863218280383,0.002910186996591957,0.005262960111067472,-0.0016619903875129405,-0.02720992594273053,-0.008962769353939443,-0.024912482486571158,-0.03136447430499839,-0.040788841868807185,-0.040695174224315483,-0.05915667608346489,-0.07432440861496048,-0.07683116932793282,-0.09163280650018527,-0.07816185113851667,-0.10817876371537355,-0.09743492110159002,-0.1145721288281231,-0.11590579299278775,-0.12015595670949772,-0.12732212959142208,-0.14364485537663524,-0.1535238886112259,-0.160080694959929,-0.17579780598228373,-0.18195620442434068,-0.18479882060516067,-0.18432851552923707,-0.186788861111649,-0.1641015606053257,-0.17867438068166086,-0.1961893482935014,-0.2010500263647141,-0.20886222065358173,-0.21339057908691714,-0.22088073740423586,-0.22197750902993685,-0.22292683371809668,-0.21749398458258445,-0.2150453508364653,-0.2155868760797774,-0.20976407054270102,-0.21630439169263468,-0.22897389698572745,-0.24153880004174155,-0.24776540729652632,-0.25078065100617786,-0.25059124312940145,-0.2347227930506835,-0.23438340054609386,-0.237098448929489,-0.22415299006417716,-0.23299570297884775,-0.235551212822082,-0.24742699798333753,-0.2530286106859941,-0.26172319258048143,-0.26103597335816536,-0.2603322252998874,-0.25337494524708803,-0.2464067089438994,-0.23630894171184044,-0.23556406757224999,-0.24105357363953736,-0.24653880828378724,-0.2395407550736707,-0.23566219005541628,-0.26298672369528336,-0.24351127310916196,-0.2490008209588626,-0.24825381591996973,-0.25063114954019905,-0.2249310633563533,-0.21795647021085396,-0.23906801266167474,-0.23522250897883884,-0.2438625794550765,-0.2556279268127661,-0.258038073537402,-0.2635733623637607,-0.25663135094946654,-0.24656966238504857,-0.2458652544181153,-0.22643250770927362,-0.2350705779078359,-0.2187323706802735,-0.23357780536029,-0.2390407884089916,-0.2569592682752011,-0.24988746230775816,-0.2427826649420486,-0.24812115289216585,-0.25653783637754024,-0.23994637847658695,-0.23266355939029756,-0.23468401256819862,-0.22728125417024025,-0.23853184376526002,-0.23410847001022508,-0.2358474415605098,-0.2499841411669175,-0.2421914281043544,-0.24990649720002348,-0.24192220059927058,-0.233834144499447,-0.2256369701246803,-0.21108498999483016,-0.20577401639738735,-0.2221798452709057,-0.21037450917825806,-0.22339672158409532,0.0,0.0,0.0,0.0,0.0,0.0,0.0,0.0,0.0,0.0,0.0,0.0,0.0,0.0,0.0,0.0,0.0,0.0,0.0,0.0,0.0,0.0,0.0,0.0,0.0,0.0,0.0,0.0,0.0,0.0,0.0,0.0,0.0,0.0,0.0,0.0,0.0,0.0,0.0,0.0,0.0,0.0,0.0,0.0,0.0,0.0,0.0,0.0,0.0,0.0,0.0,0.0,0.0,0.0,0.0,0.0,0.0,0.0,0.0,0.0,0.0,0.0,0.0,0.0,0.0,0.0,0.0,0.0,0.0,0.0,0.0,0.0,0.0,0.0,0.0,0.0,0.0,0.0,0.0,0.0,0.0,0.0,0.0,0.0,0.0,0.0,0.0,0.0,0.0,0.0,0.0,0.0,0.0,0.0,0.0,0.0,0.0,0.0,0.0,0.0,0.0,0.0,0.0,0.0,0.0,0.0,0.0,0.0,0.0,0.0,0.0,0.0,0.0,0.0,0.0,0.0,0.0,0.0,N
0.7888074116766092,0.34521747205071773,-0.24218026277653745,-0.667655606455783,-0.5942764133263182,-0.24046597897211341,-0.1553557113569411,-0.10802740141061065,-0.05789541615301838,-0.03925958678203098,-0.052098507998861565,-0.05270903535854099,-0.05043237797162797,-0.042129924650841366,-0.040265042780375154,-0.0198597434656691,-0.008980450535016643,-0.001372541498420976,-0.009503778306556049,-0.020881564856491563,-0.016774097992860337,-0.028373885590980114,-0.04007161019787192,-0.03625905017670045,-0.029410808704178892,-0.044483339785576365,-0.04091001725696064,-0.024928209366650883,-0.027737906374920906,-0.03373723244319052,-0.027325410728919752,-0.04282591114191542,-0.0427987366306557,-0.055329084500364306,-0.07106079243345118,-0.06191746749512386,-0.08094876298072201,-0.07511850755882873,-0.08187712251698209,-0.07315172043502444,-0.06455302272657754,-0.09353401299914288,-0.11642342593215721,-0.14571434119261872,-0.15021771348214763,-0.16426917741695996,-0.1941230667242487,-0.20859174815618914,-0.21081004024033873,-0.21951394927887885,-0.2721608568667127,-0.30012153198957797,-0.3034087737879591,-0.31947276919736495,-0.32335442515448437,-0.3400109924617299,-0.3507097387431655,-0.2431031883176749,-0.2168539250606781,-0.19392687876651366,-0.1774122964939897,-0.13607850864794757,-0.10421836705804802,-0.06932230170360124,-0.034482452205447156,-0.024633239525398976,-0.030387965193436284,-0.004918661944210062,0.011235990674242857,0.014978483336326731,0.01257060867959603,0.01651324398273346,0.020584774328455735,-0.006399324328781791,-0.017619951405002804,-0.028663184196352665,-0.04575565375611593,-0.04704329802120122,-0.05123564576008133,-0.03648064628604933,-0.03085040817267845,-0.046817102228089436,-0.04693080494099694,-0.04678597276267202,-0.06197806517593274,-0.06754096349504385,-0.07907205875377726,-0.0809676558710736,-0.07322589513894442,-0.07456694135404507,-0.08187044060221696,-0.0795361093819319,-0.08940687583973356,-0.08652352898381194,-0.08024983317869389,-0.09243115229506732,-0.10747130332532298,-0.11289507740122076,-0.10870876042180974,-0.10740010593455784,-0.09649597275223429,-0.08536531063956024,-0.07713742734784784,-0.07494244148742776,-0.07879112505750724,-0.07933451720198223,-0.08594569245204653,-0.0892773746945282,-0.0799830957733654,-0.07055856909810429,-0.0703801472388253,-0.06386347878186671,-0.0479058925366366,-0.04124702594763127,-0.02206493269119464,-0.015341677037491175,-0.03045945756980112,-0.045599647753005706,-0.004622521735125978,0.13300964360069129,0.37663137070275055,0.6107673349032239,0.7917036587117056,0.7041112495898224,0.1513770104526877,-0.42971659628601755,-0.7646394304802812,-0.3510695464355297,-0.14688882301056222,-0.030380584575864816,0.02344518436030446,0.03021681767836293,0.04924407488105437,0.049349567024264296,0.03991700318219327,0.04592960104342786,0.05492675771126415,0.035725211298069715,0.03826535144537441,0.05632257651102596,0.049348671135398814,0.03607767424202618,0.03836233893507257,0.03437121971094004,0.017872434616556687,0.0013538838145313037,-0.015178654018506266,-0.02548024744179983,-0.02018692819733653,-0.030498420235699236,-0.025211612067230715,-0.03240825097735697,-0.03960861395475432,-0.03433405363241557,-0.05090994142921437,-0.061258742588157,-0.0653856929741414,-0.07889795289171725,-0.07996121008783827,-0.09978537186776115,-0.11341760844421026,-0.11774721905553229,-0.11590457075672056,-0.12974187120959613,-0.1436696029239954,-0.14521903599552927,-0.16560474039118553,-0.18299842130584845,-0.20677417969185818,-0.24006604197590264,-0.2516860536941989,-0.25412907827214576,-0.2505289891572264,-0.250259430779466,-0.2502129689025468,-0.2660031023274388,-0.2789208909437831,-0.2983374278583878,-0.31177943445237233,-0.30364860746751166,-0.3082637183781059,-0.29753423587543515,0.0,0.0,0.0,0.0,0.0,0.0,0.0,0.0,0.0,0.0,0.0,0.0,0.0,0.0,0.0,0.0,0.0,0.0,0.0,0.0,0.0,0.0,0.0,0.0,0.0,0.0,0.0,0.0,0.0,0.0,0.0,0.0,0.0,0.0,0.0,0.0,0.0,0.0,0.0,0.0,0.0,0.0,0.0,0.0,0.0,0.0,0.0,0.0,0.0,0.0,0.0,0.0,0.0,0.0,0.0,0.0,0.0,0.0,0.0,0.0,0.0,0.0,0.0,0.0,0.0,0.0,0.0,0.0,0.0,0.0,0.0,0.0,0.0,0.0,0.0,0.0,0.0,0.0,0.0,0.0,0.0,0.0,0.0,0.0,0.0,0.0,0.0,0.0,0.0,0.0,0.0,0.0,0.0,0.0,0.0,0.0,0.0,0.0,0.0,0.0,0.0,0.0,0.0,0.0,0.0,0.0,0.0,0.0,0.0,0.0,0.0,0.0,0.0,0.0,0.0,0.0,0.0,0.0,N
0.7041112495898224,0.1513770104526877,-0.42971659628601755,-0.7646394304802812,-0.3510695464355297,-0.14688882301056222,-0.030380584575864816,0.02344518436030446,0.03021681767836293,0.04924407488105437,0.049349567024264296,0.03991700318219327,0.04592960104342786,0.05492675771126415,0.035725211298069715,0.03826535144537441,0.05632257651102596,0.049348671135398814,0.03607767424202618,0.03836233893507257,0.03437121971094004,0.017872434616556687,0.0013538838145313037,-0.015178654018506266,-0.02548024744179983,-0.02018692819733653,-0.030498420235699236,-0.025211612067230715,-0.03240825097735697,-0.03960861395475432,-0.03433405363241557,-0.05090994142921437,-0.061258742588157,-0.0653856929741414,-0.07889795289171725,-0.07996121008783827,-0.09978537186776115,-0.11341760844421026,-0.11774721905553229,-0.11590457075672056,-0.12974187120959613,-0.1436696029239954,-0.14521903599552927,-0.16560474039118553,-0.18299842130584845,-0.20677417969185818,-0.24006604197590264,-0.2516860536941989,-0.25412907827214576,-0.2505289891572264,-0.250259430779466,-0.2502129689025468,-0.2660031023274388,-0.2789208909437831,-0.2983374278583878,-0.31177943445237233,-0.30364860746751166,-0.3082637183781059,-0.29753423587543515,-0.2839264415476557,-0.2611806755990252,-0.24487521151462524,-0.22250523915518927,-0.20340735195787463,-0.168836481033188,-0.14997095589338477,-0.12806632180095032,-0.09373920767783814,-0.08753001755290127,-0.06885476059600315,-0.06265441681322145,-0.040827483259906844,-0.03143695637695182,-0.018864085619584803,-0.031173981477643664,-0.03402892561493889,-0.05861645231167534,-0.06436059536915417,-0.08557109982139241,-0.10351525022250649,-0.1150621340044782,-0.12332195592772704,-0.12828538451801558,-0.13306390798645695,-0.14076961080281358,-0.1357939581455283,-0.14621172956438144,-0.17825687305802423,-0.1913608641086535,-0.1855181065239338,-0.1981656683074837,-0.2043369553667896,-0.19778681212391938,-0.2003520864877631,-0.1964274918040189,-0.20160996343911003,-0.20029470621198664,-0.20807914067293914,-0.21559933470782994,-0.21973195071150692,-0.220474009377275,-0.23654386208160855,-0.23049642054445263,-0.24913201391009485,-0.2300441051917419,-0.20755216278345553,-0.212855543934785,-0.22099023084798305,-0.20699237913315455,-0.21766284515466888,-0.2124371269329317,-0.22563563848910012,-0.2229345999339801,-0.2136931214195769,-0.21039063472002653,-0.1849441589051681,-0.16231427513973465,-0.13938009006720917,-0.1067807392261538,-0.052035700330693185,-0.009468134020206326,0.020920006264002033,0.0391255767357257,0.057624885761389355,0.05769082229837691,0.03931594115142317,0.043053852909841095,0.03769216587781915,0.013858425671619545,0.0027413336853641668,-0.0206352906365794,-0.05628729036561514,-0.08551045142491442,-0.10208231042500279,-0.1091418099383964,-0.11294881842118892,-0.09168210881996947,-0.08904529782353562,-0.07385801476630768,-0.04926286614693243,-0.040244717126465074,-0.028106643703381673,-0.03159514165284749,-0.01017403032076819,0.02988881209370875,0.06048293030910573,0.1190206527150427,0.2772349523060601,0.5038904151724308,0.705345031352923,0.8285156156729182,0.9139201768338262,0.8335806183572448,0.3846282698489095,-0.22394472821237751,-0.7987503892225278,-0.7938184016592669,-0.24660322872665538,-0.09000443784976422,-0.02132295173790269,0.021884226300228682,0.03341459247482781,0.035146083375416526,0.03647443639474818,0.049914174119146115,0.05989661159115334,0.057091973815986796,0.06961133194493702,0.08188145345003345,0.08768811588974984,0.08705584694883839,0.08000749818589992,0.08528543985207909,0.08418802116075602,0.07049272165077397,0.050456156673532315,0.061535337526836265,0.06318082030317163,0.061644594876143155,0.060056898920123614,0.07402721863917394,0.05675953007611717,0.0,0.0,0.0,0.0,0.0,0.0,0.0,0.0,0.0,0.0,0.0,0.0,0.0,0.0,0.0,0.0,0.0,0.0,0.0,0.0,0.0,0.0,0.0,0.0,0.0,0.0,0.0,0.0,0.0,0.0,0.0,0.0,0.0,0.0,0.0,0.0,0.0,0.0,0.0,0.0,0.0,0.0,0.0,0.0,0.0,0.0,0.0,0.0,0.0,0.0,0.0,0.0,0.0,0.0,0.0,0.0,0.0,0.0,0.0,0.0,0.0,0.0,0.0,0.0,0.0,0.0,0.0,0.0,0.0,0.0,0.0,0.0,0.0,0.0,0.0,0.0,0.0,0.0,0.0,0.0,0.0,0.0,0.0,0.0,0.0,0.0,0.0,0.0,0.0,0.0,0.0,0.0,0.0,0.0,0.0,0.0,0.0,0.0,0.0,0.0,0.0,0.0,0.0,0.0,0.0,0.0,0.0,0.0,0.0,0.0,0.0,0.0,0.0,0.0,0.0,0.0,0.0,0.0,N
0.9139201768338262,0.8335806183572448,0.3846282698489095,-0.22394472821237751,-0.7987503892225278,-0.7938184016592669,-0.24660322872665538,-0.09000443784976422,-0.02132295173790269,0.021884226300228682,0.03341459247482781,0.035146083375416526,0.03647443639474818,0.049914174119146115,0.05989661159115334,0.057091973815986796,0.06961133194493702,0.08188145345003345,0.08768811588974984,0.08705584694883839,0.08000749818589992,0.08528543985207909,0.08418802116075602,0.07049272165077397,0.050456156673532315,0.061535337526836265,0.06318082030317163,0.061644594876143155,0.060056898920123614,0.07402721863917394,0.05675953007611717,0.039461166691074856,0.031496550194036965,0.020387277036678086,-0.00010605427853271898,-0.014382794604173438,-0.0037233333385636447,-0.005572800623675933,-0.019935162355685127,-0.012493409547190915,-0.011335643411723523,-0.025829948723986307,-0.040384002389568296,-0.05500758289767951,-0.07595190172220687,-0.10322873576557759,-0.10564873376069667,-0.1269080326117677,-0.13893891064505015,-0.15735702986603206,-0.14785541751828327,-0.15413251698476016,-0.17932468813264185,-0.18288597731827444,-0.20851613441821645,-0.24687185620221583,-0.26052824705889305,-0.27134418828477225,-0.2762157381422994,-0.30011848070792096,-0.2993809061785326,-0.3052112761506288,-0.3176109409648923,-0.29913338860192973,-0.30593140831557386,-0.29118633359816826,-0.26423752545618195,-0.2406605954393696,-0.21730837690107732,-0.17231254591989442,-0.1524492991283859,-0.1046488537760848,-0.08816905249570875,-0.07178269268407969,-0.06170575189303157,-0.04855409339871389,-0.04166570129143968,-0.03477856152883385,-0.024751888035145247,-0.014686355746503454,-0.007683753525169562,0.005633759951036543,-0.0027995565772119535,-0.008007333861118099,-0.022456809654376658,-0.03677502909267494,-0.04471036132278189,-0.06185361956880278,-0.06635424787390518,-0.067564604794316,-0.08419855062927026,-0.07880727056849665,-0.08258713590483072,-0.07681218382738988,-0.09268045402812092,-0.10522726485156894,-0.12693109224028365,-0.13594893898091798,-0.14164039698582093,-0.1377646230604257,-0.15552368680845519,-0.13875464562844855,-0.1467423655397495,-0.15452689401596403,-0.17147096720958657,-0.16949540300951021,-0.1985263648743277,-0.20864405096531463,-0.18737128781219659,-0.20647645886809726,-0.20980010542337207,-0.20046674765326633,-0.20656268329453858,-0.20313106907328532,-0.21201824573113656,-0.21450819411568733,-0.21996686015490283,-0.22527956048311498,-0.23045194819548537,-0.23860998628450322,-0.23415853151113722,-0.23894486858669897,-0.2436143630198287,-0.24505282049951232,-0.22454507328069978,-0.21953954101186413,-0.22692217637742246,-0.22797807900186579,-0.23207423907040187,-0.25481814178253237,-0.2494133774609641,-0.25330820718887676,-0.24778713883239809,-0.2609371111472123,-0.25220066972638694,-0.24342305935446287,-0.2346076915113079,-0.2319983954661818,-0.24183906513545878,-0.24541208325263858,-0.25208164852749426,-0.25249077863760305,-0.2591234497967029,-0.24390058569616097,-0.24114598151664562,-0.2508612659163245,-0.24184611341344397,-0.24842405353257882,-0.23939447345257892,-0.23972025106512343,-0.24316231887951048,-0.2497220457084718,-0.25628062362915777,-0.2378776468833276,-0.25067704292787935,-0.2572368292302916,-0.2513167110604115,-0.2578774583107558,-0.2363553110114217,-0.22731069070835058,-0.23386169154179745,-0.23728511851722575,-0.24693963250323966,-0.25346275397107143,-0.2537324035984793,-0.2508663363465725,-0.257342314452655,-0.25443579778235315,-0.2546233008028672,-0.24541909373000037,-0.23617816385875043,-0.2393757076837768,-0.23628499239890563,-0.24874190792925768,-0.24865922270762636,-0.24851217263567413,-0.2545354897956502,-0.24488202615323715,-0.23826655075270933,-0.22844225703731358,-0.2247633778509073,-0.2085024540256076,0.0,0.0,0.0,0.0,0.0,0.0,0.0,0.0,0.0,0.0,0.0,0.0,0.0,0.0,0.0,0.0,0.0,0.0,0.0,0.0,0.0,0.0,0.0,0.0,0.0,0.0,0.0,0.0,0.0,0.0,0.0,0.0,0.0,0.0,0.0,0.0,0.0,0.0,0.0,0.0,0.0,0.0,0.0,0.0,0.0,0.0,0.0,0.0,0.0,0.0,0.0,0.0,0.0,0.0,0.0,0.0,0.0,0.0,0.0,0.0,0.0,0.0,0.0,0.0,0.0,0.0,0.0,0.0,0.0,0.0,0.0,0.0,0.0,0.0,0.0,0.0,0.0,0.0,0.0,0.0,0.0,0.0,0.0,0.0,0.0,0.0,0.0,0.0,0.0,0.0,0.0,0.0,0.0,0.0,0.0,0.0,0.0,0.0,0.0,0.0,0.0,0.0,0.0,0.0,0.0,0.0,0.0,0.0,0.0,0.0,0.0,0.0,0.0,0.0,0.0,0.0,0.0,0.0,N
0.17633648244278016,0.3839069424571503,0.5975207560131864,0.7297809791260434,0.7400894216649032,0.20093837932321856,-0.3635242144228765,-0.6538069683629328,-0.47649422523698337,-0.3089744332040178,-0.17306529250193958,-0.10929985848071017,-0.07708639500087733,-0.04207425432838566,-0.032317613173947324,-0.029068696419196433,-0.010460606433714048,-0.007670914291666747,0.0011649999127349708,-0.008892422389098015,0.00274018752440347,0.017361231569736235,0.0006668672290947031,-0.016123901706326688,-0.017394305513034142,-0.02809131345785834,-0.029480264987854582,-0.030909384265109918,-0.019886595469048085,-0.012002693403770692,0.0021119777504947923,-0.011856884392403788,-0.013340063834673482,-0.021053296561284074,-0.03499229788510644,-0.05203371692854167,-0.05969466970939766,-0.05797404420070354,-0.05311206480682862,-0.04822970513793451,-0.04332871231987179,-0.04777242584421276,-0.058444411806305635,-0.06286863929626552,-0.07353161174418862,-0.1029207559225466,-0.11360119087838685,-0.11182153927436878,-0.12255228511012026,-0.12396161181976595,-0.12542031385716243,-0.12381900911544468,-0.13164991911954263,-0.130203897889327,-0.16005615246225735,-0.18377751130291142,-0.21698261664317203,-0.21288245732176614,-0.2276547290653413,-0.23635213702530752,-0.24834967047014564,-0.2387001898880789,-0.24174025215610934,-0.2512438764116,-0.24850431633799067,-0.255377055400584,-0.278116492132699,-0.2855338969585498,-0.2713992241379271,-0.29188279042744303,-0.3033062901774033,-0.31191038265182125,-0.30208903877609405,-0.2894321001107137,-0.27080303412599793,-0.24930172548773225,-0.23114604720887952,-0.22879410188345942,-0.2172616907461248,-0.19652629762305934,-0.179046352155799,-0.16479974460172872,-0.14752431045292735,-0.1178381002787639,-0.0882010549795367,-0.06171316812193861,-0.05083582578163495,-0.04306975427755372,-0.03527725926374134,-0.04616305899795456,-0.05699054972252257,-0.049024134550051474,-0.050332148469348886,-0.05154153571941841,-0.04952062378321023,-0.050499315950243234,-0.05134790976381354,-0.07077907822311899,-0.07134290030132626,-0.09047510539118797,-0.10008813305579714,-0.12201838592122852,-0.11881923027685048,-0.12792942663507897,-0.1337450027352547,-0.14250397462206676,-0.1604449273007623,-0.16260498484670133,-0.1427428984535304,-0.14454102172848038,-0.1711196503256003,-0.16943601990734808,-0.1769335079006999,-0.1936134989234012,-0.1913959431252026,-0.19524443663642713,-0.1926804729785512,-0.18058640296511533,-0.19952763222668665,-0.20582453868930792,-0.20572091807936924,-0.21482137051481462,-0.23937010936589362,-0.23568833382863785,-0.24434264639218484,-0.24973613381752044,-0.2456324946666459,-0.25075680747117934,-0.24015137975201717,-0.24190158952170282,-0.23104947535895695,-0.22944008316350267,-0.237077151006348,-0.24460391161498105,-0.26762523889317513,-0.265582446438663,-0.2571987130589563,-0.245594510207223,-0.25573078175166164,-0.23144331742496868,-0.23201447711510198,-0.2324813387209228,-0.23596284524050548,-0.23933761773168533,-0.24884493095231902,-0.2520029090003948,-0.25505074338867284,-0.25486660555074364,-0.25144815173499546,-0.25415293771682596,-0.250496757456169,-0.23111497501929498,-0.2334456524497555,-0.24188355753930305,-0.22834273409876527,-0.23338162361704212,-0.25075578441155616,-0.2492592567007151,-0.23200795963441267,-0.2395600320737199,-0.2282283280674,-0.22609030956947454,-0.22690135037275205,-0.23065732872318204,-0.22175323299774097,-0.20018512902012606,-0.20963199206726107,-0.20640747310835664,-0.2061091862198472,-0.22433495112637342,-0.21427882250104519,-0.21338033348586954,-0.1904348141040244,-0.17664173735376304,-0.17199887564925417,-0.1640235614433172,-0.1527142993181992,-0.13494981281435303,-0.11696989541498232,-0.10501490353979823,-0.09596525061593078,-0.08358186407200546,0.0,0.0,0.0,0.0,0.0,0.0,0.0,0.0,0.0,0.0,0.0,0.0,0.0,0.0,0.0,0.0,0.0,0.0,0.0,0.0,0.0,0.0,0.0,0.0,0.0,0.0,0.0,0.0,0.0,0.0,0.0,0.0,0.0,0.0,0.0,0.0,0.0,0.0,0.0,0.0,0.0,0.0,0.0,0.0,0.0,0.0,0.0,0.0,0.0,0.0,0.0,0.0,0.0,0.0,0.0,0.0,0.0,0.0,0.0,0.0,0.0,0.0,0.0,0.0,0.0,0.0,0.0,0.0,0.0,0.0,0.0,0.0,0.0,0.0,0.0,0.0,0.0,0.0,0.0,0.0,0.0,0.0,0.0,0.0,0.0,0.0,0.0,0.0,0.0,0.0,0.0,0.0,0.0,0.0,0.0,0.0,0.0,0.0,0.0,0.0,0.0,0.0,0.0,0.0,0.0,0.0,0.0,0.0,0.0,0.0,0.0,0.0,0.0,0.0,0.0,0.0,0.0,0.0,N
0.1953107329997123,0.34970843206464675,0.5787571750695673,0.8106563161138053,0.9174375028531906,0.44662643658231105,-0.1618802039435839,-0.5711557649024314,-0.5940435540155315,-0.48954453639925416,-0.3262946438751261,-0.18850781060737004,-0.0917461193846131,-0.02973055787509135,-0.01178388574980807,0.03389521213597324,0.05117872916894528,0.06818261403224934,0.07869913712466503,0.09211998329412274,0.08975341872126863,0.08722819600640469,0.09081078546849208,0.08492459333302993,0.09143371740072126,0.08227741541079359,0.07619622939169435,0.0700876620323122,0.0858091862312857,0.10777430344866856,0.09855345814610184,0.09247988624798442,0.08332251130159163,0.07108895398831283,0.055785180691408864,0.043655961882916094,0.05342534586162989,0.032051356941117604,0.03569746595719531,0.03003998612612402,0.040037588072875885,0.03448397956486676,0.016493615201144673,0.035982518618666415,0.014937250308840355,-0.0029693010623064453,-0.03022913417262421,-0.02005169695741707,-0.028614078007322657,-0.040329935320218585,-0.05833521316651538,-0.0701658988047259,-0.09144071298889556,-0.10033688001444507,-0.12183538380218031,-0.13099476652114184,-0.16839836964975272,-0.17478376187230138,-0.187615064463115,-0.21627497497725634,-0.2327041072653348,-0.24628561480335937,-0.2445613349654643,-0.23379430304063328,-0.26081015112100775,-0.2757084231164704,-0.28787117558002107,-0.30667778879032415,-0.31654222241375674,-0.31747381080041437,-0.3344369216915929,-0.3268651080416933,-0.30098664646679524,-0.28174346908092707,-0.2535098483683019,-0.2349789919145757,-0.22924254684787726,-0.2050700383818035,-0.17803406234616723,-0.15746702968704393,-0.14646130164665183,-0.12938849816028117,-0.10934193619963686,-0.07693472904127074,-0.0633432628618864,-0.04358120187806008,-0.042586309028562,-0.04473478510746362,-0.04376445149153857,-0.02405354774053084,-0.026144907249552846,-0.04065930307861282,-0.0426176222009618,-0.05384476512228539,-0.046243479192793174,-0.026039664929584705,-0.027542016803962538,-0.022656364583304944,-0.04257341159209049,-0.05608101336737517,-0.0631700363603144,-0.08255349595991979,-0.07990195302809722,-0.08641096414557431,-0.10519513658285803,-0.092566904097828,-0.09220497322589216,-0.10722624342924833,-0.11578680195433141,-0.130365622307075,-0.12912015203983024,-0.14637199953446267,-0.16339998889515367,-0.15524305283254136,-0.17494550998185526,-0.17882598355231677,-0.18560743190234028,-0.17657077363129134,-0.17043962030165036,-0.1859379383076012,-0.19498710038741937,-0.21319156780908038,-0.2187136812759267,-0.22091793931461895,-0.22916898456898305,-0.23411040112136852,-0.21702526906609804,-0.22784110504134863,-0.23224021578644258,-0.21462619817809975,-0.2218066977687041,-0.23818555247404896,-0.24192633164289348,-0.25487543191562595,-0.26767729189096234,-0.25849485858921356,-0.25229214485720036,-0.2553109308986871,-0.25507135353218635,-0.24533320828275357,-0.24481716379918814,-0.24104191365423405,-0.24648775389685645,-0.2549138213946724,-0.253838861042984,-0.25262230721683193,-0.24502200257752588,-0.24351649835040245,-0.2543439611172397,-0.24317999563863435,-0.24122373082546766,-0.24535213266907022,-0.25244219872769014,-0.24376994443669092,-0.2474138983917965,-0.2415294302716432,-0.24171429368564976,-0.25420567645297953,-0.2446782135826377,-0.23496948154228164,-0.24067667387495534,-0.22123347198981247,-0.2171987554467317,-0.2129679603517492,-0.21477806476960556,-0.20390463073434267,-0.2209071576568629,-0.21273940482372977,-0.19811983269113712,-0.1926468770942677,-0.19319802929736107,-0.17480966474893314,-0.15620121112674473,-0.14985206252668748,-0.15264107667637636,-0.13336581224265814,-0.12634847317329773,-0.0941472662527236,-0.08356636666665104,-0.069646148530189,-0.0648701891268873,-0.022439181613512327,0.0,0.0,0.0,0.0,0.0,0.0,0.0,0.0,0.0,0.0,0.0,0.0,0.0,0.0,0.0,0.0,0.0,0.0,0.0,0.0,0.0,0.0,0.0,0.0,0.0,0.0,0.0,0.0,0.0,0.0,0.0,0.0,0.0,0.0,0.0,0.0,0.0,0.0,0.0,0.0,0.0,0.0,0.0,0.0,0.0,0.0,0.0,0.0,0.0,0.0,0.0,0.0,0.0,0.0,0.0,0.0,0.0,0.0,0.0,0.0,0.0,0.0,0.0,0.0,0.0,0.0,0.0,0.0,0.0,0.0,0.0,0.0,0.0,0.0,0.0,0.0,0.0,0.0,0.0,0.0,0.0,0.0,0.0,0.0,0.0,0.0,0.0,0.0,0.0,0.0,0.0,0.0,0.0,0.0,0.0,0.0,0.0,0.0,0.0,0.0,0.0,0.0,0.0,0.0,0.0,0.0,0.0,0.0,0.0,0.0,0.0,0.0,0.0,0.0,0.0,0.0,0.0,0.0,N
0.33140615359755177,0.5236355645248922,0.7279582565919146,0.6198266090503,0.033818252762361445,-0.46848724220105986,-0.7311375317885717,-0.5326351108859033,-0.3534812194898019,-0.17491823575797025,-0.04058244534929259,0.01525009881163003,0.0550284659231669,0.09127723349468453,0.11779827455029673,0.1252715694328193,0.12933686068459221,0.14251182819497799,0.13986988416876112,0.14640566831895052,0.15590989722797682,0.15281072193568146,0.1340150706850825,0.11826926024692641,0.11807730241191716,0.1178595924528591,0.11451549200870681,0.12990412461134954,0.1234788313384737,0.1326960313005348,0.12636591911797168,0.11385937016975595,0.11078578753880924,0.09843058262048643,0.07991876546254278,0.0802150065411587,0.08371975712885404,0.07483182973754415,0.08163116112860702,0.07291230263708703,0.06739133750958859,0.06818175369783841,0.03783288258704243,0.03249843525482332,0.020965134861179735,0.009460687703064408,0.004211457566184573,-0.013519065629231497,-0.03438686321978829,-0.03344809358454087,-0.04504375443541314,-0.06295333200517125,-0.07783712638382265,-0.10219775084719648,-0.12357707829459345,-0.135758105541249,-0.15436583946948879,-0.16382385976109695,-0.18287839665937614,-0.19595391426875805,-0.21555698747329008,-0.21987226436787582,-0.24948852513922481,-0.2669897230593323,-0.2724020093308687,-0.29071127603514335,-0.3156990669928543,-0.316181235602869,-0.3233711320697225,-0.3247928048726091,-0.31420349547815385,-0.31967529076752355,-0.28814878046715336,-0.2757646525112659,-0.26377497009639495,-0.23342911480294598,-0.2314990964157564,-0.20491063975378712,-0.1723541178459357,-0.1431595210247973,-0.11729661970927374,-0.110336699254026,-0.08168812124413449,-0.046923508238808836,-0.024736510651783145,-0.015100590307470352,-0.00550952859506787,-0.008419857962861987,0.001153062317635345,-0.01421129480254113,-0.017049933193834438,-0.004223208060929351,-0.0006744145304433402,-0.009506674031615509,-0.011982952040274247,-0.011208794451359194,-0.010290924930621614,-0.040419036271439196,-0.04853864504005548,-0.05960126863206833,-0.07359783055895355,-0.07803939957318129,-0.08539950300010907,-0.0894313239963167,-0.09324945223511638,-0.08124807626142058,-0.08774533381138902,-0.10649761214211065,-0.11566110442178407,-0.12771489372126318,-0.1364175308341002,-0.14488876149362612,-0.16560948285976534,-0.1611379275812691,-0.16891750457445182,-0.18270927421774147,-0.17131310111114664,-0.178413940623282,-0.18529315705165705,-0.1888334533574425,-0.20151883676938825,-0.20775182054852198,-0.22001693553328622,-0.22895752122168245,-0.22521705471260617,-0.23064109209850403,-0.24211371219565214,-0.21907669498573523,-0.21457780585420544,-0.22550137751655752,-0.22377031860836014,-0.23123082569680303,-0.23540702947791034,-0.2487847310556178,-0.25264780608869986,-0.2563617991983688,-0.25993117366144364,-0.24463836275232934,-0.23544740284361387,-0.2354809545347331,-0.22914054721632907,-0.23202975665542827,-0.25039165477321723,-0.25926740493208505,-0.2742604812373399,-0.2641702642733039,-0.26019756809561395,-0.25297904468640053,-0.2549915335515961,-0.2506295697277218,-0.23988797312926533,-0.23212186571612667,-0.2335662090843535,-0.23797524746800214,-0.24222349356521386,-0.25254610371213976,-0.24085607610789064,-0.24146990528875695,-0.23254054422416612,-0.23278355814385202,-0.22035200533613794,-0.2170817983909479,-0.21360699972816533,-0.20680222126337044,-0.2122634362200679,-0.208144438181525,-0.2038011831949852,-0.20858982427107264,-0.20690514422359868,-0.20498351086973485,-0.1872201049195933,-0.1723325045564476,-0.16967799371994272,-0.14493145183895262,-0.13865291426735987,-0.12587875858662967,-0.10972769428525461,-0.09955943636262307,-0.06417180694096247,-0.05660873048897114,-0.04254948723424479,-0.02199649675144244,0.0,0.0,0.0,0.0,0.0,0.0,0.0,0.0,0.0,0.0,0.0,0.0,0.0,0.0,0.0,0.0,0.0,0.0,0.0,0.0,0.0,0.0,0.0,0.0,0.0,0.0,0.0,0.0,0.0,0.0,0.0,0.0,0.0,0.0,0.0,0.0,0.0,0.0,0.0,0.0,0.0,0.0,0.0,0.0,0.0,0.0,0.0,0.0,0.0,0.0,0.0,0.0,0.0,0.0,0.0,0.0,0.0,0.0,0.0,0.0,0.0,0.0,0.0,0.0,0.0,0.0,0.0,0.0,0.0,0.0,0.0,0.0,0.0,0.0,0.0,0.0,0.0,0.0,0.0,0.0,0.0,0.0,0.0,0.0,0.0,0.0,0.0,0.0,0.0,0.0,0.0,0.0,0.0,0.0,0.0,0.0,0.0,0.0,0.0,0.0,0.0,0.0,0.0,0.0,0.0,0.0,0.0,0.0,0.0,0.0,0.0,0.0,0.0,0.0,0.0,0.0,0.0,0.0,N
0.25727261827716197,0.4388639725920689,0.6607636866779757,0.8324446733879763,0.916418680433655,0.9999999999999999,0.45285142429455627,-0.14473343165198085,-0.5556863018030511,-0.7051897618375533,-0.5558394965762781,-0.38844797201347625,-0.20610068916637242,-0.06491313888320638,0.016441364120358848,0.06921176976171967,0.09656392057985325,0.12350346563622566,0.12511115573419185,0.1388698586653776,0.13361620956977016,0.1499494795723385,0.15046206879246793,0.1445473690599522,0.135356384989552,0.13539875660228645,0.12598022335609232,0.1352075891729297,0.11318082514910599,0.12232513860151883,0.11585698192281851,0.121875724823796,0.11543554368226544,0.1183917469552232,0.1182756435312316,0.10573691126410456,0.10574558364901127,0.09646694866761413,0.0747857195454375,0.07502727280239274,0.07223159976260912,0.06639866780474907,0.06064704407346272,0.06121392464404768,0.06497436884233421,0.06880189223895705,0.06332805062801788,0.05166361254681995,0.024436997768607416,0.022198307815926743,-0.0018692767268759514,-0.01657895871360157,-0.034427949871058794,-0.042953027840365865,-0.04841322746581492,-0.0477080106834554,-0.06893982114435673,-0.08404852667305271,-0.10553747000480426,-0.13655021548913515,-0.15526944859732236,-0.18980158748807435,-0.19648894363858108,-0.2096790824426309,-0.2200370440010463,-0.22446845492392606,-0.2510810654173066,-0.2655787688393506,-0.2742277037971278,-0.2770518977214121,-0.305274828532563,-0.3152324036171123,-0.3225388188603545,-0.3365614418759842,-0.34481912484885524,-0.31922126960491126,-0.2909518097607086,-0.2662262800615838,-0.25749648807592385,-0.23977008258666838,-0.2098951565031603,-0.19904202627504597,-0.17909742298014802,-0.1562705048768737,-0.10868898493606013,-0.08000520326232144,-0.05146822200974757,-0.01680873543021824,0.0021597943938977404,0.014824737833922519,0.02745201816707571,0.011984062156172037,-0.00659470201914103,0.009179650653135862,4.368357662495881e-05,-0.00590176236123699,-0.005518673053471257,-0.0050308383985347704,0.0049377346607018535,-0.0005603580551558907,-0.01839199561372043,-0.03294449752815157,-0.0504477193041126,-0.06465179497211654,-0.07242804261921057,-0.08000929058771444,-0.0749080511079549,-0.1008012490214319,-0.11088091263776323,-0.0989023858701546,-0.10542467505619879,-0.11484395473507675,-0.12403790444640027,-0.13300506580513766,-0.13862439931274814,-0.15649662978828496,-0.17726143773790787,-0.17283776721284783,-0.17754888583389014,-0.18203565418473566,-0.17693928279022786,-0.17474269994942096,-0.18480898834096832,-0.1884198071295681,-0.20741971104480975,-0.20124957821164752,-0.21359584980013321,-0.21638063039815233,-0.21896857761461572,-0.22448410762173662,-0.22981138221529473,-0.22871447984654444,-0.23367875925275222,-0.22910788579832986,-0.23684797745416727,-0.24754325824171164,-0.24871780701853569,-0.26533808537324305,-0.2693270663661362,-0.24508682640350216,-0.2487819398660313,-0.2554518295373312,-0.23701560133302446,-0.24963697172886987,-0.24339295708320027,-0.24324514089730048,-0.2429531412976563,-0.2643583853566476,-0.25441755643711395,-0.2505714995583451,-0.25905842000204465,-0.24555365285905786,-0.2443758081064791,-0.23055973205709757,-0.2384240604118461,-0.2398835415673978,-0.2442953528003981,-0.23293492216932923,-0.23388067308485957,-0.25024951309214977,-0.25083623331342253,-0.23875755189816214,-0.22961066801778307,-0.2202716330841608,-0.2107367867509609,-0.20724300221837239,-0.2160273366882221,-0.2121250627373118,-0.20801399380603425,-0.20993172317592307,-0.20851504869632181,-0.18816055902441275,-0.19254881150931888,-0.17799509931530016,-0.1600987641297434,-0.135738303692759,-0.10803305015532547,-0.07074229883379898,-0.06130882309867644,-0.06725310254159525,-0.04177436319050484,-0.047279683827963215,0.0,0.0,0.0,0.0,0.0,0.0,0.0,0.0,0.0,0.0,0.0,0.0,0.0,0.0,0.0,0.0,0.0,0.0,0.0,0.0,0.0,0.0,0.0,0.0,0.0,0.0,0.0,0.0,0.0,0.0,0.0,0.0,0.0,0.0,0.0,0.0,0.0,0.0,0.0,0.0,0.0,0.0,0.0,0.0,0.0,0.0,0.0,0.0,0.0,0.0,0.0,0.0,0.0,0.0,0.0,0.0,0.0,0.0,0.0,0.0,0.0,0.0,0.0,0.0,0.0,0.0,0.0,0.0,0.0,0.0,0.0,0.0,0.0,0.0,0.0,0.0,0.0,0.0,0.0,0.0,0.0,0.0,0.0,0.0,0.0,0.0,0.0,0.0,0.0,0.0,0.0,0.0,0.0,0.0,0.0,0.0,0.0,0.0,0.0,0.0,0.0,0.0,0.0,0.0,0.0,0.0,0.0,0.0,0.0,0.0,0.0,0.0,0.0,0.0,0.0,0.0,0.0,0.0,N
0.14892126302651776,0.253883706404503,0.4584463367017373,0.6845670517778869,0.8292386306988934,0.7676078017429583,0.19072419134560203,-0.3491928335440724,-0.6743499304305179,-0.6818288661542675,-0.34667582557728815,-0.17120930086051978,-0.05554003434253099,0.02845628197919542,0.06522021558795665,0.08911413175300514,0.08769585281356546,0.08596390116733393,0.0870737327802617,0.08793873889410447,0.08859083630594139,0.10466125748137767,0.11745736954112146,0.11764537444269724,0.12397143665723703,0.11149711420960906,0.10832548394442199,0.09887504700132205,0.09252411408343181,0.09240886661395081,0.07046179961434995,0.061017680567367005,0.0640875022560255,0.07968071468937438,0.0859638194864698,0.08606327105369088,0.08310385629274786,0.0708480982747482,0.06489825713285546,0.049653014978584764,0.05319227228041362,0.0505510671936773,0.05732551615103926,0.03918706739131833,0.03045001425046906,0.021744435909717252,0.016179816052879825,0.016864291956022515,0.00818349065320767,-0.003636892561624111,-0.037334029874025676,-0.05236253938904625,-0.07058206241832882,-0.085771428660364,-0.11043154424625343,-0.11026114499214895,-0.11024342582366556,-0.11664107638891363,-0.14507806863312206,-0.16749624844788952,-0.18703996011562912,-0.21621454395175885,-0.23632365666188265,-0.24739230322180708,-0.26816673633197824,-0.2705902302735197,-0.2765272772664011,-0.2766381933889912,-0.2990229239688824,-0.3031342803208674,-0.31394435340855253,-0.3314583635883058,-0.3244732364331969,-0.3117011027505524,-0.302486188587423,-0.28744543275460793,-0.2634309511199688,-0.22729106826111603,-0.1914735918889579,-0.15282543789683983,-0.12379479554351246,-0.10434953320787432,-0.0757369463230668,-0.056647429574839786,-0.04393084638287317,-0.025077418786595196,-0.0031793799045667925,0.01242952762705618,0.012414339383445716,0.02800137303082534,0.03425207150609583,0.021827493101514106,0.028190266306786116,0.02215730337829208,0.013106719859770466,0.0010546869941953085,-0.017104125804188713,-0.03199549764190948,-0.040486757009554286,-0.039446310105793886,-0.05070518725755413,-0.04305208288328649,-0.04768064775224909,-0.05522297313459612,-0.06255254680193173,-0.08838520836347596,-0.10463474320790814,-0.11441771857902283,-0.12085141623247031,-0.12081338630176253,-0.12678280539669468,-0.13875868930746793,-0.14425986315759376,-0.13704609318182592,-0.15456044253499396,-0.15624156158806907,-0.17017293500566982,-0.17139512756768305,-0.18487226862782918,-0.19500628632550104,-0.2018004151721129,-0.21461874816189475,-0.2178640180961039,-0.2084199168060628,-0.20501167475548504,-0.21388392355583757,-0.21944011717887535,-0.2248050695196585,-0.23622393356779153,-0.2443409829253102,-0.26164193802706415,-0.24444896031650587,-0.24892922678471022,-0.2501247660149996,-0.25427946043559857,-0.24579555638091108,-0.24339684436760514,-0.23148493891499436,-0.244384652996679,-0.2602573048750825,-0.2635046257940519,-0.2541281316271251,-0.257089410210719,-0.25054644409122845,-0.24697849305208353,-0.24014333933303533,-0.24564015823385135,-0.2385055800989127,-0.23121862807208388,-0.261219959331369,-0.24738276548397795,-0.2489878756969809,-0.25043135327978666,-0.25795051398638413,-0.2559410083511514,-0.25063888790240896,-0.23267841275075202,-0.22701573304343034,-0.21180409407782325,-0.2119998229015949,-0.19951604886501517,-0.19306905814818953,-0.20825517842699223,-0.20450743474552444,-0.2130236165774137,-0.20883815357263147,-0.2044280312633408,-0.18418864119048145,-0.17619837097422844,-0.17109354166241975,-0.15951083099661015,-0.14768829198401054,-0.1418644177632486,-0.11707621462147808,-0.11388538801006542,-0.0823685360076774,-0.05372808880013488,-0.04356630936835765,-0.02692384781413193,-0.013164558798412829,0.010187990218421983,0.027527272427189886,0.0,0.0,0.0,0.0,0.0,0.0,0.0,0.0,0.0,0.0,0.0,0.0,0.0,0.0,0.0,0.0,0.0,0.0,0.0,0.0,0.0,0.0,0.0,0.0,0.0,0.0,0.0,0.0,0.0,0.0,0.0,0.0,0.0,0.0,0.0,0.0,0.0,0.0,0.0,0.0,0.0,0.0,0.0,0.0,0.0,0.0,0.0,0.0,0.0,0.0,0.0,0.0,0.0,0.0,0.0,0.0,0.0,0.0,0.0,0.0,0.0,0.0,0.0,0.0,0.0,0.0,0.0,0.0,0.0,0.0,0.0,0.0,0.0,0.0,0.0,0.0,0.0,0.0,0.0,0.0,0.0,0.0,0.0,0.0,0.0,0.0,0.0,0.0,0.0,0.0,0.0,0.0,0.0,0.0,0.0,0.0,0.0,0.0,0.0,0.0,0.0,0.0,0.0,0.0,0.0,0.0,0.0,0.0,0.0,0.0,0.0,0.0,0.0,0.0,0.0,0.0,0.0,0.0,N
0.18616035085240545,0.2824097678485239,0.4688752596787211,0.6799920669659633,0.8439514510522291,0.963824802262997,0.8523459382978459,0.29104063395118485,-0.2739685315618657,-0.7273027245281349,-0.6790031226086612,-0.5627977586549746,-0.2070551459934568,-0.06415357010099099,0.009486415561383077,0.05759698510903061,0.10830803449187437,0.11486316735993468,0.13035056364336167,0.14857281768928443,0.1633306344064414,0.168422738153911,0.16076599756158644,0.14039540006965673,0.1323054804792197,0.12092625200453955,0.14060900639984342,0.11649624176797668,0.11101725430175796,0.12107534922649549,0.1186104501191858,0.10988282219965168,0.11675189299768612,0.10179152936178726,0.09621814610570456,0.08756363086614916,0.09456013859911538,0.09225536822305203,0.07753669843705252,0.06913119924470718,0.06704312362319148,0.06815494259855365,0.05374656124785965,0.07374067559817887,0.07509192114276986,0.04843610751976157,0.018729615927249588,0.007807149087661558,-0.015541297972722024,-0.007642240319532062,-0.018429311284238387,-0.03543337148150974,-0.03994602984591311,-0.056942736364549495,-0.08643839010347412,-0.09100645978592964,-0.10810598625818535,-0.13463421109552176,-0.1706092716384187,-0.18796808225584496,-0.21169131831847848,-0.2261973711178968,-0.24398659866068434,-0.23075648650876343,-0.23644990043471625,-0.2548462151422099,-0.27972486077098135,-0.28926358004839714,-0.3209208314475246,-0.32166534974998884,-0.31958406213281154,-0.3333962577619729,-0.33501140220003284,-0.2994510030004832,-0.2578918326315223,-0.22902493730369006,-0.22217978370061164,-0.18740215748518513,-0.16522373078415972,-0.13065230559833926,-0.11797986907705815,-0.07101323311649638,-0.06148800039096117,-0.04881350625005795,-0.03608279682278154,-0.001428322979699026,0.01773263355542254,0.0401451354869134,0.05023073446521997,0.03240954372953969,0.03350415987099692,0.03169141033713746,0.014507313197811567,-0.018032715181519637,-0.0035105964663615374,-0.010557741445674895,0.0014001702935398652,0.0042919048571293805,-0.011233824678131277,-0.023327578284977474,-0.01950169328126869,-0.018471614128130337,-0.042074124073351676,-0.03414218645325906,-0.03523594881544573,-0.05783483819611737,-0.06137596677481175,-0.061460970214501504,-0.042490428888311504,-0.03566883269346588,-0.04411990927458884,-0.03664626091256906,-0.04757567777505026,-0.048833032292771944,-0.05602697723747649,-0.059805570024847876,-0.05705822284037282,-0.05091568374637678,-0.050750050418759796,-0.03473241754498932,-0.03407824011034802,-0.03632125658978261,-0.025876074143052596,-0.03084113654302617,-0.02315242089571859,-0.043391357197322206,-0.029173943252064294,-0.017963553098831492,0.002698525160570897,0.0015870750227115482,0.003639203778015687,0.02755037587684489,0.06081281379238451,0.09403756316992745,0.13031492234335978,0.2600990428408201,0.46775543420527255,0.7002046844841922,0.9823687705012755,0.949140104176405,0.544304610246336,-0.08554486031696207,-0.5816459103001608,-0.7786892662438323,-0.43956934633308425,-0.23822810328969188,-0.06853959438374929,0.03521313913945878,0.09490973601910174,0.12618802402396467,0.13844372146946343,0.10986869194973647,0.11849922466061713,0.08948008990053768,0.09772376104504643,0.10581387643956208,0.10753433422071212,0.10914806020840434,0.09819501320795215,0.10589614913261641,0.10418692165340693,0.08996260615148494,0.06947731521650724,0.07394506281599666,0.06281370982548135,0.02985169441474783,0.0031480877046056177,-0.004810419175972053,-0.003379778790932292,0.0012030412718605499,-0.006660743190811502,-0.017609571206475882,-0.006682093136723355,0.0011587132662027044,0.002790056241862904,-0.0049120994493203896,-0.037553835121012014,-0.05145867163033874,-0.05911475472287753,-0.08237180636509434,-0.08691691566319923,-0.1008419697411134,0.0,0.0,0.0,0.0,0.0,0.0,0.0,0.0,0.0,0.0,0.0,0.0,0.0,0.0,0.0,0.0,0.0,0.0,0.0,0.0,0.0,0.0,0.0,0.0,0.0,0.0,0.0,0.0,0.0,0.0,0.0,0.0,0.0,0.0,0.0,0.0,0.0,0.0,0.0,0.0,0.0,0.0,0.0,0.0,0.0,0.0,0.0,0.0,0.0,0.0,0.0,0.0,0.0,0.0,0.0,0.0,0.0,0.0,0.0,0.0,0.0,0.0,0.0,0.0,0.0,0.0,0.0,0.0,0.0,0.0,0.0,0.0,0.0,0.0,0.0,0.0,0.0,0.0,0.0,0.0,0.0,0.0,0.0,0.0,0.0,0.0,0.0,0.0,0.0,0.0,0.0,0.0,0.0,0.0,0.0,0.0,0.0,0.0,0.0,0.0,0.0,0.0,0.0,0.0,0.0,0.0,0.0,0.0,0.0,0.0,0.0,0.0,0.0,0.0,0.0,0.0,0.0,0.0,N
0.46775543420527255,0.7002046844841922,0.9823687705012755,0.949140104176405,0.544304610246336,-0.08554486031696207,-0.5816459103001608,-0.7786892662438323,-0.43956934633308425,-0.23822810328969188,-0.06853959438374929,0.03521313913945878,0.09490973601910174,0.12618802402396467,0.13844372146946343,0.10986869194973647,0.11849922466061713,0.08948008990053768,0.09772376104504643,0.10581387643956208,0.10753433422071212,0.10914806020840434,0.09819501320795215,0.10589614913261641,0.10418692165340693,0.08996260615148494,0.06947731521650724,0.07394506281599666,0.06281370982548135,0.02985169441474783,0.0031480877046056177,-0.004810419175972053,-0.003379778790932292,0.0012030412718605499,-0.006660743190811502,-0.017609571206475882,-0.006682093136723355,0.0011587132662027044,0.002790056241862904,-0.0049120994493203896,-0.037553835121012014,-0.05145867163033874,-0.05911475472287753,-0.08237180636509434,-0.08691691566319923,-0.1008419697411134,-0.11479727550904897,-0.11631367474338242,-0.1272448576248283,-0.11952199269836242,-0.15244241103788367,-0.1511355435818809,-0.17802003556293616,-0.21126965176340398,-0.2384191003797086,-0.25324366816470445,-0.25263888607087426,-0.2615815304141132,-0.2832065025750904,-0.28632518500980264,-0.28654855072574154,-0.2870030934254495,-0.32201358682059644,-0.32917489845852255,-0.3115989914224107,-0.30359205930153654,-0.2708098403965636,-0.23194612415087756,-0.19945209187977098,-0.13585582510055008,-0.08793100821371463,-0.06188930210194929,-0.014019987925532384,0.01826156106767396,0.0037792012632926753,0.00808161694988524,0.028071866424146608,0.03881033962220537,0.034077240092637684,0.04509372296145264,0.05003615892039154,0.042680448554802186,0.05112318928880988,0.04729595248667168,0.028090405087594583,0.009117931522803102,-0.01585285218098542,-0.034333421614931636,-0.0556778010584168,-0.06427949193281751,-0.06325414661342821,-0.08380012124968247,-0.08535212538600542,-0.09911025527163475,-0.09699164449914002,-0.11019794237699893,-0.13560936623589398,-0.14826542983545776,-0.1419273982314146,-0.15091961476217258,-0.1502831772331077,-0.14938185124223785,-0.14509909421903233,-0.1436794501979516,-0.15448817401311526,-0.1588092523009365,-0.16288872581899894,-0.1573720859164033,-0.15474663745110304,-0.16125973888707656,-0.1706784182024525,-0.17364993615267815,-0.15770173917712277,-0.16028482090398388,-0.14708605611848777,-0.13995633083938194,-0.1513864375120294,-0.1657859189996836,-0.17692539474765773,-0.17857589295724163,-0.18010978793611598,-0.16905840853115822,-0.15167461238322955,-0.13733184813627852,-0.11356265347985373,-0.08350111017762732,-0.05964256569425147,-0.03888219462660639,-0.005635316606081298,0.0650423012900116,0.12320891584596588,0.2281281722835467,0.41410027321789955,0.6530190707465655,0.8200489518838329,0.9369991355123163,0.6606102652659478,0.05012268273046466,-0.5044867586320861,-0.613242693658643,-0.4134589119853328,-0.23898697362043428,-0.12100341087426861,-0.059482812712274485,-0.023198414672822493,0.0034746143864157752,0.026799388085594456,0.015595381671521802,0.01668566394745763,0.008247618643893562,-0.003460904136543458,-0.005942935995773668,-0.00542392057412025,-0.011250708092356593,0.004671023977477762,0.004910245930581814,0.008198241993517263,-0.010417746377775872,-0.0072473869938508295,-0.013486299891506376,-0.02288892324147518,-0.02609066685900388,-0.032449255457645876,-0.03572252793539926,-0.029669398629556448,-0.02989123121725154,-0.03326928705684609,-0.03668591573611715,-0.043264935401095356,-0.06861201289203869,-0.08465105587628002,-0.10386944857092092,-0.12315439657556206,-0.15187461826636736,-0.16507726922794563,-0.18149276389120578,-0.1917701415002552,-0.2271213534452148,-0.24075366471210563,-0.25763901038560005,-0.2653069761529158,-0.28560837272628953,0.0,0.0,0.0,0.0,0.0,0.0,0.0,0.0,0.0,0.0,0.0,0.0,0.0,0.0,0.0,0.0,0.0,0.0,0.0,0.0,0.0,0.0,0.0,0.0,0.0,0.0,0.0,0.0,0.0,0.0,0.0,0.0,0.0,0.0,0.0,0.0,0.0,0.0,0.0,0.0,0.0,0.0,0.0,0.0,0.0,0.0,0.0,0.0,0.0,0.0,0.0,0.0,0.0,0.0,0.0,0.0,0.0,0.0,0.0,0.0,0.0,0.0,0.0,0.0,0.0,0.0,0.0,0.0,0.0,0.0,0.0,0.0,0.0,0.0,0.0,0.0,0.0,0.0,0.0,0.0,0.0,0.0,0.0,0.0,0.0,0.0,0.0,0.0,0.0,0.0,0.0,0.0,0.0,0.0,0.0,0.0,0.0,0.0,0.0,0.0,0.0,0.0,0.0,0.0,0.0,0.0,0.0,0.0,0.0,0.0,0.0,0.0,0.0,0.0,0.0,0.0,0.0,0.0,N
0.2281281722835467,0.41410027321789955,0.6530190707465655,0.8200489518838329,0.9369991355123163,0.6606102652659478,0.05012268273046466,-0.5044867586320861,-0.613242693658643,-0.4134589119853328,-0.23898697362043428,-0.12100341087426861,-0.059482812712274485,-0.023198414672822493,0.0034746143864157752,0.026799388085594456,0.015595381671521802,0.01668566394745763,0.008247618643893562,-0.003460904136543458,-0.005942935995773668,-0.00542392057412025,-0.011250708092356593,0.004671023977477762,0.004910245930581814,0.008198241993517263,-0.010417746377775872,-0.0072473869938508295,-0.013486299891506376,-0.02288892324147518,-0.02609066685900388,-0.032449255457645876,-0.03572252793539926,-0.029669398629556448,-0.02989123121725154,-0.03326928705684609,-0.03668591573611715,-0.043264935401095356,-0.06861201289203869,-0.08465105587628002,-0.10386944857092092,-0.12315439657556206,-0.15187461826636736,-0.16507726922794563,-0.18149276389120578,-0.1917701415002552,-0.2271213534452148,-0.24075366471210563,-0.25763901038560005,-0.2653069761529158,-0.28560837272628953,-0.2998297407568229,-0.2798934082973938,-0.2663611050116576,-0.25922890479108085,-0.252250696028898,-0.2485398522269247,-0.2449689018775978,-0.26649206569928036,-0.2787798036697853,-0.266221966703896,-0.28497000568075564,-0.27260604925530574,-0.26655502546368326,-0.23559511138291842,-0.24834903289435722,-0.242391233987901,-0.22706064954103394,-0.19297504850329023,-0.17131488413078966,-0.14957810195616145,-0.15270541193788847,-0.13699364441922718,-0.10554308304532423,-0.07705555722646881,-0.0639932091239894,-0.06321804025920716,-0.046631380996500965,-0.03293846243899848,-0.0002829382942330927,0.010786492545831139,0.012763271280845367,0.021259746101984833,0.011324381774235337,0.014167874050334595,0.004836049403485643,-0.0010639922937889512,-0.0004072074730197828,-0.005670777979140562,0.011229460617641907,0.015972491224267804,0.011678386229505455,0.007706297693212294,0.007173684378625977,-0.002404264215869034,-0.0023116460502961844,-0.014396366673191135,-0.010584380007493788,-0.003365387604143788,0.0010101214413644755,-0.006829761434655329,-0.0019360028269243545,-0.018644546448540966,-0.019527995998314507,-0.029564071829064648,-0.03316905241494192,-0.04596229219089487,-0.05236223133659598,-0.058629708172738354,-0.05542554384663739,-0.033411504042639484,-0.01133210248897043,-0.014173320761024844,-0.007638547877644036,-0.001115120210457149,0.01472961803342554,0.05858768636559891,0.10546701243017598,0.15221538351417635,0.2393616024178058,0.37311028847363614,0.5253414418155115,0.6679319593402616,0.7852356679901703,0.8834432076290627,0.740965555759077,0.2048524043910298,-0.7592839498143872,-0.8067056867191919,-0.3836203721226451,-0.15459635347872988,-0.010379795161414879,0.07715750990300407,0.12054158995384245,0.15725843863376315,0.13742664812426736,0.1266101351827585,0.10924572789930498,0.12593195859978124,0.11741922018997691,0.10870140068839745,0.10292917306496574,0.10637162770658831,0.10969510962094176,0.11604498871022623,0.10360325983905411,0.10359347632401744,0.09419405941734227,0.07230286637565236,0.050417038847495654,0.05975331093886782,0.04728156452691712,0.05045590471386385,0.04744518892692123,0.03513797628555848,0.035382939874196995,0.016983963039309435,-0.0013333077199656207,-0.035166733215021145,-0.04707202891378737,-0.07449073876550599,-0.11118262851102578,-0.1321871374657223,-0.14374637281298597,-0.15522321709565,-0.15413968154334545,-0.162340423660334,-0.17358878045201453,-0.18164851490723918,-0.20524534863299818,-0.22566294936457637,-0.24290638795343855,-0.25386064601231584,-0.2554107283075713,-0.25380163469873324,-0.22095543234685738,-0.20055816130341106,-0.21133440565180303,-0.23456660105550445,-0.23593637114373717,-0.2591303696372536,-0.26358994580244094,0.0,0.0,0.0,0.0,0.0,0.0,0.0,0.0,0.0,0.0,0.0,0.0,0.0,0.0,0.0,0.0,0.0,0.0,0.0,0.0,0.0,0.0,0.0,0.0,0.0,0.0,0.0,0.0,0.0,0.0,0.0,0.0,0.0,0.0,0.0,0.0,0.0,0.0,0.0,0.0,0.0,0.0,0.0,0.0,0.0,0.0,0.0,0.0,0.0,0.0,0.0,0.0,0.0,0.0,0.0,0.0,0.0,0.0,0.0,0.0,0.0,0.0,0.0,0.0,0.0,0.0,0.0,0.0,0.0,0.0,0.0,0.0,0.0,0.0,0.0,0.0,0.0,0.0,0.0,0.0,0.0,0.0,0.0,0.0,0.0,0.0,0.0,0.0,0.0,0.0,0.0,0.0,0.0,0.0,0.0,0.0,0.0,0.0,0.0,0.0,0.0,0.0,0.0,0.0,0.0,0.0,0.0,0.0,0.0,0.0,0.0,0.0,0.0,0.0,0.0,0.0,0.0,0.0,N
0.8834432076290627,0.740965555759077,0.2048524043910298,-0.7592839498143872,-0.8067056867191919,-0.3836203721226451,-0.15459635347872988,-0.010379795161414879,0.07715750990300407,0.12054158995384245,0.15725843863376315,0.13742664812426736,0.1266101351827585,0.10924572789930498,0.12593195859978124,0.11741922018997691,0.10870140068839745,0.10292917306496574,0.10637162770658831,0.10969510962094176,0.11604498871022623,0.10360325983905411,0.10359347632401744,0.09419405941734227,0.07230286637565236,0.050417038847495654,0.05975331093886782,0.04728156452691712,0.05045590471386385,0.04744518892692123,0.03513797628555848,0.035382939874196995,0.016983963039309435,-0.0013333077199656207,-0.035166733215021145,-0.04707202891378737,-0.07449073876550599,-0.11118262851102578,-0.1321871374657223,-0.14374637281298597,-0.15522321709565,-0.15413968154334545,-0.162340423660334,-0.17358878045201453,-0.18164851490723918,-0.20524534863299818,-0.22566294936457637,-0.24290638795343855,-0.25386064601231584,-0.2554107283075713,-0.25380163469873324,-0.22095543234685738,-0.20055816130341106,-0.21133440565180303,-0.23456660105550445,-0.23593637114373717,-0.2591303696372536,-0.26358994580244094,-0.2680391211280442,-0.2787195976455839,-0.2862701366481418,-0.2875669343120012,-0.2732421099572073,-0.24952497311869976,-0.2257625899663914,-0.19570084477581684,-0.17804731957160153,-0.15718767085457447,-0.13622909423188978,-0.10579844261968485,-0.05964332408375597,-0.032074637307519416,0.004999751747827963,0.032867920665325734,0.05465807461059308,0.07661721533363236,0.08002924473203327,0.09609962168467323,0.09362819504746367,0.0788554788073384,0.08922226722026966,0.07792236012118275,0.0699124415679423,0.05270518500633764,0.0855762446542252,0.0811504388687126,0.07997906343201311,0.07892899015475452,0.05614426160932412,0.06465205466699248,0.06387206950539315,0.05066482867101735,0.0780528726364913,0.12729268284487893,0.20148050305621967,0.2943501070528911,0.45891679711079647,0.614024625858714,0.7752402705521796,0.8957221284468576,0.7819741482622352,0.1219270152583602,-0.5228381221846354,-0.7529922907043128,-0.431277046545406,-0.20355577871009167,-0.03547112402321942,0.038689691373394564,0.09384533234253217,0.10506667710707263,0.11294706777839159,0.10815490569597058,0.0969577828261734,0.08874171128482211,0.09289098071325269,0.09382661048220481,0.08844871226017681,0.08613648533527746,0.09626744906648221,0.10325586556829991,0.06967288766551205,0.04545347528564042,0.03372802316281848,0.01266387220176296,0.007229936124881431,0.011191841554063053,0.021434139885503467,0.016118897213267036,0.020209813918525665,-0.0006145014792195425,-0.015152608394379097,-0.014045691121337661,-0.034739075020388255,-0.05227528071776902,-0.06353928309682466,-0.056056437521392416,-0.07663679292607842,-0.06600460292388177,-0.08345252279263399,-0.10402875301464251,-0.1246237047620823,-0.129647712310701,-0.16903589530402371,-0.21159879898406336,-0.23862815553716232,-0.24701686988903257,-0.2648598776057656,-0.26408854188262126,-0.2696759566148431,-0.2816320544355885,-0.2874838703497628,-0.2872359947811955,-0.29337001765012777,-0.2902819699971306,-0.2998059120516617,-0.2938486655289529,-0.2786342713135963,-0.2666227679119367,-0.22658845906658517,-0.2084289992315848,-0.1621957920983809,-0.14402718962398545,-0.11957621079482345,-0.09505897407120467,-0.06421144327972228,-0.030130940466346706,-0.002156101524520504,0.047815733936146854,0.06676083555245921,0.06093776977859161,0.061565120455438604,0.07489834017300567,0.07286915130498017,0.07109044458159686,0.05709172121573486,0.03400188233027185,0.02054929895170049,0.007379146925503011,0.003856453322446607,-0.01497721407315214,-0.008557373644085042,-0.020566069030726553,0.0,0.0,0.0,0.0,0.0,0.0,0.0,0.0,0.0,0.0,0.0,0.0,0.0,0.0,0.0,0.0,0.0,0.0,0.0,0.0,0.0,0.0,0.0,0.0,0.0,0.0,0.0,0.0,0.0,0.0,0.0,0.0,0.0,0.0,0.0,0.0,0.0,0.0,0.0,0.0,0.0,0.0,0.0,0.0,0.0,0.0,0.0,0.0,0.0,0.0,0.0,0.0,0.0,0.0,0.0,0.0,0.0,0.0,0.0,0.0,0.0,0.0,0.0,0.0,0.0,0.0,0.0,0.0,0.0,0.0,0.0,0.0,0.0,0.0,0.0,0.0,0.0,0.0,0.0,0.0,0.0,0.0,0.0,0.0,0.0,0.0,0.0,0.0,0.0,0.0,0.0,0.0,0.0,0.0,0.0,0.0,0.0,0.0,0.0,0.0,0.0,0.0,0.0,0.0,0.0,0.0,0.0,0.0,0.0,0.0,0.0,0.0,0.0,0.0,0.0,0.0,0.0,0.0,N
0.8957221284468576,0.7819741482622352,0.1219270152583602,-0.5228381221846354,-0.7529922907043128,-0.431277046545406,-0.20355577871009167,-0.03547112402321942,0.038689691373394564,0.09384533234253217,0.10506667710707263,0.11294706777839159,0.10815490569597058,0.0969577828261734,0.08874171128482211,0.09289098071325269,0.09382661048220481,0.08844871226017681,0.08613648533527746,0.09626744906648221,0.10325586556829991,0.06967288766551205,0.04545347528564042,0.03372802316281848,0.01266387220176296,0.007229936124881431,0.011191841554063053,0.021434139885503467,0.016118897213267036,0.020209813918525665,-0.0006145014792195425,-0.015152608394379097,-0.014045691121337661,-0.034739075020388255,-0.05227528071776902,-0.06353928309682466,-0.056056437521392416,-0.07663679292607842,-0.06600460292388177,-0.08345252279263399,-0.10402875301464251,-0.1246237047620823,-0.129647712310701,-0.16903589530402371,-0.21159879898406336,-0.23862815553716232,-0.24701686988903257,-0.2648598776057656,-0.26408854188262126,-0.2696759566148431,-0.2816320544355885,-0.2874838703497628,-0.2872359947811955,-0.29337001765012777,-0.2902819699971306,-0.2998059120516617,-0.2938486655289529,-0.2786342713135963,-0.2666227679119367,-0.22658845906658517,-0.2084289992315848,-0.1621957920983809,-0.14402718962398545,-0.11957621079482345,-0.09505897407120467,-0.06421144327972228,-0.030130940466346706,-0.002156101524520504,0.047815733936146854,0.06676083555245921,0.06093776977859161,0.061565120455438604,0.07489834017300567,0.07286915130498017,0.07109044458159686,0.05709172121573486,0.03400188233027185,0.02054929895170049,0.007379146925503011,0.003856453322446607,-0.01497721407315214,-0.008557373644085042,-0.020566069030726553,-0.03852296380010056,-0.03122766471710614,-0.03612519302768338,-0.03449807655296641,-0.05131268070751574,-0.04601226530035096,-0.03732484484427237,-0.059580434524118514,-0.07222533395666983,-0.056548172809015806,-0.07496362115567037,-0.06507935963351286,-0.051869492814528184,-0.03534744868300635,-0.031128626609137705,-0.026747699425413857,-0.02846161366411623,-0.026927426756808204,-0.037764880389025035,-0.014190847103568771,-0.024870596858077965,-0.01678282056874339,-0.018032486332866138,-0.006802538266279218,0.016881541725134175,0.02803147918614196,0.026619266444700362,0.0718992915674106,0.21376397601029423,0.4240991788083792,0.5811824942044849,0.6818557054231907,0.6667928771189788,0.31129290067562865,-0.3160512348745324,-1.0,-0.35835307635291547,-0.16647965448454546,-0.0686427471012665,0.006956154333416509,0.0603500958643155,0.07284965941254767,0.06632646938744052,0.06889094548356967,0.06496915754377253,0.05770678492793868,0.053368143074157215,0.03325443232455194,0.028588526247896873,0.017548518092736942,0.012633305184558408,0.013859664982451114,0.011882478264731544,0.00983611326405387,0.004613243895991881,-0.003774544180460221,-0.012196727448541167,-0.020644199813899228,-0.0478302235414686,-0.053185421779143455,-0.05542518979088473,-0.07014569598955764,-0.06302089159471325,-0.06524978558372413,-0.07683032341949134,-0.08216036895376663,-0.09372042705828354,-0.11151103505026838,-0.12929310211126654,-0.134587820334103,-0.14299876051769092,-0.15764926376917923,-0.15982180362057596,-0.1900830766247545,-0.2016346568435021,-0.19760158336173161,-0.20607071365311205,-0.2145665729447061,-0.22933508545293105,-0.23478094998000157,-0.255871538262538,-0.2551703136268113,-0.26700451564866523,-0.2695370837779557,-0.26901089554744007,-0.2685465398832194,-0.27438276431173725,-0.26779473158754075,-0.26437723883357245,-0.25788176843222527,-0.25765919600185644,-0.28242001024735874,-0.27598897164646025,-0.2601924920407405,-0.24437348590709929,-0.22851306963287774,-0.2001115809853249,-0.149789651461472,-0.09624993717204405,0.0,0.0,0.0,0.0,0.0,0.0,0.0,0.0,0.0,0.0,0.0,0.0,0.0,0.0,0.0,0.0,0.0,0.0,0.0,0.0,0.0,0.0,0.0,0.0,0.0,0.0,0.0,0.0,0.0,0.0,0.0,0.0,0.0,0.0,0.0,0.0,0.0,0.0,0.0,0.0,0.0,0.0,0.0,0.0,0.0,0.0,0.0,0.0,0.0,0.0,0.0,0.0,0.0,0.0,0.0,0.0,0.0,0.0,0.0,0.0,0.0,0.0,0.0,0.0,0.0,0.0,0.0,0.0,0.0,0.0,0.0,0.0,0.0,0.0,0.0,0.0,0.0,0.0,0.0,0.0,0.0,0.0,0.0,0.0,0.0,0.0,0.0,0.0,0.0,0.0,0.0,0.0,0.0,0.0,0.0,0.0,0.0,0.0,0.0,0.0,0.0,0.0,0.0,0.0,0.0,0.0,0.0,0.0,0.0,0.0,0.0,0.0,0.0,0.0,0.0,0.0,0.0,0.0,N
0.6667928771189788,0.31129290067562865,-0.3160512348745324,-1.0,-0.35835307635291547,-0.16647965448454546,-0.0686427471012665,0.006956154333416509,0.0603500958643155,0.07284965941254767,0.06632646938744052,0.06889094548356967,0.06496915754377253,0.05770678492793868,0.053368143074157215,0.03325443232455194,0.028588526247896873,0.017548518092736942,0.012633305184558408,0.013859664982451114,0.011882478264731544,0.00983611326405387,0.004613243895991881,-0.003774544180460221,-0.012196727448541167,-0.020644199813899228,-0.0478302235414686,-0.053185421779143455,-0.05542518979088473,-0.07014569598955764,-0.06302089159471325,-0.06524978558372413,-0.07683032341949134,-0.08216036895376663,-0.09372042705828354,-0.11151103505026838,-0.12929310211126654,-0.134587820334103,-0.14299876051769092,-0.15764926376917923,-0.15982180362057596,-0.1900830766247545,-0.2016346568435021,-0.19760158336173161,-0.20607071365311205,-0.2145665729447061,-0.22933508545293105,-0.23478094998000157,-0.255871538262538,-0.2551703136268113,-0.26700451564866523,-0.2695370837779557,-0.26901089554744007,-0.2685465398832194,-0.27438276431173725,-0.26779473158754075,-0.26437723883357245,-0.25788176843222527,-0.25765919600185644,-0.28242001024735874,-0.27598897164646025,-0.2601924920407405,-0.24437348590709929,-0.22851306963287774,-0.2001115809853249,-0.149789651461472,-0.09624993717204405,-0.04259458991728765,-0.0137679082002449,0.005847366687681099,0.01002593434214677,0.008142220484196216,0.006449164410071484,0.0018378311906647737,0.009919207622825887,0.011980848923532794,0.004910016075946433,0.001193665521204229,-0.0022835015830013905,-0.014878424951994318,-0.027228078911810893,-0.04557159412972722,-0.07302900420863795,-0.07215877065477769,-0.0928857885825713,-0.0946500703209639,-0.08993577781802509,-0.10058843328571992,-0.08605037475152513,-0.0962504346635209,-0.09999308905496251,-0.11912694675499935,-0.10373678629306021,-0.12871597263175447,-0.11918905647652059,-0.12820932563040666,-0.12146514856911009,-0.11144846955065049,-0.10753166458331742,-0.09724639985171457,-0.0774856373963701,-0.09194606985476306,-0.08759908322544196,-0.08630160809158319,-0.10991137472651882,-0.1178829473899409,-0.12271495483273531,-0.11818548241927124,-0.06687125352912979,0.0811311561381825,0.2945991037053324,0.46430333771467025,0.6026996418002402,0.6535958709835379,0.4172664930625837,-0.16560959239939255,-0.7081684086903244,-0.4304013639313756,-0.2496441498706037,-0.1502757018943432,-0.07923237190584922,-0.0489751689161691,-0.05012455319315223,-0.042099991718789476,-0.04360571211949024,-0.05462577754992548,-0.04082308611663346,-0.03338567128356612,-0.03542081259878957,-0.02507527149111652,-0.021059451895129505,-0.029604075616391584,-0.028859209362750854,-0.03753859143151064,-0.033794471585237545,-0.05194372455116697,-0.05453972574990107,-0.050939807712369306,-0.053622466566002946,-0.050105592548297634,-0.040388839908221896,-0.04943443892882182,-0.04292188205290293,-0.055176021646936274,-0.07371975401017572,-0.08919713585689742,-0.09849349020729609,-0.10161513039101788,-0.11729030661318077,-0.12368541676456117,-0.12704929745600144,-0.13675160316639046,-0.14968179637546702,-0.15336929766185015,-0.16966620158589346,-0.1767422930132134,-0.1902101294786932,-0.21320182805308863,-0.24260939522296246,-0.24412302305572356,-0.2489570990581061,-0.250883644492598,-0.2655159359900475,-0.26166395311755897,-0.267419741035791,-0.27655181815057295,-0.2828268140181963,-0.2737682045789724,-0.28993948961423693,-0.29389671171278764,-0.29811506299070656,-0.28386334530673857,-0.2792085347578836,-0.2591707800867032,-0.2299692073464031,-0.20094203600150082,-0.16582658030825564,-0.15268257220346293,-0.14588737164276838,-0.11733801841629404,-0.10445623136360521,-0.10098159978592697,0.0,0.0,0.0,0.0,0.0,0.0,0.0,0.0,0.0,0.0,0.0,0.0,0.0,0.0,0.0,0.0,0.0,0.0,0.0,0.0,0.0,0.0,0.0,0.0,0.0,0.0,0.0,0.0,0.0,0.0,0.0,0.0,0.0,0.0,0.0,0.0,0.0,0.0,0.0,0.0,0.0,0.0,0.0,0.0,0.0,0.0,0.0,0.0,0.0,0.0,0.0,0.0,0.0,0.0,0.0,0.0,0.0,0.0,0.0,0.0,0.0,0.0,0.0,0.0,0.0,0.0,0.0,0.0,0.0,0.0,0.0,0.0,0.0,0.0,0.0,0.0,0.0,0.0,0.0,0.0,0.0,0.0,0.0,0.0,0.0,0.0,0.0,0.0,0.0,0.0,0.0,0.0,0.0,0.0,0.0,0.0,0.0,0.0,0.0,0.0,0.0,0.0,0.0,0.0,0.0,0.0,0.0,0.0,0.0,0.0,0.0,0.0,0.0,0.0,0.0,0.0,0.0,0.0,N
0.6535958709835379,0.4172664930625837,-0.16560959239939255,-0.7081684086903244,-0.4304013639313756,-0.2496441498706037,-0.1502757018943432,-0.07923237190584922,-0.0489751689161691,-0.05012455319315223,-0.042099991718789476,-0.04360571211949024,-0.05462577754992548,-0.04082308611663346,-0.03338567128356612,-0.03542081259878957,-0.02507527149111652,-0.021059451895129505,-0.029604075616391584,-0.028859209362750854,-0.03753859143151064,-0.033794471585237545,-0.05194372455116697,-0.05453972574990107,-0.050939807712369306,-0.053622466566002946,-0.050105592548297634,-0.040388839908221896,-0.04943443892882182,-0.04292188205290293,-0.055176021646936274,-0.07371975401017572,-0.08919713585689742,-0.09849349020729609,-0.10161513039101788,-0.11729030661318077,-0.12368541676456117,-0.12704929745600144,-0.13675160316639046,-0.14968179637546702,-0.15336929766185015,-0.16966620158589346,-0.1767422930132134,-0.1902101294786932,-0.21320182805308863,-0.24260939522296246,-0.24412302305572356,-0.2489570990581061,-0.250883644492598,-0.2655159359900475,-0.26166395311755897,-0.267419741035791,-0.27655181815057295,-0.2828268140181963,-0.2737682045789724,-0.28993948961423693,-0.29389671171278764,-0.29811506299070656,-0.28386334530673857,-0.2792085347578836,-0.2591707800867032,-0.2299692073464031,-0.20094203600150082,-0.16582658030825564,-0.15268257220346293,-0.14588737164276838,-0.11733801841629404,-0.10445623136360521,-0.10098159978592697,-0.07257264090287224,-0.0566531727314738,-0.03448431313907738,-0.02165031911788126,-0.01501532126673824,-0.008324381008918746,-0.007804516814892498,-0.013443545999679007,-0.03771127897951948,-0.07747770359070402,-0.070330083217087,-0.07242407870280171,-0.08063246334552454,-0.07934809156987585,-0.09040703563843364,-0.09820382544418715,-0.108975166797429,-0.12583831356533765,-0.13631021937703652,-0.14350943940344552,-0.15679548216907663,-0.16992738328902365,-0.1641838376483069,-0.17700750315265612,-0.17407688645433753,-0.18035462043528594,-0.18024112335431428,-0.17373814243049782,-0.1826891516297766,-0.18213501476957203,-0.20640069348873147,-0.21180651119763633,-0.21395677057038492,-0.22845595293409127,-0.23034612559332676,-0.2321118345731727,-0.22127612297718546,-0.2259246929595817,-0.2242202002265978,-0.22240719603260398,-0.2111293551687483,-0.22783345721914872,-0.2413220943964306,-0.23287875186973905,-0.2368303222458143,-0.24070079227983063,-0.23825459948003982,-0.24197740719365549,-0.23003274047532116,-0.23050732993115314,-0.23404561037443433,-0.23441230037692817,-0.2347327817965937,-0.24749309794413546,-0.23525617839898363,-0.2510707126378487,-0.260619890474481,-0.2670289493454939,-0.2578208907759741,-0.2548390492718255,-0.23000260462725236,-0.22699461097248608,-0.22397403930957677,-0.24590294249646993,-0.24285872457708074,-0.24604396161470624,-0.2616996641881236,-0.24302347397937815,-0.24305804273415194,-0.24932187396559888,-0.22125170609620373,-0.2306112579403937,-0.23371703118597048,-0.23992898851251324,-0.2305253742139898,-0.2585490386448441,-0.26471576727411233,-0.2552644702387503,-0.24579302153235935,-0.24565816383061206,-0.24237525826273507,-0.23282027118138315,-0.2294701877962842,-0.22920107385358907,-0.2444900784818741,-0.23165086751786393,-0.2468434775393365,-0.24326147043987112,-0.23962258238196105,-0.254644570906319,-0.24152106232558745,-0.24705096603079085,-0.24938885208292527,-0.2360498888024039,-0.22263085608058028,-0.2309689884640526,-0.22673807005865623,-0.2536169330498201,-0.24919776089320317,-0.24467811774844272,-0.24317362252772498,-0.25092010704777773,-0.24295143884720208,-0.21926275295675912,-0.2204117892598486,-0.20271106655359608,-0.20359840311027508,-0.21994925940813678,-0.22679792535207854,-0.23662121210097511,-0.23693444563317756,-0.21837320511610675,-0.20901550604522967,0.0,0.0,0.0,0.0,0.0,0.0,0.0,0.0,0.0,0.0,0.0,0.0,0.0,0.0,0.0,0.0,0.0,0.0,0.0,0.0,0.0,0.0,0.0,0.0,0.0,0.0,0.0,0.0,0.0,0.0,0.0,0.0,0.0,0.0,0.0,0.0,0.0,0.0,0.0,0.0,0.0,0.0,0.0,0.0,0.0,0.0,0.0,0.0,0.0,0.0,0.0,0.0,0.0,0.0,0.0,0.0,0.0,0.0,0.0,0.0,0.0,0.0,0.0,0.0,0.0,0.0,0.0,0.0,0.0,0.0,0.0,0.0,0.0,0.0,0.0,0.0,0.0,0.0,0.0,0.0,0.0,0.0,0.0,0.0,0.0,0.0,0.0,0.0,0.0,0.0,0.0,0.0,0.0,0.0,0.0,0.0,0.0,0.0,0.0,0.0,0.0,0.0,0.0,0.0,0.0,0.0,0.0,0.0,0.0,0.0,0.0,0.0,0.0,0.0,0.0,0.0,0.0,0.0,N
0.13068370448143313,0.2868918949089547,0.508410415030268,0.6766405748948567,0.8789130130454231,0.7782067362362587,0.33079378826952255,-0.24808243117851822,-0.718219825209641,-0.546117575822018,-0.3495834370833965,-0.20972263707360886,-0.13274594284242003,-0.08430172858772009,-0.04876013412060795,-0.03233350569602139,-0.03811498484424061,-0.02239580997021079,-0.01323283460937133,-0.007482051908098225,-0.00824102375328295,-0.021728710916688015,-0.032323880383618775,-0.040007421229190765,-0.047881497204248114,-0.046568515269866134,-0.045413072322557535,-0.038159777054037364,-0.037275440433582135,-0.042747125878920794,-0.04520235228747588,-0.053990854163963764,-0.06910278185823507,-0.08428885623232407,-0.083940094491252,-0.10549170644382608,-0.11461515186410645,-0.11754518267745365,-0.12051721541904115,-0.10480572770723198,-0.1140898044510553,-0.1140442789775091,-0.12650822682219515,-0.12027801462239623,-0.145275778008356,-0.15469813200950117,-0.16726637376266998,-0.17674067572314422,-0.18312200891902541,-0.18329149975105005,-0.17413059669548153,-0.18060285694268338,-0.17774902696267064,-0.19677376286879905,-0.19711750169501474,-0.21310570092142644,-0.2353812895923867,-0.23898637586152205,-0.23640551197628576,-0.24012329293782347,-0.25014357496705847,-0.23214806664887688,-0.2391837900220438,-0.24005248161248158,-0.23475790580831998,-0.25762604912599657,-0.25561740091035196,-0.26305705312506034,-0.2799471454014265,-0.2782065554905421,-0.2734338627243665,-0.28434493144750694,-0.2641289950127432,-0.23773635805007504,-0.2394763447895126,-0.2225331646163251,-0.2336970255063863,-0.21679170633988606,-0.2154874107033326,-0.201689927890427,-0.17850719353897443,-0.1677685641800638,-0.1445007623510094,-0.13053388857525489,-0.11337637385285979,-0.0930180286382466,-0.08817052584689172,-0.08322412628455572,-0.09065167507596875,-0.08860465420565694,-0.10515850783827996,-0.10598550260962675,-0.1066817948014557,-0.10724325540579116,-0.10766645969125518,-0.11418908161488156,-0.11744850143918462,-0.12680395782419362,-0.14849514126344365,-0.14819976399199136,-0.17584139591283962,-0.18773814532898636,-0.19949225260363418,-0.195504270999245,-0.20385777453640944,-0.20583361825655616,-0.19207347142648865,-0.1813009993165176,-0.18911994590560993,-0.19369200303860473,-0.18565994908441766,-0.19934961217134056,-0.21292355484143755,-0.21702537501251773,-0.21477963810842193,-0.23115245237859758,-0.23182631627826047,-0.21992619350063897,-0.21105792073118598,-0.20834667827172426,-0.2149178288200447,-0.22141613658788414,-0.23720772054075842,-0.2560578372012792,-0.253010603081676,-0.25927290019755905,-0.2530077142206114,-0.24669910062800257,-0.23410940353256074,-0.24020295733276822,-0.23690078720316574,-0.23044613969422328,-0.23332271175716357,-0.25489408718852397,-0.2670815375421521,-0.2636470257263834,-0.2539516509771408,-0.25671557791743976,-0.25009577986505266,-0.24033014566973765,-0.22741592388890966,-0.23319178938173687,-0.2389339356890786,-0.24151962112621195,-0.25030694146254134,-0.24969243367846874,-0.24591376188772818,-0.24520838544871526,-0.2694147648843805,-0.2498856126841206,-0.23965930873331312,-0.23561043483793753,-0.2439742080216771,-0.23666372023646828,-0.23863545761127478,-0.23740357732732786,-0.2485640685601696,-0.2565109850574416,-0.2518786802252501,-0.2440218466093336,-0.2422947643066698,-0.23109014211410672,-0.21976230391671103,-0.21766565583441058,-0.22479414703250963,-0.22242068437625356,-0.2167798773221929,-0.2390680497854963,-0.24247671422855363,-0.2301206032120144,-0.2300760634749973,-0.23297714552447354,-0.22633778856311046,-0.20703260042209481,-0.20625847963438665,-0.2052893495025785,-0.18227914111287782,-0.19338696202928046,-0.1886854933806572,-0.18065165923781173,-0.17240208210097674,-0.16393352028810187,0.0,0.0,0.0,0.0,0.0,0.0,0.0,0.0,0.0,0.0,0.0,0.0,0.0,0.0,0.0,0.0,0.0,0.0,0.0,0.0,0.0,0.0,0.0,0.0,0.0,0.0,0.0,0.0,0.0,0.0,0.0,0.0,0.0,0.0,0.0,0.0,0.0,0.0,0.0,0.0,0.0,0.0,0.0,0.0,0.0,0.0,0.0,0.0,0.0,0.0,0.0,0.0,0.0,0.0,0.0,0.0,0.0,0.0,0.0,0.0,0.0,0.0,0.0,0.0,0.0,0.0,0.0,0.0,0.0,0.0,0.0,0.0,0.0,0.0,0.0,0.0,0.0,0.0,0.0,0.0,0.0,0.0,0.0,0.0,0.0,0.0,0.0,0.0,0.0,0.0,0.0,0.0,0.0,0.0,0.0,0.0,0.0,0.0,0.0,0.0,0.0,0.0,0.0,0.0,0.0,0.0,0.0,0.0,0.0,0.0,0.0,0.0,0.0,0.0,0.0,0.0,0.0,0.0,N
0.1939067467832255,0.34941105358048186,0.5702299815089144,0.7596012713629753,0.8800423486832495,0.9689503699478,0.8390625538491573,0.37487460466227696,-0.1990215578943424,-0.7454026872284375,-0.6465351934535091,-0.46095306525720925,-0.285362992295006,-0.12596563002983047,-0.035761019609585,0.044577339904514346,0.09012952811269698,0.10093575291938939,0.08951532833403975,0.09022721626866992,0.08126511840103384,0.08138362951149358,0.0937347073214545,0.09338687746257562,0.08972914391255188,0.08278821020044319,0.08194968935269398,0.08723694694044987,0.07683031083392838,0.07883161278597761,0.08077848078805838,0.07644730820711337,0.06897344266078581,0.06149061184460647,0.054010762291762604,0.05278469261592722,0.05470109786271382,0.06912796590693604,0.04614799985073331,0.05128966802451079,0.03463262177943588,0.02425998357172776,0.0014504858655466912,-0.01507611454573407,-0.006601305806742314,-0.01681171055827635,-0.03947197836724009,-0.04338632355108851,-0.050403377115452036,-0.06677179777212255,-0.08002003824422665,-0.0839178523005914,-0.10655801600056838,-0.10738975408953133,-0.12698816005686844,-0.15600585037583198,-0.15701425677841915,-0.18307102833014505,-0.1936283084240558,-0.18870114470788926,-0.1995068404689983,-0.21358021264076454,-0.21845631830793882,-0.24223296626404192,-0.25372433712496245,-0.2747880143898251,-0.27111741879953427,-0.29576894332712844,-0.3206715769681979,-0.32399012391369536,-0.318204625285766,-0.2939464689037344,-0.2917635069263206,-0.2897952104323886,-0.26617684899350513,-0.24584265680548564,-0.23188370702244143,-0.22115068405165472,-0.18553276169097593,-0.16868381369025368,-0.13001266136301906,-0.09757288969959527,-0.05885608938830872,-0.03255658703419512,-0.028009056818738998,-0.010866467292241638,0.006414136211329691,0.011374525004772151,0.013396590911539996,0.012500335368215487,0.008704455142854062,0.011386942644938669,0.023684111856987322,0.020649194655206204,0.01477645012437312,0.024799193636837802,0.02264644985374925,0.0052074706311849295,-0.0025480556065713977,-0.0037334916441882637,-0.01706441825942065,-0.017574854714317162,-0.023982753168226983,-0.017564832277094627,-0.010800914564256081,0.005669417852452119,0.0068832144690503805,0.008438840673159698,0.0009718008742883311,-0.003042290130920583,-0.012970450357309732,-0.01009913280781613,-0.006917949414282254,-0.00655710346978286,0.0003327930750170738,-0.0018616655070704258,0.01180745763149077,0.022604090427172985,0.03363225436049805,0.03863402437728858,0.03759046679564099,0.039841812906633245,0.045366272534762164,0.047900221390771325,0.05053916649714563,0.06573773351836648,0.05602587998457431,0.06817735950975101,0.08344023709217735,0.07682060193864737,0.08260666195081073,0.07268103105056473,0.08444884324165458,0.1553136314370983,0.36636004915394615,0.6270598121297982,0.8281603749590855,0.8385634289846972,0.31811198022165177,-0.2683451545516402,-0.7960636352441239,-0.6317047716428774,-0.42427939204406007,-0.2112029013429082,-0.04547490696606729,0.06046738391301326,0.11602714407675718,0.1368464035042135,0.15416636740093198,0.15866373713061166,0.15661419858733572,0.13557021500357835,0.15484679687509617,0.13646830034042168,0.11790441817219799,0.13974312172555314,0.1302434052038447,0.1331096749629163,0.13588087348396,0.14169503306201392,0.1256064814161505,0.11259077785764166,0.11202062293198772,0.11766592349743532,0.1014533983566347,0.09459171387865933,0.07836461372708237,0.07149651423603842,0.0,0.0,0.0,0.0,0.0,0.0,0.0,0.0,0.0,0.0,0.0,0.0,0.0,0.0,0.0,0.0,0.0,0.0,0.0,0.0,0.0,0.0,0.0,0.0,0.0,0.0,0.0,0.0,0.0,0.0,0.0,0.0,0.0,0.0,0.0,0.0,0.0,0.0,0.0,0.0,0.0,0.0,0.0,0.0,0.0,0.0,0.0,0.0,0.0,0.0,0.0,0.0,0.0,0.0,0.0,0.0,0.0,0.0,0.0,0.0,0.0,0.0,0.0,0.0,0.0,0.0,0.0,0.0,0.0,0.0,0.0,0.0,0.0,0.0,0.0,0.0,0.0,0.0,0.0,0.0,0.0,0.0,0.0,0.0,0.0,0.0,0.0,0.0,0.0,0.0,0.0,0.0,0.0,0.0,0.0,0.0,0.0,0.0,0.0,0.0,0.0,0.0,0.0,0.0,0.0,0.0,0.0,0.0,0.0,0.0,0.0,0.0,0.0,0.0,0.0,0.0,0.0,0.0,0.0,0.0,0.0,0.0,0.0,0.0,0.0,0.0,0.0,0.0,0.0,0.0,0.0,0.0,N
0.1553136314370983,0.36636004915394615,0.6270598121297982,0.8281603749590855,0.8385634289846972,0.31811198022165177,-0.2683451545516402,-0.7960636352441239,-0.6317047716428774,-0.42427939204406007,-0.2112029013429082,-0.04547490696606729,0.06046738391301326,0.11602714407675718,0.1368464035042135,0.15416636740093198,0.15866373713061166,0.15661419858733572,0.13557021500357835,0.15484679687509617,0.13646830034042168,0.11790441817219799,0.13974312172555314,0.1302434052038447,0.1331096749629163,0.13588087348396,0.14169503306201392,0.1256064814161505,0.11259077785764166,0.11202062293198772,0.11766592349743532,0.1014533983566347,0.09459171387865933,0.07836461372708237,0.07149651423603842,0.0,0.0,0.0,0.0,0.0,0.0,0.0,0.0,0.0,0.0,0.0,0.0,0.0,0.0,0.0,0.0,0.0,0.0,0.0,0.0,0.0,0.0,0.0,0.0,0.0,0.0,0.0,0.0,0.0,0.0,0.0,0.0,0.0,0.0,0.0,0.0,0.0,0.0,0.0,0.0,0.0,0.0,0.0,0.0,0.0,0.0,0.0,0.0,0.0,0.0,0.0,0.0,0.0,0.0,0.0,0.0,0.0,0.0,0.0,0.0,0.0,0.0,0.0,0.0,0.0,0.0,0.0,0.0,0.0,0.0,0.0,0.0,0.0,0.0,0.0,0.0,0.0,0.0,0.0,0.0,0.0,0.0,0.0,0.0,0.0,0.0,0.0,0.0,0.0,0.0,0.0,0.0,0.0,0.0,0.0,0.0,0.0,0.0,0.0,0.0,0.0,0.0,0.0,0.0,0.0,0.0,0.0,0.0,0.0,0.0,0.0,0.0,0.0,0.0,0.0,0.0,0.0,0.0,0.0,0.0,0.0,0.0,0.0,0.0,0.0,0.0,0.0,0.0,0.0,0.0,0.0,0.0,0.0,0.0,0.0,0.0,0.0,0.0,0.0,0.0,0.0,0.0,0.0,0.0,0.0,0.0,0.0,0.0,0.0,0.0,0.0,0.0,0.0,0.0,0.0,0.0,0.0,0.0,0.0,0.0,0.0,0.0,0.0,0.0,0.0,0.0,0.0,0.0,0.0,0.0,0.0,0.0,0.0,0.0,0.0,0.0,0.0,0.0,0.0,0.0,0.0,0.0,0.0,0.0,0.0,0.0,0.0,0.0,0.0,0.0,0.0,0.0,0.0,0.0,0.0,0.0,0.0,0.0,0.0,0.0,0.0,0.0,0.0,0.0,0.0,0.0,0.0,0.0,0.0,0.0,0.0,0.0,0.0,0.0,0.0,0.0,0.0,0.0,0.0,0.0,0.0,0.0,0.0,0.0,0.0,0.0,0.0,0.0,0.0,0.0,0.0,0.0,0.0,0.0,0.0,0.0,0.0,0.0,0.0,0.0,0.0,0.0,0.0,0.0,0.0,0.0,0.0,0.0,0.0,0.0,0.0,0.0,0.0,0.0,0.0,0.0,0.0,0.0,0.0,0.0,0.0,0.0,0.0,0.0,0.0,N
-0.29935404011507527,-0.2584813598147898,-0.20035570941843805,-0.1656953334663659,-0.12056573421924746,-0.10229355332710849,-0.12445321993592676,-0.10221351683743968,-0.1034447817445005,-0.08403833819570494,-0.09829369681215772,-0.11907152341204835,-0.13959382938535306,-0.16665718369460253,-0.20705924204315268,-0.22009182278771489,-0.2295209927447097,-0.21839339832081744,-0.2478031902938732,-0.29401166080844654,-0.2823805168773796,-0.2604320941469773,-0.21460894408003472,-0.1788608894595462,-0.1498117021282094,-0.11051267611404741,-0.06776953548189368,0.032690920547724045,0.2213870525066347,0.4779351419363439,0.8362420516139212,0.8653226083889239,0.5617467721269609,-0.047381530133924155,-0.5990221013495857,-0.7097762399479001,-0.5154035811692101,-0.3314773699181735,-0.2360218533952149,-0.20865448652743526,-0.19505990829214262,-0.14771018321428406,-0.12427178893578297,-0.10436538199147172,-0.10493954487275897,-0.10222401829351735,-0.09280985531016644,-0.08346940873415604,-0.08097635203763137,-0.058172305505167665,-0.028620373910150265,-0.03642523436985784,-0.04764633834352505,-0.062278160424685536,-0.06674335346495386,-0.06782609596541395,-0.05534530714510505,-0.06662814057325678,-0.08131644286668743,-0.07226682810138507,-0.08020412958209272,-0.11531452549393634,-0.14367213099571818,-0.13135226938358527,-0.12587153962419825,-0.10348748547679604,-0.12868569948418782,-0.18111949008548095,-0.21329657056085854,-0.2014789276883741,-0.21015615990449646,-0.20880506541963248,-0.21780330719910918,-0.19644913190200136,-0.23298847997271444,-0.26296770184272295,-0.2694405564817714,-0.26600135122651636,-0.2832115411960531,-0.3109129315520947,-0.32537432788842113,-0.33001150238452576,-0.3486004373885337,-0.3608038031853823,-0.3496776538228433,-0.34917780730260184,-0.3762934076727961,-0.39711350697675274,-0.4252321076442346,-0.44030597526081117,-0.43555875607149236,-0.45849964962390416,-0.4344700728915184,-0.41774879296245465,-0.40831373887657774,-0.37220364247739046,-0.3501058805037668,-0.3250195649021653,-0.2867305259097144,-0.2725315421463876,-0.2382755339683046,-0.2280427372151426,-0.19768708762758497,-0.1777166906536975,-0.16131368541053198,-0.1280877389214594,-0.09497625895694406,-0.08570448166882766,-0.10703224276238041,-0.11482060330468832,-0.12601203090249316,-0.11683009910889358,-0.12118635106265388,-0.1153067155261672,-0.09577835237034249,-0.1033030763581313,-0.11411050902474823,-0.1078248821550481,-0.09461172018676112,-0.1016045034184278,-0.11182457708431218,-0.1490146677667311,-0.155478518313892,-0.16853448875203111,-0.17120847354396795,-0.17706738768549898,-0.18949904867487552,-0.18474543694298368,-0.1831628168510867,-0.18474826141293568,-0.18610637048311976,-0.20420265721519207,-0.2084967001701275,-0.23970902476163397,-0.25033400519859433,-0.2641267850107868,-0.2675162781623872,-0.27068525707896757,-0.26345688898438213,-0.26619485088162037,-0.2687232087037505,-0.264259824174608,-0.2867431047725555,-0.2988517382307599,0.0,0.0,0.0,0.0,0.0,0.0,0.0,0.0,0.0,0.0,0.0,0.0,0.0,0.0,0.0,0.0,0.0,0.0,0.0,0.0,0.0,0.0,0.0,0.0,0.0,0.0,0.0,0.0,0.0,0.0,0.0,0.0,0.0,0.0,0.0,0.0,0.0,0.0,0.0,0.0,0.0,0.0,0.0,0.0,0.0,0.0,0.0,0.0,0.0,0.0,0.0,0.0,0.0,0.0,0.0,0.0,0.0,0.0,0.0,0.0,0.0,0.0,0.0,0.0,0.0,0.0,0.0,0.0,0.0,0.0,0.0,0.0,0.0,0.0,0.0,0.0,0.0,0.0,0.0,0.0,0.0,0.0,0.0,0.0,0.0,0.0,0.0,0.0,0.0,0.0,0.0,0.0,0.0,0.0,0.0,0.0,0.0,0.0,0.0,0.0,0.0,0.0,0.0,0.0,0.0,0.0,0.0,0.0,0.0,0.0,0.0,0.0,0.0,0.0,0.0,0.0,0.0,0.0,0.0,0.0,0.0,0.0,0.0,0.0,0.0,0.0,0.0,0.0,0.0,0.0,0.0,0.0,0.0,0.0,0.0,0.0,0.0,0.0,0.0,0.0,0.0,0.0,0.0,0.0,0.0,0.0,0.0,0.0,0.0,0.0,0.0,0.0,0.0,0.0,0.0,0.0,N
0.7314603762810478,0.29022467620847303,-0.3144761373476228,-0.7365926138491442,-0.8811828271609708,-0.7347089936603299,-0.21571668574433953,-0.10801781198289934,-0.045082030410553364,0.0002855508122576733,0.01795150161972414,0.021534000193659253,0.03143603435849529,0.027338594898093482,0.036427519476868675,0.024806567365391663,0.01626434592251097,0.01422750143396756,0.011940787988650836,0.0026471038279703984,0.003340897164772094,0.00726142388106138,-0.005927229775813614,-0.0022693256947983187,-0.00210435371945894,-0.015593550891555785,-0.00199979761530511,-0.022387942688636475,-0.049597716189167584,-0.06665054712992441,-0.05656940124532478,-0.06685219477296983,-0.0805248467674799,-0.10097477906277241,-0.09426403297295521,-0.09432277074920953,-0.10114904748202558,-0.10456220519286236,-0.11813625925326263,-0.12490640843826711,-0.15541583432229056,-0.17234203755668046,-0.17569028902913353,-0.1688601246821812,-0.19936543343252983,-0.20274075678958967,-0.2095350016869717,-0.233331135789226,-0.22323936474991893,-0.24713748420365506,-0.28467706486689076,-0.3222969105887333,-0.31589610804748935,-0.3503209152387785,-0.3509307188003098,-0.36524525245698247,-0.3627374127239271,-0.38074614840775617,-0.3853496745942935,-0.40370410196562956,-0.4358161060338369,-0.4681145516905697,-0.48023412667677656,-0.3907188003495655,-0.35563477316696807,-0.34780456581775776,-0.343444047581865,-0.3221624754814125,-0.2839292263585571,-0.24907390328334905,-0.2107797379492805,-0.17241052755544856,-0.13054411600213406,-0.11908603245250002,-0.09389607079295548,-0.07870205529071617,-0.06329970489211778,-0.06802620823864025,-0.09964685396301176,-0.0936681921208451,-0.08739832089495103,-0.08760657634170277,-0.0908836160706919,-0.08364141820345072,-0.07604668553875255,-0.07148080326815176,-0.06993321900469762,-0.08157483383254416,-0.07585787921912479,-0.07992277840352308,-0.09715796566004958,-0.10380652391869621,-0.0998662294149475,-0.10569617639193934,-0.10093663981103501,-0.08898254524803645,-0.08341012447066837,-0.08422358082370218,-0.08803514325620937,-0.0948517463643791,-0.09789498516855699,-0.10056779130547872,-0.10288104959187638,-0.07770019027509895,-0.08272546528346619,-0.09082497137807233,-0.07147483434760754,-0.0654126937219236,-0.05908414348587593,-0.07626299787637114,-0.0728577193185741,-0.048891620348279985,-0.05528956474840779,-0.03439101079215179,-0.04730389694159953,-0.02958411837691255,-0.02198272217528474,0.006007790952756054,5.9694124074582966e-05,0.014430391468203574,0.028721976895136336,0.039501397728186116,0.04672701502585913,0.05714189173980039,0.03337362576095887,0.08735479498304705,0.2461824743454294,0.49623141264292525,0.7322531075616644,0.8727481853060893,0.7887050373344352,0.344319222543938,-0.9219802656881104,-0.8181744532415202,-0.6880531087222729,-0.4773052569722209,-0.24356875509400105,-0.02071663129495588,0.10987073058067676,0.16521818515828934,0.1827083053299482,0.18275434291157255,0.15522677297213439,0.13410681881456699,0.0,0.0,0.0,0.0,0.0,0.0,0.0,0.0,0.0,0.0,0.0,0.0,0.0,0.0,0.0,0.0,0.0,0.0,0.0,0.0,0.0,0.0,0.0,0.0,0.0,0.0,0.0,0.0,0.0,0.0,0.0,0.0,0.0,0.0,0.0,0.0,0.0,0.0,0.0,0.0,0.0,0.0,0.0,0.0,0.0,0.0,0.0,0.0,0.0,0.0,0.0,0.0,0.0,0.0,0.0,0.0,0.0,0.0,0.0,0.0,0.0,0.0,0.0,0.0,0.0,0.0,0.0,0.0,0.0,0.0,0.0,0.0,0.0,0.0,0.0,0.0,0.0,0.0,0.0,0.0,0.0,0.0,0.0,0.0,0.0,0.0,0.0,0.0,0.0,0.0,0.0,0.0,0.0,0.0,0.0,0.0,0.0,0.0,0.0,0.0,0.0,0.0,0.0,0.0,0.0,0.0,0.0,0.0,0.0,0.0,0.0,0.0,0.0,0.0,0.0,0.0,0.0,0.0,0.0,0.0,0.0,0.0,0.0,0.0,0.0,0.0,0.0,0.0,0.0,0.0,0.0,0.0,0.0,0.0,0.0,0.0,0.0,0.0,0.0,0.0,0.0,0.0,0.0,0.0,0.0,0.0,0.0,0.0,0.0,0.0,0.0,0.0,0.0,0.0,0.0,0.0,N
0.7887050373344352,0.344319222543938,-0.9219802656881104,-0.8181744532415202,-0.6880531087222729,-0.4773052569722209,-0.24356875509400105,-0.02071663129495588,0.10987073058067676,0.16521818515828934,0.1827083053299482,0.18275434291157255,0.15522677297213439,0.13410681881456699,0.13640643262271734,0.13841500667576784,0.1401728608961142,0.15189786458629595,0.16344534914427655,0.16806144382377464,0.15898967594179025,0.12268426368803276,0.1100703446398068,0.08045042275678016,0.06099150803792269,0.04153166091456917,0.022086878315691894,0.016244533022186036,0.02062339239533373,0.011480305533480839,-0.00099634574146229,-0.010013363774135253,-0.012172672692471187,-0.024437983597855595,-0.04680802116303373,-0.07249648847070522,-0.08793195516333646,-0.10669114955132253,-0.11181206649980607,-0.1270540567887523,-0.13206425013211792,-0.14042434623404665,-0.1589304850773038,-0.1808065210126962,-0.19249061433847817,-0.2143552265807692,-0.23284022097209106,-0.26831959422930307,-0.28348114864228446,-0.3020932866038123,-0.3072046731502948,-0.3090109840020778,-0.3346748538413633,-0.3468856579594579,-0.3694130399742689,-0.3988799573449869,-0.4013681042860241,-0.41082203200630996,-0.42385530862878573,-0.40653630517737105,-0.4097605872873798,-0.40297879981340545,-0.3793899642290657,-0.3559421228968127,-0.3394011594568149,-0.3195662522733491,-0.3032033776901162,-0.2868986727643777,-0.263845201191429,-0.23741640304832348,-0.21437952595113036,-0.20828909925397524,-0.1750135501874793,-0.17561565295328413,-0.15578546152355763,-0.16640754020872042,-0.16335388156046154,-0.15000421957343898,-0.16027933467832353,-0.18398759527901243,-0.20075832692755202,-0.220761798443433,-0.2439890333993341,-0.2568583680487145,-0.26614875574013735,-0.27863965024029785,-0.27396422284168565,-0.2826561671742591,-0.2911361450411864,-0.2892185317298217,-0.30743813621736454,-0.31864329116248025,-0.33300933934867344,-0.34374510477771575,-0.3542395572798039,-0.35091502239433314,-0.3473405756132836,-0.3570853225634952,-0.33263825988800444,-0.3554353687055664,-0.35760570123141555,-0.3696852368103602,-0.3780964450194117,-0.37604726893765156,-0.34656361580620265,-0.3032096563605553,-0.29348303377859103,-0.2800481085236355,-0.26289632095936566,-0.2657728903042371,-0.27170340134447424,-0.2705005788219217,-0.27233762600168854,-0.27720815219081224,-0.29189287382827217,-0.2824528013616604,-0.28620945364021894,-0.26922453880310804,-0.25185359153298936,-0.23748587482455363,-0.21593780889430636,-0.21095983178984967,-0.20558298191911517,-0.18283902760084744,-0.16987394066450132,-0.15311445879376787,-0.10880822884745725,-0.057317363537705834,-0.0020385059702285324,0.05363020262610535,0.07235542595448585,0.07448858979296508,0.07359228932239348,0.05268688407525196,0.045690711738350376,0.035619931028358254,-0.001297996611685226,-0.020970731447370994,-0.05056789512032617,-0.07993402652294407,-0.07516180203276601,-0.07360546622321917,-0.08208059407324414,-0.07007741463887379,0.0,0.0,0.0,0.0,0.0,0.0,0.0,0.0,0.0,0.0,0.0,0.0,0.0,0.0,0.0,0.0,0.0,0.0,0.0,0.0,0.0,0.0,0.0,0.0,0.0,0.0,0.0,0.0,0.0,0.0,0.0,0.0,0.0,0.0,0.0,0.0,0.0,0.0,0.0,0.0,0.0,0.0,0.0,0.0,0.0,0.0,0.0,0.0,0.0,0.0,0.0,0.0,0.0,0.0,0.0,0.0,0.0,0.0,0.0,0.0,0.0,0.0,0.0,0.0,0.0,0.0,0.0,0.0,0.0,0.0,0.0,0.0,0.0,0.0,0.0,0.0,0.0,0.0,0.0,0.0,0.0,0.0,0.0,0.0,0.0,0.0,0.0,0.0,0.0,0.0,0.0,0.0,0.0,0.0,0.0,0.0,0.0,0.0,0.0,0.0,0.0,0.0,0.0,0.0,0.0,0.0,0.0,0.0,0.0,0.0,0.0,0.0,0.0,0.0,0.0,0.0,0.0,0.0,0.0,0.0,0.0,0.0,0.0,0.0,0.0,0.0,0.0,0.0,0.0,0.0,0.0,0.0,0.0,0.0,0.0,0.0,0.0,0.0,0.0,0.0,0.0,0.0,0.0,0.0,0.0,0.0,0.0,0.0,0.0,0.0,0.0,0.0,0.0,0.0,0.0,0.0,N
0.760541430336838,0.1751087457205467,-0.38728151113659126,-0.7265046409709237,-0.8154935070722507,-0.7425194941506428,-0.5754503721921673,-0.3753305972103147,-0.18282381459238617,-0.06234531719376446,-0.00026440119458492894,0.03401487451687979,0.06769332560934122,0.08046302419646773,0.08934068182087634,0.09776745477989118,0.10918226795745528,0.10666172035996663,0.09364013270280991,0.09730290206814485,0.08714635769164769,0.0699913201900606,0.06283641590351424,0.05213805801011695,0.06507066545652468,0.06093977068813411,0.06352229513298951,0.06605299231486123,0.054977829325971894,0.03710071061390896,0.026010165137241636,0.03529275164101331,0.014059615063522823,-0.00035316739936569475,-0.00115145205528433,-0.0188696407615489,-0.03314378350243913,-0.016824936513903432,-0.037779352564340785,-0.041714671025644745,-0.04899365229401492,-0.06640726468206848,-0.09735467418908345,-0.11808976304758773,-0.1354077899221594,-0.16967857595873256,-0.17340620887326735,-0.17714257996496258,-0.19786712999174538,-0.194873383772768,-0.19871584465755116,-0.22637645811847004,-0.2507245140430003,-0.292136743916997,-0.30651691126776986,-0.3142426026948281,-0.32890497281299685,-0.34712867945881093,-0.35875183654381354,-0.3603992911562221,-0.3656624287244992,-0.3779522800687658,-0.37353231112748314,-0.41010420118317,-0.42660108151151077,-0.4264245320244924,-0.42993622529607495,-0.42695115456369537,-0.4140640627229548,-0.3810763576891388,-0.3618974674966899,-0.3463210806998897,-0.3105670468628758,-0.2783620574250526,-0.24967964131521297,-0.23467374652698436,-0.2095654368152616,-0.20147651810192665,-0.1662693500356027,-0.1582139891887402,-0.14335455206571512,-0.11827622730637821,-0.11010534998324054,-0.09846265972695112,-0.11387026117712856,-0.1155913682140183,-0.1171838829573294,-0.12881357222485232,-0.14028734929463552,-0.14141326808683854,-0.15254054429029543,-0.1600860506869731,-0.14707434001103928,-0.17118447448747695,-0.17132959375279638,-0.18143734377250334,-0.18453616774835896,-0.20098214901092606,-0.2138054703143523,-0.22639714654231155,-0.2319688820959485,-0.23051971821074688,-0.2424093733180513,-0.2506714353550388,-0.24512674903209147,-0.24953011096288535,-0.25370345628682467,-0.26782930953303014,-0.29530402731321315,-0.28862428097676207,-0.29190728554924644,-0.3017638088741053,-0.31141160191327194,-0.3208553756297071,-0.30295333219793497,-0.30861072149172053,-0.2937194857867438,-0.3125787286114951,-0.3278676341206619,-0.32601900267060957,-0.33079254259505336,-0.35237474862246776,-0.35683879951293834,-0.3475846594683279,-0.3551590296468725,-0.34224181689248606,-0.3393797780649032,-0.3397929809191978,-0.3502749492417247,-0.33689918790330803,-0.35396612854129356,-0.3539760413555643,-0.36068939458137916,-0.363933250733264,-0.3603210004328267,-0.34985871218737336,-0.34951884377388587,-0.3423404678352586,-0.3419027726255876,-0.33803162502125284,-0.34091301942504193,-0.35394636068149016,-0.37713779172495787,-0.37656004991747505,0.0,0.0,0.0,0.0,0.0,0.0,0.0,0.0,0.0,0.0,0.0,0.0,0.0,0.0,0.0,0.0,0.0,0.0,0.0,0.0,0.0,0.0,0.0,0.0,0.0,0.0,0.0,0.0,0.0,0.0,0.0,0.0,0.0,0.0,0.0,0.0,0.0,0.0,0.0,0.0,0.0,0.0,0.0,0.0,0.0,0.0,0.0,0.0,0.0,0.0,0.0,0.0,0.0,0.0,0.0,0.0,0.0,0.0,0.0,0.0,0.0,0.0,0.0,0.0,0.0,0.0,0.0,0.0,0.0,0.0,0.0,0.0,0.0,0.0,0.0,0.0,0.0,0.0,0.0,0.0,0.0,0.0,0.0,0.0,0.0,0.0,0.0,0.0,0.0,0.0,0.0,0.0,0.0,0.0,0.0,0.0,0.0,0.0,0.0,0.0,0.0,0.0,0.0,0.0,0.0,0.0,0.0,0.0,0.0,0.0,0.0,0.0,0.0,0.0,0.0,0.0,0.0,0.0,0.0,0.0,0.0,0.0,0.0,0.0,0.0,0.0,0.0,0.0,0.0,0.0,0.0,0.0,0.0,0.0,0.0,0.0,0.0,0.0,0.0,0.0,0.0,0.0,0.0,0.0,0.0,0.0,0.0,0.0,0.0,0.0,0.0,0.0,0.0,0.0,0.0,0.0,N
0.6178121998611183,0.0073571770447971585,-0.5222905552686646,-0.8490464482945326,-0.7625833517034933,-0.5954620940510891,-0.38837755122963047,-0.23290207054770862,-0.10183804100927113,-0.04264199702898147,-0.0009714868897751638,0.016434212634527934,0.046947491633218597,0.04989200604840571,0.0456695493656647,0.05807322295561884,0.04981395814027478,0.020927373771100377,0.03252721191069807,0.020171669237985246,0.014430572627242788,0.011938442833935636,0.005934601695643249,0.006623236923008591,0.01063335362349388,0.017985481133454606,0.008338258582206937,0.0020685551222872633,-0.021168691155631192,-0.030820206387875193,-0.04384118434798584,-0.0568283970881453,-0.04602012983428716,-0.05212966742627889,-0.05818503437746364,-0.03703575309766982,-0.046366391157772247,-0.04884953811845677,-0.06823949340932256,-0.0807853081515526,-0.10685092369448274,-0.12268821545523237,-0.13848372985677299,-0.15763850048087133,-0.17337462703546747,-0.17552186369092132,-0.18445096094987803,-0.18320681381008838,-0.20912865260526783,-0.21132968291373902,-0.2169707166466802,-0.24303326761167776,-0.2555994186469595,-0.2784386370702342,-0.2912074501964416,-0.30410285635275697,-0.3069621302087775,-0.3099828629600901,-0.3199695536465526,-0.3267602258284312,-0.3371597982034449,-0.3647600244882558,-0.3654659423746593,-0.3800153982178388,-0.3982452977721717,-0.4167770389287723,-0.4220480695997846,-0.407276837478222,-0.3996090257304518,-0.40921882543749943,-0.395376243486666,-0.39539318773244997,-0.37192438956459,-0.36906113683065356,-0.35963311089462074,-0.33004221002213957,-0.3006234973732892,-0.281532144441921,-0.26256355198407233,-0.2165467875297812,-0.19435825776744414,-0.1756148882054455,-0.16708115371125196,-0.16194906756766206,-0.15680493441672785,-0.14823603386513523,-0.13622398825991994,-0.14450485786326958,-0.14252233364660472,-0.1370479313725771,-0.1416409230122422,-0.13253491740142223,-0.15383144098229334,-0.16140624880112084,-0.15524955817258493,-0.14892593231029336,-0.1797543372753842,-0.20022122783305954,-0.2001407072923557,-0.2032610831166403,-0.21636473650046725,-0.20551471238234875,-0.20464159968808376,-0.20695663981928303,-0.2328185721199298,-0.23811338681483307,-0.26016790406710977,-0.2684426970819177,-0.2765122696505144,-0.2775915157303449,-0.2818624417027272,-0.27914739837107355,-0.28302250632190884,-0.2934909068945385,-0.27322934842016017,-0.2799284740268047,-0.2966258201946362,-0.3029659664163707,-0.33288726664639295,-0.3321014512879318,-0.33454726444915084,-0.3300501277252813,-0.3491556793458024,-0.3273961144581308,-0.33943069139830256,-0.347938528415108,-0.3529255939194008,-0.347611217229265,-0.3727215365154849,-0.36039579084113543,-0.35814535008448506,-0.3693678092974922,-0.370313912772926,-0.35759327668143914,-0.3549609833018374,-0.34205860632546153,-0.32906780784415657,-0.33974369258690734,-0.34015468971778384,-0.3370894190529633,-0.33733658434514646,-0.33411162038971126,-0.36813684877978375,-0.36476107538866515,0.0,0.0,0.0,0.0,0.0,0.0,0.0,0.0,0.0,0.0,0.0,0.0,0.0,0.0,0.0,0.0,0.0,0.0,0.0,0.0,0.0,0.0,0.0,0.0,0.0,0.0,0.0,0.0,0.0,0.0,0.0,0.0,0.0,0.0,0.0,0.0,0.0,0.0,0.0,0.0,0.0,0.0,0.0,0.0,0.0,0.0,0.0,0.0,0.0,0.0,0.0,0.0,0.0,0.0,0.0,0.0,0.0,0.0,0.0,0.0,0.0,0.0,0.0,0.0,0.0,0.0,0.0,0.0,0.0,0.0,0.0,0.0,0.0,0.0,0.0,0.0,0.0,0.0,0.0,0.0,0.0,0.0,0.0,0.0,0.0,0.0,0.0,0.0,0.0,0.0,0.0,0.0,0.0,0.0,0.0,0.0,0.0,0.0,0.0,0.0,0.0,0.0,0.0,0.0,0.0,0.0,0.0,0.0,0.0,0.0,0.0,0.0,0.0,0.0,0.0,0.0,0.0,0.0,0.0,0.0,0.0,0.0,0.0,0.0,0.0,0.0,0.0,0.0,0.0,0.0,0.0,0.0,0.0,0.0,0.0,0.0,0.0,0.0,0.0,0.0,0.0,0.0,0.0,0.0,0.0,0.0,0.0,0.0,0.0,0.0,0.0,0.0,0.0,0.0,0.0,0.0,N
0.7782894805892734,0.2045555086131069,-0.3867156034179065,-0.7410910702889685,-0.8823893268065113,-0.6036450538713676,-0.38329811000786085,-0.19076360869218636,-0.07689436889075307,-0.045037251691200486,-0.030673677318298898,-0.010006730181130463,-0.003354572746011142,0.01986302867016987,0.025751040767467592,0.02791933499151955,0.0365825272677372,0.038199914829536,0.042982221673071974,0.05435151197485533,0.03161440357466738,0.03248237744120308,0.036618104495020565,0.03046899264491859,0.003873824054251296,-0.0024304253428151235,0.018357995758293943,0.015352251168459286,0.036070547795057584,0.026228969422741444,0.016375186149698184,0.013301557833947708,0.006831867472357089,-0.026785321376166904,-0.03664973881093064,-0.03633626476055263,-0.02245467033968024,-0.011976382021908538,-0.021874498717452895,-0.03179708155904215,-0.05872062962243213,-0.06872313688219528,-0.07539087719042581,-0.09909824960360508,-0.1262876403833025,-0.1332226988446621,-0.15385504251044554,-0.1678439346190946,-0.1887830743943097,-0.20312037010969147,-0.22784464932888931,-0.25279877228327596,-0.27800627085609886,-0.27295111915126785,-0.2885578952725069,-0.314671440287019,-0.35471030540270293,-0.3611931223544799,-0.3714720854119629,-0.42289898498760925,-0.4408439433185842,-0.44568439426934253,-0.44421643279899237,-0.45001440744875315,-0.4359242710275979,-0.41550323912585785,-0.3921209978524344,-0.34878161766768073,-0.31938595785236906,-0.28354144560835837,-0.2717558267434377,-0.25345705707724275,-0.23200693891074653,-0.21755447607970818,-0.2066759288749652,-0.18237488630474707,-0.16498245131315992,-0.16465057351470105,-0.13723868944078607,-0.11326072229103148,-0.09947829939622976,-0.099260924438484,-0.09561933608807333,-0.11228566608122534,-0.12209322194171165,-0.11823658680524429,-0.13123828065694648,-0.1339352020731317,-0.12291877253403141,-0.11853492293918799,-0.1173773599189038,-0.11264764008378866,-0.13487528047317346,-0.1670842308274626,-0.1651528147802315,-0.17318719868516982,-0.18439437701611752,-0.18519557891079358,-0.20612634296065221,-0.22003625155337758,-0.22692237759531,-0.226782478521504,-0.2331883300852975,-0.22238559623205942,-0.22830737461132808,-0.23738064688393454,-0.26317977432420775,-0.2853462954627159,-0.2801288755860777,-0.2916433790604037,-0.2859591870512523,-0.2834394800980561,-0.2874810833790353,-0.30487453164003164,-0.3016906022708439,-0.30168714793443174,-0.31504892933051654,-0.3349942731578026,-0.35134837352527004,-0.3437565081153556,-0.349550797514448,-0.34158992919042025,-0.34023941633782756,-0.3217514021959033,-0.3200649284526188,-0.328399108088308,-0.34675992257873467,-0.3514001017287448,-0.37625924118939125,-0.36365672883484423,-0.3611037211073739,-0.3618172636686815,-0.3624073488714808,-0.3560901638628546,-0.3530480868564603,-0.34989013210490827,-0.3466186753853967,-0.3534161538995846,-0.3634983461904771,-0.36668770637523196,-0.3697727759928359,-0.3659678025194382,-0.3620591827271358,-0.36143911388120437,0.0,0.0,0.0,0.0,0.0,0.0,0.0,0.0,0.0,0.0,0.0,0.0,0.0,0.0,0.0,0.0,0.0,0.0,0.0,0.0,0.0,0.0,0.0,0.0,0.0,0.0,0.0,0.0,0.0,0.0,0.0,0.0,0.0,0.0,0.0,0.0,0.0,0.0,0.0,0.0,0.0,0.0,0.0,0.0,0.0,0.0,0.0,0.0,0.0,0.0,0.0,0.0,0.0,0.0,0.0,0.0,0.0,0.0,0.0,0.0,0.0,0.0,0.0,0.0,0.0,0.0,0.0,0.0,0.0,0.0,0.0,0.0,0.0,0.0,0.0,0.0,0.0,0.0,0.0,0.0,0.0,0.0,0.0,0.0,0.0,0.0,0.0,0.0,0.0,0.0,0.0,0.0,0.0,0.0,0.0,0.0,0.0,0.0,0.0,0.0,0.0,0.0,0.0,0.0,0.0,0.0,0.0,0.0,0.0,0.0,0.0,0.0,0.0,0.0,0.0,0.0,0.0,0.0,0.0,0.0,0.0,0.0,0.0,0.0,0.0,0.0,0.0,0.0,0.0,0.0,0.0,0.0,0.0,0.0,0.0,0.0,0.0,0.0,0.0,0.0,0.0,0.0,0.0,0.0,0.0,0.0,0.0,0.0,0.0,0.0,0.0,0.0,0.0,0.0,0.0,0.0,N
0.8722611392121157,0.7310144929876331,0.2365052578325132,-0.363613579877043,-0.913312236487442,-0.8934726946541351,-0.31428544244735246,-0.1903192458155551,-0.12111944703417624,-0.08628653165797562,-0.07220884846454989,-0.05509607334366007,-0.05187941051139494,-0.028591442587701243,-0.01234643449634254,-0.0065068985284924,-0.01104372789807484,0.008003852556005553,-0.007025346982834524,-0.01878076351901775,-0.003486951860403098,-0.0018436566669517984,-0.0172256272682893,0.0012840843950677194,-0.02434627029112807,-0.01605649653922514,-0.004375008301787664,-0.006258555738670124,-0.008125573349209436,-0.006576275215084637,-0.021966013885429958,-0.0508984993526263,-0.06283238004855829,-0.05098122900793528,-0.03570682625393701,-0.050945849833769874,-0.03901634848413521,-0.0338581364088032,-0.042265880999375116,-0.06424918095664217,-0.06588578781146481,-0.09130178382491677,-0.12015120749315827,-0.1286960834583528,-0.15767311936254627,-0.1629866127010939,-0.17519538252482295,-0.1807457709458211,-0.1932317652496337,-0.20249483931757478,-0.21195065380230366,-0.2487690359776038,-0.2790403810830649,-0.3061823878286171,-0.3234331182671081,-0.3308175723595185,-0.3521143119965582,-0.3534152147552006,-0.3686790234518279,-0.3775710256559232,-0.39368881446970777,-0.4170546550172338,-0.4137539009241479,-0.43809308854463375,-0.45614646367045864,-0.43398056273944574,-0.4258793911961323,-0.41146611060996696,-0.37714401760780203,-0.35003133368604755,-0.31652425648831,-0.3003457808170483,-0.27771231479271313,-0.2689539962324713,-0.24350122827614015,-0.2013249324989765,-0.18311670234066632,-0.1650954102802583,-0.14723419230861018,-0.13968716981465026,-0.1254627762859187,-0.1113239258694273,-0.11082137421837854,-0.11375371069096912,-0.12010078141364652,-0.11966362228912747,-0.13278453192164238,-0.12890686448153482,-0.12158854164210942,-0.11760194114222056,-0.13390064365313617,-0.13314595366559304,-0.1322937637578795,-0.1449077434334377,-0.15061926488636476,-0.17656754925271062,-0.1786326661261262,-0.18395577012853517,-0.19931885509820368,-0.20435804336412008,-0.20925032386641845,-0.2072067381897384,-0.21858580281747164,-0.22302667824869254,-0.23749597936898192,-0.23824088597990326,-0.25580264799389285,-0.26982297800318145,-0.2735174625169313,-0.2804621759696857,-0.29744692580854776,-0.2973284813292142,-0.3072573821835225,-0.3068776773201778,-0.31655376877154423,-0.3261102303961229,-0.345731890323842,-0.35167031029295165,-0.3575038706977705,-0.3666309521258883,-0.3688765135664469,-0.3744246458879029,-0.36291822768394344,-0.3581119234120116,-0.37357980362223897,-0.3652090127856531,-0.3805053502677512,-0.3923203048561867,-0.38028981092990527,-0.3410131522036083,-0.29484078873477515,-0.29605668077559505,-0.29375149537774004,-0.3082763871754973,-0.2921159856546522,-0.29276874117042173,-0.31022663943736917,-0.30715522443077575,-0.3005137465834958,-0.3174417314273831,-0.3206054875895831,-0.32017830996925445,-0.3263336751480895,-0.32549184914085394,0.0,0.0,0.0,0.0,0.0,0.0,0.0,0.0,0.0,0.0,0.0,0.0,0.0,0.0,0.0,0.0,0.0,0.0,0.0,0.0,0.0,0.0,0.0,0.0,0.0,0.0,0.0,0.0,0.0,0.0,0.0,0.0,0.0,0.0,0.0,0.0,0.0,0.0,0.0,0.0,0.0,0.0,0.0,0.0,0.0,0.0,0.0,0.0,0.0,0.0,0.0,0.0,0.0,0.0,0.0,0.0,0.0,0.0,0.0,0.0,0.0,0.0,0.0,0.0,0.0,0.0,0.0,0.0,0.0,0.0,0.0,0.0,0.0,0.0,0.0,0.0,0.0,0.0,0.0,0.0,0.0,0.0,0.0,0.0,0.0,0.0,0.0,0.0,0.0,0.0,0.0,0.0,0.0,0.0,0.0,0.0,0.0,0.0,0.0,0.0,0.0,0.0,0.0,0.0,0.0,0.0,0.0,0.0,0.0,0.0,0.0,0.0,0.0,0.0,0.0,0.0,0.0,0.0,0.0,0.0,0.0,0.0,0.0,0.0,0.0,0.0,0.0,0.0,0.0,0.0,0.0,0.0,0.0,0.0,0.0,0.0,0.0,0.0,0.0,0.0,0.0,0.0,0.0,0.0,0.0,0.0,0.0,0.0,0.0,0.0,0.0,0.0,0.0,0.0,0.0,0.0,N
