3439247.0
3710087.0
3646555.0
3435870.0
3169343.0
2890463.0
2620143.0
2367440.0
2135324.0
1924187.0
1732957.0
1560263.0
1404469.0
1264250.0
1137974.0
1024507.0
922221.0
829961.0
748123.0
671178.0
604339.0
544171.0
489992.0
441447.0
397454.0
357371.0
321160.0
288853.0
259925.0
234011.0
210527.0
189423.0
170512.0
153584.0
138524.0
124622.0
112264.0
100213.0
90854.0
82326.0
74433.0
67460.0
61030.0
54716.0
48667.0
43247.0
38551.0
34531.0
31016.0
27804.0
24978.0
22592.0
20251.0
18071.0
18018.0
14645.0
13314.0
12277.0
11582.0
11223.0
10416.0
9080.0
7667.0
6614.0
5695.0
4848.0
4220.0
3538.0
2980.0
2619.0
2353.0
1879.0
2623.0
540.0
971.0
1272.0
1599.0
2130.0
2340.0
1859.0
1429.0
1236.0
1170.0
1117.0
1002.0
879.0
642.0
437.0
422.0
-8.0
622.0
-1152.0
-562.0
-62.0
354.0
811.0
986.0
633.0
233.0
-14.0
-259.0
-169.0
136.0
-31.0
8.0
-1124.0
-421.0
37.0
426.0
852.0
1079.0
651.0
22.0
-380.0
-554.0
-569.0
-559.0
-522.0
-487.0
-438.0
-217.0
-267.0
-348.0
1258.0
-479.0
-136.0
174.0
682.0
1377.0
1574.0
1103.0
549.0
180.0
-48.0
-277.0
-510.0
-700.0
-808.0
-859.0
-801.0
-719.0
-795.0
106.0
-1726.0
-932.0
-312.0
275.0
812.0
1155.0
892.0
476.0
290.0
332.0
388.0
360.0
265.0
172.0
114.0
-39.0
-127.0
-328.0
-156.0
-2129.0
-1291.0
-631.0
-101.0
491.0
877.0
613.0
146.0
-131.0
-209.0
-183.0
-147.0
-54.0
-15.0
115.0
214.0
319.0
475.0
189.0
161.0
-1404.0
-738.0
-288.0
0.0
500.0
880.0
622.0
65.0
-272.0
-378.0
-412.0
-415.0
-408.0
-380.0
-398.0
-338.0
-137.0
2455447.0
3439247.0
3710087.0
3646555.0
3435870.0
3169343.0
2890463.0
2620143.0
2367440.0
2135324.0
1924187.0
1732957.0
1560263.0
1404469.0
1264250.0
1137974.0
1024507.0
922221.0
829961.0
748123.0
671178.0
604339.0
544171.0
489992.0
441447.0
397454.0
357371.0
321160.0
288853.0
259925.0
234011.0
210527.0
189423.0
170512.0
153584.0
138524.0
124622.0
112264.0
100213.0
90854.0
82326.0
74433.0
67460.0
61030.0
54716.0
48667.0
43247.0
38551.0
34531.0
31016.0
27804.0
24978.0
22592.0
20251.0
18071.0
18018.0
14645.0
13314.0
12277.0
11582.0
11223.0
10416.0
9080.0
7667.0
6614.0
5695.0
4848.0
4220.0
3538.0
2980.0
2619.0
2353.0
1879.0
2623.0
540.0
971.0
1272.0
1599.0
2130.0
2340.0
1859.0
1429.0
1236.0
1170.0
1117.0
1002.0
879.0
642.0
437.0
422.0
-8.0
622.0
-1152.0
-562.0
-62.0
354.0
811.0
986.0
633.0
233.0
175.0
-1382.0
-665.0
61.0
695.0
1328.0
1700.0
1373.0
736.0
309.0
-44.0
-163.0
-322.0
-447.0
-524.0
-533.0
-472.0
-373.0
-317.0
-393.0
512.0
-1140.0
-549.0
-82.0
411.0
1033.0
1435.0
1173.0
669.0
362.0
229.0
141.0
-6.0
-69.0
-286.0
-481.0
-596.0
-637.0
-586.0
-708.0
-75.0
-1898.0
-1021.0
-380.0
194.0
881.0
1224.0
936.0
414.0
187.0
156.0
294.0
321.0
243.0
190.0
117.0
9.0
-63.0
-54.0
-374.0
-223.0
-2143.0
-1259.0
-575.0
-48.0
618.0
1072.0
797.0
286.0
-33.0
-153.0
-190.0
-163.0
-136.0
-33.0
-30.0
95.0
196.0
440.0
289.0
124.0
1708.0
-321.0
-303.0
-212.0
43.0
457.0
624.0
239.0
-220.0
-479.0
-491.0
-473.0
-408.0
-413.0
-372.0
-314.0
-145.0
140.0
-54.0
33.0
-2.0
198.0
672.0
864.0
364.0
-108.0
-315.0
-423.0
-390.0
-358.0
-297.0
-262.0
-236.0
-52.0
179.0
169.0
508.0
-1442.0
-481.0
151.0
547.0
1003.0
1166.0
668.0
31.0
-403.0
-561.0
-576.0
-546.0
-548.0
-566.0
-504.0
-374.0
-445.0
87.0
-1938.0
-856.0
-143.0
590.0
1375.0
1828.0
1472.0
872.0
449.0
162.0
-21.0
-127.0
-268.0
-267.0
-682.0
-898.0
-991.0
-984.0
-676.0
-259.0
275.0
816.0
770.0
187.0
-94.0
-266.0
-173.0
-62.0
79.0
180.0
82.0
293.0
-1560.0
-773.0
-226.0
154.0
564.0
822.0
538.0
104.0
-205.0
-267.0
-293.0
-294.0
-243.0
-32.0
-217.0
-230.0
-1133.0
-583.0
72.0
531.0
1012.0
1337.0
1033.0
506.0
-7.0
-316.0
-556.0
-702.0
-807.0
-810.0
-589.0
-626.0
-703.0
-3.0
470.0
948.0
1146.0
666.0
-73.0
-476.0
-615.0
-743.0
-680.0
-684.0
-650.0
-595.0
-483.0
-202.0
-333.0
-410.0
-1664.0
-783.0
38.0
694.0
1260.0
1766.0
1599.0
968.0
389.0
4.0
-313.0
-598.0
-756.0
-807.0
-841.0
-812.0
-753.0
-621.0
-491.0
-600.0
421.0
-1422.0
-738.0
-161.0
419.0
991.0
1327.0
1120.0
768.0
543.0
350.0
316.0
256.0
84.0
-139.0
-345.0
-409.0
-452.0
-400.0
-535.0
-169.0
-1891.0
-1023.0
-430.0
101.0
630.0
930.0
726.0
292.0
111.0
142.0
147.0
217.0
224.0
162.0
77.0
23.0
61.0
-246.0
-282.0
-1798.0
-1202.0
-705.0
-285.0
251.0
668.0
482.0
-3.0
-340.0
-394.0
-444.0
-354.0
-275.0
-233.0
-76.0
153.0
350.0
258.0
416.0
-1139.0
-387.0
90.0
368.0
688.0
452.0
206.0
-23.0
-220.0
-479.0
-649.0
-702.0
-718.0
-548.0
-533.0
-646.0
397.0
-1481.0
-756.0
-200.0
343.0
925.0
1200.0
920.0
539.0
397.0
363.0
353.0
251.0
168.0
37.0
-46.0
-127.0
-507.0
-781.0
283.0
-445.0
-470.0
-341.0
49.0
554.0
638.0
170.0
-251.0
-413.0
-434.0
-369.0
-280.0
-130.0
15.0
71.0
140.0
167.0
-28.0
286.0
-1925.0
-1137.0
-644.0
-199.0
404.0
778.0
517.0
-34.0
-367.0
-474.0
-517.0
-471.0
-503.0
-427.0
-442.0
-344.0
-242.0
45.0
40.0
80.0
-1048.0
-422.0
165.0
546.0
981.0
1230.0
878.0
231.0
-215.0
-457.0
-485.0
-491.0
-481.0
-483.0
-474.0
-439.0
-251.0
-254.0
-325.0
1385.0
-533.0
-207.0
230.0
821.0
1472.0
1690.0
1219.0
595.0
178.0
-362.0
-678.0
-780.0
-827.0
-742.0
-555.0
-742.0
-541.0
-2098.0
-1142.0
-431.0
188.0
842.0
1433.0
1427.0
943.0
639.0
483.0
395.0
303.0
137.0
-55.0
-100.0
-85.0
-406.0
-528.0
1079.0
-84.0
-218.0
-185.0
108.0
541.0
698.0
301.0
-106.0
-301.0
-316.0
-224.0
-115.0
-17.0
59.0
170.0
189.0
-20.0
834.0
-1258.0
-702.0
-363.0
-50.0
463.0
707.0
285.0
-197.0
-440.0
-531.0
-544.0
-501.0
-509.0
-448.0
-393.0
-154.0
-154.0
-152.0
1664.0
-109.0
133.0
381.0
717.0
1182.0
1266.0
607.0
-109.0
-604.0
-838.0
-879.0
-911.0
-938.0
-913.0
-793.0
-658.0
-444.0
-460.0
-418.0
1376.0
324.0
175.0
321.0
780.0
1318.0
1465.0
1024.0
528.0
196.0
-90.0
-345.0
-520.0
-652.0
-723.0
-704.0
-644.0
1197.0
-96.0
-327.0
-311.0
88.0
620.0
774.0
306.0
-141.0
-358.0
-366.0
-299.0
-270.0
-173.0
12.0
57.0
219.0
331.0
55.0
-54.0
-1882.0
-1196.0
-684.0
-278.0
349.0
817.0
649.0
135.0
-227.0
-329.0
-314.0
-290.0
-269.0
-242.0
-165.0
33.0
202.0
158.0
126.0
1174.0
543.0
440.0
420.0
622.0
862.0
703.0
46.0
-445.0
-642.0
-677.0
-598.0
-575.0
-561.0
-517.0
-414.0
-270.0
-147.0
-189.0
448.0
-1464.0
-463.0
231.0
735.0
1328.0
1548.0
1030.0
371.0
-173.0
-481.0
-696.0
-788.0
-838.0
-804.0
-714.0
-612.0
-387.0
-486.0
-481.0
504.0
96.0
157.0
433.0
902.0
1471.0
1509.0
977.0
558.0
238.0
23.0
-209.0
-421.0
-632.0
-755.0
-748.0
-537.0
-733.0
-741.0
-1902.0
-1177.0
-557.0
267.0
289.0
307.0
443.0
520.0
524.0
497.0
386.0
267.0
198.0
111.0
-321.0
-533.0
-375.0
-638.0
-412.0
-162.0
327.0
886.0
934.0
367.0
-71.0
-223.0
-247.0
-216.0
-174.0
-164.0
-49.0
107.0
300.0
125.0
-73.0
1704.0
373.0
-55.0
-207.0
-44.0
402.0
445.0
-56.0
-481.0
-641.0
-613.0
-599.0
-556.0
-517.0
-463.0
-340.0
-150.0
-181.0
-112.0
1529.0
583.0
479.0
502.0
733.0
1111.0
1044.0
386.0
-259.0
-660.0
-820.0
-854.0
-851.0
-840.0
-776.0
-728.0
-484.0
-452.0
-599.0
660.0
-1078.0
-541.0
-46.0
550.0
1292.0
1672.0
1211.0
557.0
80.0
-94.0
-339.0
-529.0
-704.0
-763.0
-760.0
-666.0
-489.0
-612.0
-556.0
-2047.0
-1126.0
-430.0
109.0
740.0
1226.0
1169.0
745.0
457.0
379.0
-113.0
-428.0
-542.0
-525.0
-350.0
-444.0
-453.0
970.0
72.0
52.0
193.0
544.0
1007.0
1144.0
796.0
369.0
203.0
225.0
192.0
55.0
109.0
-58.0
-185.0
-308.0
-632.0
-450.0
-2205.0
-1328.0
-727.0
-227.0
438.0
876.0
676.0
192.0
-103.0
-156.0
-184.0
-170.0
-56.0
64.0
207.0
306.0
342.0
91.0
499.0
-1640.0
-826.0
-390.0
-19.0
566.0
820.0
516.0
-66.0
-412.0
-566.0
-611.0
-621.0
-613.0
-516.0
-458.0
-199.0
-207.0
-124.0
2057.0
625.0
525.0
537.0
760.0
1146.0
1169.0
522.0
-162.0
-535.0
-655.0
-663.0
-687.0
-639.0
-616.0
-360.0
-388.0
-454.0
1061.0
-766.0
-447.0
-119.0
393.0
1026.0
1272.0
957.0
510.0
175.0
-1.0
-94.0
-276.0
-373.0
-464.0
-567.0
-639.0
-479.0
2453730.0
3435264.0
3705237.0
3641430.0
3430627.0
3164258.0
2886221.0
2616834.0
2364874.0
2133350.0
1922647.0
1731636.0
1558880.0
1404214.0
1261858.0
1136025.0
1022679.0
920657.0
829061.0
746611.0
671750.0
604141.0
543403.0
488945.0
440016.0
396003.0
356430.0
320795.0
288787.0
260017.0
234160.0
210868.0
189969.0
171163.0
153837.0
138306.0
123476.0
111234.0
100489.0
90634.0
81929.0
74220.0
66908.0
59786.0
53410.0
47892.0
43002.0
38728.0
34882.0
31390.0
28273.0
25529.0
23120.0
20971.0
18895.0
17272.0
15364.0
13584.0
13846.0
10594.0
9389.0
8458.0
7904.0
7587.0
7205.0
6228.0
5127.0
4300.0
3755.0
3411.0
3048.0
2663.0
2444.0
2122.0
2000.0
1915.0
1845.0
1822.0
1833.0
1427.0
1077.0
714.0
511.0
572.0
646.0
877.0
1253.0
1260.0
778.0
311.0
75.0
21.0
32.0
48.0
-1.0
37.0
59.0
101.0
266.0
548.0
434.0
-74.0
-96.0
80.0
500.0
898.0
857.0
380.0
51.0
-126.0
-83.0
-39.0
40.0
161.0
205.0
224.0
202.0
251.0
241.0
-49.0
-30.0
-1659.0
-1009.0
-509.0
-145.0
412.0
797.0
798.0
272.0
-85.0
-286.0
-343.0
-411.0
-390.0
-398.0
-371.0
-276.0
-108.0
68.0
357.0
233.0
187.0
638.0
223.0
275.0
391.0
493.0
771.0
731.0
296.0
-245.0
-522.0
-525.0
-496.0
-445.0
-401.0
-344.0
-316.0
-284.0
-197.0
-81.0
-133.0
379.0
-1300.0
-343.0
263.0
675.0
1108.0
1370.0
964.0
222.0
-289.0
-458.0
-544.0
-493.0
-471.0
-434.0
-420.0
-352.0
-199.0
-57.0
-189.0
-205.0
-157.0
-43.0
339.0
658.0
1111.0
1553.0
1587.0
969.0
261.0
-70.0
-362.0
-606.0
-753.0
-837.0
-878.0
-841.0
-836.0
-713.0
415.0
-1480.0
-872.0
-382.0
100.0
694.0
1083.0
897.0
472.0
240.0
209.0
269.0
273.0
245.0
115.0
78.0
-48.0
-48.0
-324.0
-607.0
1176.0
-557.0
-595.0
-431.0
-91.0
440.0
683.0
361.0
-103.0
-328.0
-416.0
-364.0
-270.0
-146.0
-120.0
25.0
117.0
235.0
375.0
138.0
-6.0
-919.0
-703.0
-367.0
-175.0
220.0
666.0
693.0
170.0
-276.0
-426.0
-488.0
-479.0
-457.0
-427.0
-385.0
-297.0
-280.0
-203.0
26.0
378.0
266.0
161.0
857.0
275.0
213.0
236.0
383.0
771.0
701.0
105.0
-453.0
-713.0
-730.0
-701.0
-697.0
-634.0
-568.0
-497.0
-386.0
-321.0
-207.0
16.0
-12.0
88.0
-837.0
-241.0
315.0
714.0
1058.0
1371.0
1274.0
600.0
143.0
-169.0
-368.0
-446.0
-463.0
-440.0
-408.0
-360.0
-519.0
-563.0
1113.0
-573.0
-422.0
-180.0
147.0
520.0
868.0
623.0
278.0
170.0
151.0
177.0
130.0
105.0
-1.0
-137.0
-277.0
-403.0
-370.0
-639.0
-596.0
-2051.0
-1240.0
-607.0
-203.0
319.0
776.0
765.0
323.0
57.0
-57.0
-67.0
-34.0
47.0
103.0
197.0
235.0
339.0
434.0
146.0
-92.0
-722.0
-517.0
-252.0
-88.0
252.0
733.0
760.0
340.0
-116.0
-336.0
-370.0
-376.0
-351.0
-335.0
-332.0
-245.0
-53.0
149.0
70.0
690.0
-1294.0
-534.0
-76.0
183.0
526.0
751.0
478.0
18.0
-302.0
-413.0
-398.0
-378.0
-342.0
-341.0
-319.0
-119.0
-188.0
-148.0
1709.0
67.0
123.0
326.0
680.0
1087.0
1193.0
664.0
-17.0
-430.0
-639.0
-684.0
-693.0
-713.0
-692.0
-562.0
-329.0
-446.0
-693.0
-460.0
-222.0
217.0
738.0
969.0
629.0
226.0
-33.0
-55.0
49.0
118.0
155.0
137.0
185.0
290.0
-43.0
-355.0
-678.0
-839.0
-522.0
-333.0
74.0
569.0
722.0
273.0
-220.0
-326.0
-347.0
-334.0
-308.0
-270.0
-211.0
-197.0
77.0
50.0
52.0
1989.0
701.0
388.0
323.0
489.0
788.0
778.0
216.0
-324.0
-680.0
-816.0
-841.0
-805.0
-759.0
-712.0
-601.0
-425.0
-476.0
-496.0
1125.0
162.0
13.0
171.0
668.0
1261.0
1443.0
987.0
365.0
57.0
-127.0
-330.0
-605.0
-810.0
-953.0
-873.0
-629.0
-835.0
-887.0
-1561.0
-1128.0
-589.0
-102.0
469.0
969.0
1040.0
634.0
299.0
257.0
223.0
284.0
222.0
201.0
169.0
276.0
115.0
-116.0
806.0
-1225.0
-864.0
-541.0
-118.0
306.0
663.0
130.0
-86.0
-269.0
-403.0
-474.0
-413.0
-429.0
-568.0
8.0
-1771.0
-911.0
-380.0
145.0
757.0
1199.0
1065.0
748.0
521.0
375.0
267.0
147.0
-46.0
-252.0
-290.0
-276.0
-494.0
-655.0
1103.0
-301.0
-358.0
-255.0
16.0
512.0
789.0
492.0
30.0
-156.0
-217.0
-154.0
-78.0
2.0
57.0
69.0
144.0
202.0
-47.0
201.0
-1660.0
-938.0
-506.0
-151.0
396.0
770.0
648.0
232.0
-110.0
-332.0
-387.0
-354.0
-368.0
-354.0
-282.0
-73.0
145.0
156.0
68.0
705.0
271.0
279.0
342.0
584.0
988.0
924.0
277.0
-328.0
-590.0
-611.0
-657.0
-696.0
-696.0
-675.0
-553.0
-366.0
-509.0
-579.0
1487.0
107.0
-68.0
89.0
484.0
975.0
1189.0
785.0
320.0
0.0
-266.0
-449.0
-640.0
-676.0
-733.0
-686.0
-2172.0
-1310.0
-649.0
-96.0
508.0
1002.0
955.0
495.0
242.0
83.0
169.0
243.0
185.0
183.0
140.0
180.0
24.0
-195.0
1456.0
-350.0
-549.0
-452.0
-152.0
360.0
616.0
283.0
-231.0
-446.0
-487.0
-439.0
-419.0
-399.0
-347.0
-244.0
-14.0
-43.0
317.0
-1337.0
-430.0
180.0
595.0
1148.0
1420.0
1059.0
297.0
-209.0
-429.0
-551.0
-592.0
-553.0
-540.0
-409.0
-161.0
-373.0
-458.0
-1378.0
-782.0
-171.0
258.0
857.0
1516.0
1673.0
1205.0
707.0
468.0
318.0
119.0
-141.0
-401.0
-392.0
-389.0
-715.0
-862.0
-773.0
-863.0
-566.0
-248.0
264.0
779.0
883.0
421.0
36.0
-54.0
35.0
80.0
90.0
121.0
240.0
25.0
-179.0
900.0
-99.0
-351.0
-331.0
-67.0
435.0
586.0
201.0
-208.0
-266.0
-208.0
26.0
139.0
49.0
900.0
-1255.0
-523.0
-61.0
275.0
694.0
865.0
433.0
-131.0
-480.0
-642.0
-660.0
-666.0
-664.0
-538.0
-303.0
-415.0
-440.0
348.0
-54.0
161.0
447.0
856.0
1332.0
1323.0
757.0
-36.0
-526.0
-688.0
-847.0
-950.0
-973.0
-919.0
-613.0
-636.0
-690.0
996.0
-885.0
-525.0
-139.0
326.0
839.0
1146.0
973.0
604.0
346.0
268.0
206.0
158.0
67.0
-11.0
-72.0
-59.0
-332.0
-587.0
1067.0
-696.0
-656.0
-415.0
-38.0
400.0
632.0
358.0
-40.0
-223.0
-274.0
-261.0
-195.0
-196.0
-102.0
65.0
306.0
205.0
51.0
1969.0
452.0
131.0
-29.0
89.0
437.0
558.0
98.0
-407.0
-646.0
-737.0
-739.0
-731.0
-697.0
-668.0
-590.0
-379.0
-134.0
-281.0
-372.0
120.0
121.0
25.0
-148.0
-322.0
-468.0
-444.0
-278.0
-451.0
-561.0
-1074.0
-779.0
-309.0
76.0
562.0
1013.0
1112.0
742.0
422.0
376.0
334.0
335.0
284.0
158.0
32.0
-48.0
-83.0
-236.0
-539.0
155.0
-1935.0
-1205.0
-632.0
-97.0
559.0
1005.0
750.0
222.0
-142.0
-295.0
-283.0
-345.0
-361.0
-295.0
-156.0
-18.0
113.0
165.0
18.0
-15.0
-1576.0
-870.0
-263.0
64.0
475.0
797.0
653.0
149.0
-207.0
-372.0
-378.0
-361.0
-305.0
-275.0
-189.0
-127.0
45.0
92.0
42.0
764.0
-840.0
-78.0
412.0
753.0
1076.0
1169.0
784.0
147.0
-335.0
-519.0
-523.0
-548.0
-531.0
-497.0
-465.0
-324.0
-112.0
-235.0
-326.0
1002.0
230.0
211.0
441.0
857.0
1352.0
1454.0
922.0
319.0
-44.0
-306.0
-446.0
-876.0
-1046.0
-859.0
-439.0
-376.0
-346.0
410.0
99.0
150.0
279.0
473.0
694.0
672.0
269.0
-270.0
-519.0
-573.0
-483.0
-479.0
-411.0
-343.0
-279.0
-108.0
-195.0
-163.0
1372.0
-323.0
-182.0
77.0
371.0
873.0
1133.0
837.0
391.0
40.0
-97.0
-219.0
-415.0
-610.0
-729.0
-732.0
-572.0
-665.0
-684.0
962.0
-165.0
-271.0
-173.0
196.0
714.0
928.0
579.0
242.0
159.0
205.0
279.0
291.0
233.0
144.0
107.0
114.0
-308.0
-537.0
3.0
-554.0
-564.0
-417.0
-28.0
520.0
659.0
238.0
-209.0
-468.0
-484.0
-426.0
-382.0
-322.0
-177.0
-26.0
126.0
-45.0
94.0
-1380.0
-710.0
-174.0
148.0
494.0
766.0
515.0
-4.0
-385.0
-461.0
-494.0
-482.0
-405.0
-351.0
-286.0
-79.0
-136.0
-208.0
-266.0
-208.0
26.0
139.0
49.0
900.0
-1255.0
-523.0
-61.0
275.0
694.0
865.0
433.0
-131.0
-480.0
-642.0
-660.0
-666.0
-664.0
-538.0
-303.0
-415.0
-440.0
348.0
-54.0
161.0
447.0
856.0
1332.0
1323.0
757.0
-36.0
-526.0
-688.0
-847.0
-950.0
-973.0
-919.0
-613.0
-636.0
-690.0
996.0
-885.0
-525.0
-139.0
326.0
839.0
1146.0
973.0
604.0
346.0
268.0
206.0
158.0
67.0
-11.0
-72.0
-59.0
-332.0
-587.0
1067.0
-696.0
-656.0
-415.0
-38.0
400.0
632.0
358.0
-40.0
-223.0
-274.0
-261.0
-195.0
-196.0
-102.0
65.0
306.0
205.0
51.0
1969.0
452.0
131.0
-29.0
89.0
437.0
558.0
98.0
-407.0
-646.0
-737.0
-739.0
-731.0
-697.0
-668.0
-590.0
-379.0
-134.0
-281.0
-372.0
18.0
345.0
837.0
1351.0
1535.0
1047.0
407.0
34.0
-323.0
-450.0
-613.0
-749.0
-859.0
-899.0
-991.0
-919.0
-308.0
-2309.0
-1337.0
-654.0
-47.0
692.0
1211.0
928.0
472.0
315.0
280.0
268.0
293.0
292.0
188.0
242.0
204.0
-170.0
331.0
-1803.0
-1173.0
-604.0
-116.0
497.0
870.0
619.0
123.0
-139.0
-257.0
-295.0
-337.0
-319.0
-260.0
-2.0
-117.0
-166.0
-902.0
-412.0
103.0
425.0
763.0
1017.0
791.0
195.0
-284.0
-451.0
-493.0
-403.0
-437.0
-399.0
-203.0
-370.0
-175.0
-1271.0
-528.0
30.0
473.0
898.0
1244.0
1180.0
758.0
359.0
78.0
-240.0
-469.0
-758.0
-811.0
-1084.0
-1210.0
666.0
-722.0
-671.0
-447.0
24.0
598.0
798.0
482.0
162.0
-38.0
-141.0
-78.0
-39.0
87.0
311.0
249.0
148.0
308.0
351.0
553.0
756.0
750.0
212.0
-234.0
-408.0
-460.0
-551.0
-573.0
-535.0
-385.0
-192.0
-316.0
-354.0
537.0
213.0
243.0
392.0
708.0
1023.0
961.0
313.0
-212.0
-536.0
-549.0
-621.0
-610.0
-517.0
-514.0
-404.0
-389.0
-515.0
342.0
-1333.0
-598.0
61.0
678.0
1331.0
1684.0
1364.0
865.0
564.0
296.0
44.0
-144.0
-393.0
-525.0
-466.0
-456.0
-345.0
-380.0
-428.0
930.0
64.0
-17.0
118.0
486.0
1024.0
1112.0
818.0
425.0
342.0
283.0
276.0
187.0
-11.0
-120.0
-318.0
-427.0
-411.0
-589.0
-758.0
-419.0
-603.0
-452.0
-204.0
219.0
701.0
843.0
457.0
105.0
-41.0
32.0
152.0
125.0
166.0
135.0
114.0
96.0
212.0
79.0
-206.0
1420.0
-338.0
-553.0
-517.0
-194.0
-401.0
-521.0
-573.0
-559.0
-538.0
-496.0
-525.0
-506.0
-332.0
24.0
-73.0
-121.0
500.0
115.0
182.0
290.0
525.0
718.0
711.0
107.0
-441.0
-729.0
-730.0
-680.0
-682.0
-685.0
-634.0
-514.0
-210.0
-341.0
-418.0
623.0
96.0
228.0
496.0
906.0
1478.0
1579.0
1029.0
454.0
30.0
-96.0
-299.0
-572.0
-787.0
-887.0
-923.0
-785.0
-736.0
-832.0
395.0
-1441.0
-821.0
-389.0
89.0
706.0
1113.0
902.0
388.0
175.0
207.0
239.0
241.0
213.0
186.0
87.0
166.0
-82.0
-414.0
1042.0
-777.0
-696.0
-515.0
-169.0
297.0
582.0
270.0
-124.0
-292.0
-354.0
-288.0
-232.0
-137.0
48.0
234.0
509.0
311.0
152.0
1527.0
445.0
54.0
-104.0
40.0
468.0
503.0
27.0
-468.0
-688.0
-744.0
-714.0
-763.0
-752.0
-571.0
-397.0
-498.0
-457.0
-1641.0
-685.0
52.0
512.0
1068.0
1474.0
1269.0
551.0
-84.0
-338.0
-521.0
-724.0
-833.0
-855.0
-845.0
-716.0
-452.0
-577.0
-573.0
914.0
-7.0
-32.0
108.0
476.0
1062.0
1170.0
822.0
458.0
257.0
229.0
174.0
130.0
1.0
-136.0
-303.0
-405.0
-298.0
-605.0
-712.0
-1963.0
-1234.0
-646.0
-127.0
453.0
939.0
882.0
346.0
-154.0
-302.0
-271.0
-208.0
-65.0
38.0
111.0
167.0
336.0
289.0
30.0
837.0
-1174.0
-629.0
-326.0
-6.0
425.0
748.0
500.0
48.0
-242.0
-339.0
-309.0
-259.0
-286.0
-295.0
-237.0
-96.0
156.0
134.0
315.0
-1007.0
-283.0
203.0
518.0
839.0
1255.0
994.0
298.0
-226.0
-510.0
-647.0
-644.0
-634.0
-673.0
-665.0
-562.0
-218.0
842.0
354.0
370.0
405.0
626.0
882.0
915.0
298.0
-324.0
-629.0
-750.0
-787.0
-802.0
-786.0
-746.0
-652.0
-375.0
-364.0
-411.0
1130.0
-513.0
-91.0
269.0
662.0
1203.0
1422.0
834.0
209.0
-258.0
-535.0
-710.0
-819.0
-851.0
-898.0
-845.0
-591.0
-694.0
-719.0
1349.0
153.0
36.0
107.0
534.0
1140.0
1304.0
876.0
363.0
-31.0
-165.0
-339.0
-546.0
-752.0
-836.0
-706.0
-835.0
-864.0
1032.0
-155.0
-301.0
-201.0
166.0
687.0
920.0
567.0
117.0
31.0
-48.0
33.0
43.0
27.0
-32.0
129.0
-85.0
-406.0
1183.0
-860.0
-871.0
-756.0
-346.0
240.0
579.0
275.0
-275.0
-539.0
-661.0
-658.0
-667.0
-621.0
-503.0
-134.0
-103.0
-179.0
1765.0
-55.0
-2.0
159.0
375.0
689.0
691.0
234.0
85.0
67.0
18.0
-14.0
-20.0
-40.0
-352.0
-196.0
-2161.0
-1330.0
-759.0
-259.0
265.0
680.0
538.0
106.0
-147.0
-253.0
-233.0
-241.0
-220.0
-154.0
69.0
451.0
301.0
206.0
-1061.0
-439.0
61.0
355.0
668.0
968.0
804.0
194.0
-314.0
-511.0
-577.0
-593.0
-600.0
-576.0
-534.0
-371.0
-83.0
-248.0
-349.0
-1442.0
-606.0
132.0
687.0
1269.0
1738.0
1646.0
950.0
257.0
-199.0
-532.0
-614.0
-771.0
-829.0
-828.0
-746.0
-586.0
-437.0
-542.0
221.0
-1558.0
-753.0
-149.0
397.0
956.0
1411.0
1381.0
959.0
636.0
445.0
293.0
69.0
-210.0
-361.0
-557.0
-571.0
-509.0
-648.0
-327.0
-2007.0
-1049.0
-405.0
107.0
686.0
1063.0
959.0
511.0
300.0
288.0
328.0
290.0
224.0
104.0
-95.0
-107.0
-70.0
17.0
335.0
600.0
380.0
-125.0
-530.0
-665.0
-687.0
-683.0
-671.0
-670.0
-615.0
-491.0
-373.0
-141.0
-119.0
328.0
-1542.0
-512.0
115.0
566.0
1010.0
1372.0
1010.0
276.0
-286.0
-563.0
-625.0
-631.0
-607.0
-567.0
-540.0
-377.0
-254.0
-365.0
-146.0
-1369.0
-630.0
23.0
571.0
1194.0
1620.0
1494.0
919.0
425.0
24.0
-274.0
-493.0
-683.0
-712.0
-693.0
-577.0
-462.0
-571.0
-566.0
-1624.0
-909.0
-222.0
303.0
982.0
1479.0
1499.0
1079.0
686.0
431.0
285.0
160.0
-54.0
-296.0
-509.0
-691.0
-494.0
-684.0
-836.0
814.0
-997.0
-723.0
-524.0
-74.0
515.0
846.0
560.0
99.0
-174.0
-178.0
-64.0
17.0
61.0
33.0
-2.0
19.0
-34.0
-364.0
-350.0
-1969.0
-1236.0
-708.0
-714.0
-763.0
-752.0
-571.0
-397.0
-498.0
-457.0
-1641.0
-685.0
52.0
512.0
1068.0
1474.0
1269.0
551.0
-84.0
-338.0
-521.0
-724.0
-833.0
-855.0
-845.0
-716.0
-452.0
-577.0
-573.0
914.0
-7.0
-32.0
108.0
476.0
1062.0
1170.0
822.0
458.0
257.0
229.0
174.0
130.0
1.0
-136.0
-303.0
-405.0
-298.0
-605.0
-712.0
-1963.0
-1234.0
-646.0
-127.0
453.0
939.0
882.0
346.0
-154.0
-302.0
-271.0
-208.0
-65.0
38.0
111.0
167.0
336.0
289.0
30.0
837.0
-1174.0
-629.0
-326.0
-6.0
425.0
748.0
500.0
48.0
-242.0
-339.0
-309.0
-259.0
-286.0
-295.0
-237.0
-96.0
156.0
134.0
315.0
-1007.0
-283.0
203.0
518.0
839.0
1255.0
994.0
298.0
-226.0
-510.0
-647.0
-644.0
-634.0
-673.0
-665.0
-562.0
-218.0
842.0
354.0
370.0
405.0
626.0
882.0
915.0
298.0
-324.0
-629.0
-750.0
-787.0
-802.0
-786.0
-746.0
-652.0
-375.0
-364.0
-411.0
1130.0
-513.0
-91.0
269.0
662.0
1203.0
1422.0
834.0
209.0
-258.0
-535.0
-710.0
-819.0
-851.0
-898.0
-845.0
-591.0
-694.0
-719.0
1349.0
153.0
36.0
107.0
534.0
1140.0
1304.0
876.0
363.0
-31.0
-165.0
-339.0
-546.0
-752.0
-836.0
-706.0
-835.0
-864.0
1032.0
-155.0
-301.0
-201.0
166.0
687.0
920.0
567.0
117.0
31.0
-48.0
33.0
43.0
27.0
-32.0
129.0
-85.0
-406.0
1183.0
-860.0
-871.0
-756.0
-346.0
240.0
579.0
275.0
-275.0
-539.0
-661.0
-658.0
-667.0
-621.0
-503.0
-134.0
-103.0
-179.0
1765.0
-55.0
-2.0
159.0
375.0
689.0
-234.0
533.0
567.0
513.0
478.0
390.0
290.0
50.0
-164.0
-379.0
-498.0
-353.0
-570.0
-685.0
1235.0
-44.0
-294.0
-210.0
95.0
636.0
828.0
387.0
-12.0
-138.0
-165.0
-50.0
-1.0
-5.0
-23.0
-46.0
-33.0
-32.0
-398.0
-602.0
-1684.0
-1140.0
-633.0
-185.0
320.0
798.0
827.0
370.0
-6.0
-163.0
-167.0
-136.0
-71.0
-110.0
6.0
233.0
417.0
272.0
286.0
-1276.0
-653.0
-334.0
-128.0
356.0
826.0
681.0
135.0
-213.0
-415.0
-476.0
-484.0
-467.0
-473.0
-377.0
-177.0
-264.0
-270.0
1881.0
56.0
51.0
132.0
364.0
610.0
606.0
-5.0
-566.0
-817.0
-884.0
-826.0
-779.0
-742.0
-629.0
-356.0
-433.0
-426.0
1299.0
-454.0
-74.0
288.0
727.0
1192.0
1414.0
959.0
267.0
-249.0
-526.0
-679.0
-811.0
-739.0
-646.0
-767.0
-828.0
783.0
-161.0
-273.0
-178.0
234.0
792.0
1004.0
586.0
182.0
3.0
-2.0
-42.0
-113.0
-172.0
-242.0
-404.0
-566.0
-703.0
-976.0
-658.0
-2525.0
-1488.0
-718.0
-126.0
393.0
871.0
731.0
274.0
60.0
-88.0
-65.0
32.0
72.0
112.0
188.0
215.0
406.0
123.0
-171.0
-1285.0
-908.0
-452.0
-124.0
338.0
796.0
767.0
250.0
-135.0
-274.0
-265.0
-242.0
-283.0
-317.0
-252.0
-106.0
285.0
239.0
122.0
1988.0
154.0
148.0
178.0
317.0
753.0
832.0
287.0
-394.0
-754.0
-883.0
-919.0
-964.0
-867.0
-799.0
-718.0
-525.0
-355.0
-420.0
-414.0
45.0
-1.0
275.0
562.0
913.0
1356.0
1367.0
766.0
122.0
-135.0
-370.0
-485.0
-591.0
-632.0
-650.0
-509.0
-302.0
-1725.0
-995.0
-470.0
-60.0
516.0
1023.0
934.0
403.0
2.0
-134.0
-112.0
-142.0
-150.0
-164.0
-66.0
193.0
340.0
206.0
829.0
-1217.0
-545.0
-114.0
214.0
556.0
724.0
368.0
-211.0
-467.0
-578.0
-537.0
-557.0
-539.0
-478.0
-322.0
-81.0
-164.0
-117.0
-1085.0
-310.0
357.0
790.0
1197.0
1567.0
1403.0
740.0
234.0
-111.0
-374.0
-527.0
-619.0
-665.0
-569.0
-440.0
-527.0
-572.0
917.0
44.0
-26.0
37.0
468.0
1083.0
1246.0
896.0
465.0
246.0
100.0
-10.0
-281.0
-552.0
-747.0
-803.0
-753.0
-945.0
-983.0
868.0
-227.0
-380.0
-314.0
-7.0
512.0
721.0
381.0
-40.0
-184.0
-95.0
25.0
87.0
99.0
107.0
167.0
228.0
-84.0
-330.0
-17.0
-414.0
-402.0
-292.0
115.0
650.0
711.0
90.0
-28.0
278.0
529.0
305.0
-207.0
-460.0
-542.0
-491.0
-465.0
-456.0
-389.0
-171.0
142.0
17.0
-3.0
1105.0
449.0
343.0
364.0
634.0
849.0
752.0
-5.0
-529.0
-875.0
-961.0
-951.0
-924.0
-870.0
-773.0
-660.0
-505.0
-520.0
178.0
-1563.0
-641.0
38.0
618.0
1189.0
1526.0
1307.0
765.0
278.0
-33.0
-264.0
-376.0
-607.0
-714.0
-665.0
-438.0
-600.0
-659.0
-1480.0
-971.0
-418.0
32.0
607.0
1185.0
1284.0
893.0
616.0
410.0
344.0
233.0
93.0
-57.0
-214.0
-217.0
-564.0
-852.0
510.0
-441.0
-564.0
-457.0
-57.0
471.0
603.0
200.0
-169.0
-311.0
-288.0
-208.0
-163.0
-26.0
163.0
365.0
183.0
31.0
577.0
-47.0
-16.0
-37.0
168.0
488.0
544.0
107.0
-323.0
-474.0
-497.0
-616.0
-419.0
-525.0
-615.0
1340.0
-398.0
-246.0
81.0
644.0
1214.0
1531.0
1129.0
524.0
106.0
-168.0
-427.0
-740.0
-927.0
-975.0
-989.0
-795.0
-919.0
-910.0
-2191.0
-1316.0
-636.0
-1.0
551.0
1083.0
1089.0
671.0
487.0
428.0
378.0
281.0
184.0
63.0
-69.0
-86.0
-320.0
-510.0
376.0
-1676.0
-1030.0
-541.0
-1.0
631.0
964.0
702.0
237.0
-57.0
-136.0
-201.0
-106.0
-57.0
99.0
149.0
254.0
455.0
173.0
-66.0
294.0
-273.0
-413.0
-263.0
29.0
388.0
408.0
-84.0
-459.0
-597.0
-633.0
-601.0
-539.0
-458.0
-338.0
-252.0
-86.0
-98.0
422.0
-1247.0
-213.0
406.0
847.0
1266.0
1494.0
1077.0
353.0
-191.0
-497.0
-592.0
-598.0
-589.0
-538.0
-325.0
-316.0
-339.0
874.0
-1003.0
-285.0
589.0
902.0
555.0
143.0
14.0
33.0
169.0
162.0
207.0
293.0
431.0
71.0
-31.0
-1417.0
-919.0
-524.0
-272.0
164.0
546.0
444.0
-38.0
-437.0
-579.0
-588.0
-588.0
-581.0
-491.0
-276.0
-277.0
-369.0
1620.0
91.0
295.0
493.0
835.0
1193.0
1335.0
819.0
157.0
-315.0
-606.0
-739.0
-816.0
-804.0
-692.0
-604.0
-655.0
-677.0
631.0
-54.0
-55.0
76.0
568.0
1200.0
1420.0
1034.0
507.0
202.0
-1.0
-257.0
-357.0
-667.0
-840.0
-791.0
-767.0
-917.0
-91.0
-2009.0
-1165.0
-558.0
-22.0
621.0
994.0
783.0
240.0
-11.0
3.0
86.0
107.0
90.0
89.0
-57.0
-8.0
-73.0
-413.0
125.0
-1810.0
-1074.0
-497.0
48.0
608.0
897.0
702.0
298.0
-75.0
-128.0
-82.0
-92.0
-5.0
-14.0
-181.0
-4.0
-1938.0
-1029.0
-417.0
69.0
653.0
1037.0
848.0
351.0
-33.0
-144.0
-140.0
-111.0
-96.0
20.0
82.0
305.0
417.0
332.0
1156.0
-947.0
-277.0
69.0
328.0
681.0
841.0
468.0
-162.0
-569.0
-708.0
-700.0
-705.0
-695.0
-609.0
-541.0
-303.0
-333.0
-335.0
1772.0
524.0
508.0
553.0
854.0
1204.0
1233.0
635.0
-21.0
-481.0
-719.0
-805.0
-838.0
-823.0
-757.0
-598.0
-303.0
-461.0
-524.0
-97.0
-309.0
113.0
400.0
936.0
1486.0
1528.0
965.0
372.0
-26.0
-305.0
-419.0
-617.0
-768.0
-859.0
-830.0
-505.0
-605.0
-730.0
1115.0
-591.0
-449.0
-178.0
263.0
770.0
1097.0
902.0
517.0
386.0
320.0
260.0
143.0
44.0
-182.0
-348.0
-290.0
-515.0
-740.0
911.0
-815.0
-561.0
-416.0
285.0
244.0
-62.0
-149.0
-55.0
-24.0
-48.0
-43.0
-36.0
39.0
-186.0
-496.0
-1196.0
-1045.0
-749.0
-418.0
63.0
535.0
473.0
12.0
-348.0
-439.0
-519.0
-408.0
-364.0
-251.0
7.0
-95.0
28.0
-1126.0
-410.0
167.0
529.0
1000.0
1255.0
999.0
293.0
-141.0
-381.0
-485.0
-498.0
-322.0
-368.0
-410.0
567.0
-1404.0
-636.0
-174.0
381.0
1062.0
1519.0
1228.0
754.0
547.0
405.0
286.0
169.0
222.0
-170.0
-524.0
-1845.0
-1299.0
-788.0
-329.0
191.0
681.0
552.0
4.0
-358.0
-461.0
-516.0
-450.0
-360.0
-145.0
-118.0
398.0
-1374.0
-483.0
121.0
596.0
1002.0
1125.0
700.0
114.0
-215.0
-306.0
-352.0
-400.0
-330.0
-157.0
-267.0
-191.0
-1375.0
-551.0
151.0
668.0
1207.0
1639.0
1464.0
884.0
378.0
0.0
-307.0
-486.0
-435.0
-655.0
-775.0
728.0
-176.0
-281.0
-137.0
226.0
753.0
861.0
425.0
70.0
-127.0
-113.0
-17.0
-29.0
-109.0
-197.0
-260.0
-136.0
-398.0
-723.0
716.0
-1267.0
-1068.0
-767.0
-311.0
282.0
584.0
327.0
-139.0
-381.0
-454.0
-404.0
-408.0
-329.0
-181.0
-19.0
163.0
387.0
283.0
111.0
-656.0
-445.0
-141.0
56.0
433.0
782.0
796.0
341.0
-33.0
-190.0
-255.0
-295.0
-273.0
-304.0
-221.0
-194.0
-109.0
91.0
442.0
297.0
187.0
-997.0
-461.0
39.0
323.0
674.0
925.0
838.0
211.0
-276.0
-488.0
-495.0
-534.0
-648.0
-625.0
-643.0
-517.0
-387.0
-209.0
103.0
-41.0
-15.0
1341.0
639.0
556.0
682.0
765.0
1107.0
1055.0
443.0
-189.0
-511.0
-671.0
-648.0
-488.0
-249.0
24.0
225.0
122.0
272.0
-1197.0
-464.0
-25.0
215.0
643.0
944.0
697.0
108.0
-311.0
-505.0
-521.0
-471.0
-505.0
-485.0
-404.0
-349.0
-237.0
13.0
-99.0
-95.0
1061.0
459.0
449.0
538.0
841.0
1196.0
1074.0
484.0
-148.0
-560.0
-791.0
-860.0
-855.0
-880.0
-824.0
-701.0
-614.0
-460.0
-314.0
-404.0
-174.0
-1520.0
-612.0
114.0
625.0
1265.0
1779.0
1683.0
1100.0
546.0
133.0
-129.0
-224.0
-414.0
-588.0
-614.0
-633.0
-588.0
-559.0
-376.0
-242.0
-310.0
-221.0
-1666.0
-755.0
-49.0
582.0
1255.0
1684.0
1652.0
1098.0
573.0
273.0
52.0
-187.0
-315.0
-437.0
-551.0
-527.0
-509.0
-443.0
-306.0
-177.0
-271.0
-35.0
-1293.0
-605.0
-28.0
465.0
1068.0
1618.0
1534.0
1023.0
577.0
-63.0
-407.0
-490.0
-543.0
-508.0
-493.0
-362.0
-93.0
-241.0
-283.0
1227.0
275.0
173.0
382.0
834.0
1387.0
1504.0
1006.0
419.0
-16.0
-318.0
-539.0
-656.0
-807.0
-956.0
-986.0
-928.0
-848.0
-777.0
-576.0
-437.0
-479.0
192.0
-1518.0
-769.0
-176.0
376.0
1021.0
1556.0
1480.0
981.0
631.0
432.0
248.0
89.0
-24.0
-193.0
-388.0
-458.0
-529.0
-500.0
-450.0
-325.0
-444.0
-165.0
-1626.0
-829.0
-278.0
157.0
630.0
1115.0
1159.0
698.0
429.0
319.0
287.0
271.0
172.0
94.0
-44.0
-239.0
-438.0
-579.0
-469.0
-642.0
-691.0
1158.0
-358.0
-411.0
-284.0
86.0
659.0
966.0
658.0
257.0
-17.0
-53.0
79.0
103.0
41.0
-54.0
-110.0
-234.0
-420.0
-573.0
-658.0
-624.0
-850.0
-941.0
-956.0
52.0
761.0
1356.0
1125.0
468.0
-154.0
-533.0
-686.0
-686.0
-674.0
-617.0
-556.0
-533.0
-494.0
-375.0
-281.0
-89.0
-4.0
-95.0
798.0
-935.0
-117.0
469.0
921.0
1369.0
1524.0
1046.0
381.0
-254.0
-500.0
-533.0
-528.0
-509.0
-528.0
-486.0
-419.0
-358.0
-295.0
-224.0
98.0
-33.0
-26.0
2101.0
573.0
445.0
470.0
686.0
1003.0
1043.0
522.0
-175.0
-545.0
-716.0
-745.0
-715.0
-643.0
-627.0
-582.0
-535.0
-456.0
-411.0
-246.0
-56.0
-237.0
-99.0
-1294.0
-431.0
183.0
628.0
1064.0
1398.0
1163.0
481.0
-114.0
-430.0
-517.0
-554.0
-584.0
-569.0
-512.0
-416.0
-356.0
-277.0
-115.0
78.0
-89.0
-76.0
-1230.0
-393.0
246.0
698.0
1149.0
1624.0
1522.0
772.0
89.0
-358.0
-579.0
-659.0
-712.0
-238.0
-24.0
66.0
316.0
-26.0
-392.0
1418.0
-426.0
-633.0
-617.0
-289.0
205.0
486.0
192.0
-235.0
-418.0
-480.0
-421.0
-418.0
-401.0
-281.0
-131.0
70.0
211.0
441.0
281.0
137.0
-430.0
-204.0
27.0
142.0
351.0
676.0
668.0
176.0
-229.0
-455.0
-495.0
-415.0
-380.0
-344.0
-344.0
-284.0
-171.0
198.0
151.0
101.0
1416.0
-625.0
-238.0
18.0
237.0
567.0
688.0
269.0
-245.0
-524.0
-668.0
-660.0
-605.0
-529.0
-447.0
-365.0
-217.0
-90.0
-199.0
21.0
-1065.0
-232.0
353.0
770.0
1225.0
1608.0
1356.0
637.0
12.0
-386.0
-473.0
-564.0
-550.0
-533.0
-526.0
-472.0
-355.0
-129.0
-256.0
-329.0
68.0
-28.0
264.0
545.0
985.0
1401.0
1341.0
717.0
42.0
-259.0
-464.0
-636.0
-784.0
-708.0
-657.0
-332.0
-234.0
-289.0
1587.0
1.0
182.0
419.0
698.0
1093.0
1239.0
748.0
118.0
-365.0
-599.0
-688.0
-729.0
-728.0
-691.0
-642.0
-558.0
-449.0
-521.0
-256.0
-1713.0
-922.0
-341.0
131.0
759.0
1300.0
1267.0
855.0
541.0
322.0
119.0
-85.0
-348.0
-447.0
-554.0
-632.0
-503.0
-590.0
-664.0
716.0
-875.0
-584.0
-249.0
106.0
579.0
931.0
707.0
372.0
296.0
268.0
316.0
280.0
213.0
96.0
-72.0
-159.0
-43.0
-413.0
-697.0
503.0
-401.0
-493.0
-387.0
26.0
575.0
768.0
352.0
-15.0
-201.0
-160.0
-170.0
-113.0
38.0
98.0
133.0
122.0
-3.0
-431.0
-295.0
-1760.0
-1181.0
-721.0
-263.0
296.0
834.0
732.0
295.0
-75.0
-170.0
-174.0
-155.0
-101.0
66.0
232.0
283.0
177.0
899.0
-1034.0
-567.0
-331.0
-71.0
361.0
657.0
449.0
-34.0
-303.0
-379.0
-403.0
-355.0
-343.0
-349.0
-258.0
-208.0
-72.0
124.0
165.0
485.0
-1081.0
-265.0
211.0
602.0
968.0
1390.0
1171.0
422.0
-157.0
-496.0
-566.0
-582.0
-626.0
-615.0
-662.0
-558.0
-291.0
-346.0
-362.0
1252.0
-474.0
-8.0
381.0
778.0
1170.0
1416.0
1054.0
363.0
-142.0
-455.0
-559.0
-638.0
-656.0
-628.0
-541.0
-282.0
-429.0
-455.0
-562.0
-413.0
-2.0
306.0
799.0
1447.0
1540.0
1106.0
608.0
343.0
203.0
25.0
-243.0
-494.0
-682.0
-665.0
-524.0
-734.0
-754.0
-1909.0
-1169.0
-528.0
-54.0
488.0
1064.0
1076.0
606.0
331.0
238.0
224.0
166.0
53.0
-111.0
-332.0
-526.0
-640.0
-708.0
-860.0
-259.0
-1939.0
-581.0
392.0
855.0
595.0
235.0
30.0
-75.0
-70.0
-66.0
-84.0
-29.0
9.0
213.0
192.0
132.0
1635.0
594.0
387.0
309.0
410.0
603.0
561.0
65.0
-395.0
-740.0
-798.0
-815.0
-747.0
-736.0
-704.0
-656.0
-495.0
-487.0
-451.0
350.0
-1417.0
-639.0
-79.0
460.0
971.0
1309.0
1044.0
530.0
150.0
-127.0
-158.0
-227.0
-405.0
-564.0
-649.0
-499.0
-598.0
-698.0
891.0
-815.0
-628.0
-377.0
11.0
580.0
954.0
776.0
400.0
177.0
104.0
108.0
50.0
-115.0
-190.0
-195.0
-233.0
-572.0
-719.0
-136.0
-424.0
-227.0
7.0
424.0
930.0
953.0
467.0
21.0
-154.0
-201.0
-3380.0
-1442.0
-380.0
153.0
523.0
301.0
138.0
-807.0
-572.0
-269.0
-23.0
439.0
843.0
879.0
375.0
6.0
-126.0
-93.0
-66.0
171.0
289.0
164.0
1273.0
-799.0
-305.0
56.0
257.0
590.0
846.0
475.0
-146.0
-553.0
-628.0
-550.0
-551.0
-484.0
-405.0
-254.0
-177.0
-273.0
665.0
-1156.0
-398.0
214.0
786.0
1257.0
1461.0
1138.0
685.0
259.0
96.0
-131.0
-351.0
-509.0
-611.0
-621.0
-506.0
-594.0
-432.0
-1830.0
-957.0
-361.0
133.0
690.0
1121.0
1052.0
679.0
310.0
292.0
320.0
263.0
224.0
161.0
97.0
67.0
-37.0
-378.0
-558.0
-2071.0
-1248.0
-621.0
-125.0
461.0
930.0
915.0
502.0
171.0
6.0
-17.0
-38.0
33.0
181.0
212.0
284.0
490.0
333.0
55.0
1488.0
-435.0
-381.0
-292.0
-113.0
331.0
662.0
371.0
-124.0
-349.0
-397.0
-381.0
-306.0
-306.0
-377.0
-399.0
-282.0
16.0
-110.0
-63.0
167.0
497.0
924.0
1366.0
1360.0
864.0
272.0
34.0
-169.0
-439.0
-690.0
-773.0
-748.0
-622.0
-677.0
-700.0
1116.0
-63.0
-171.0
-54.0
341.0
786.0
953.0
693.0
395.0
212.0
133.0
54.0
-28.0
-150.0
-311.0
-465.0
-609.0
-832.0
-108.0
-2134.0
-1245.0
-630.0
-91.0
575.0
1026.0
799.0
270.0
-12.0
-98.0
-105.0
-146.0
-139.0
-37.0
47.0
242.0
-72.0
-284.0
-1208.0
-873.0
-528.0
-189.0
255.0
610.0
701.0
344.0
36.0
-110.0
-117.0
-149.0
-156.0
-158.0
-60.0
108.0
107.0
369.0
-1350.0
-389.0
206.0
585.0
986.0
1273.0
949.0
291.0
-210.0
-482.0
-601.0
-616.0
-571.0
-538.0
-333.0
-450.0
-528.0
1373.0
-402.0
-293.0
-78.0
390.0
1042.0
1410.0
1092.0
572.0
241.0
79.0
-1939.0
-581.0
392.0
855.0
595.0
235.0
30.0
-75.0
-70.0
-66.0
-84.0
-29.0
9.0
213.0
192.0
132.0
1635.0
594.0
387.0
309.0
410.0
603.0
561.0
65.0
-395.0
-740.0
-798.0
-815.0
-747.0
-736.0
-704.0
-656.0
-495.0
-487.0
-451.0
350.0
-1417.0
-639.0
-79.0
460.0
971.0
1309.0
1044.0
530.0
150.0
-127.0
-158.0
-227.0
-405.0
-564.0
-649.0
-499.0
-598.0
-698.0
891.0
-815.0
-628.0
-377.0
11.0
580.0
954.0
776.0
400.0
177.0
104.0
108.0
50.0
-115.0
-190.0
-195.0
-233.0
-572.0
-719.0
-136.0
-424.0
-227.0
7.0
424.0
930.0
953.0
467.0
21.0
-154.0
-201.0
-3380.0
-1442.0
-380.0
153.0
523.0
301.0
138.0
-807.0
-572.0
-269.0
-23.0
439.0
843.0
879.0
375.0
6.0
-126.0
-93.0
-66.0
171.0
289.0
164.0
1273.0
-799.0
-305.0
56.0
257.0
590.0
846.0
475.0
-146.0
-553.0
-628.0
-550.0
-551.0
-484.0
-405.0
-254.0
-177.0
-273.0
665.0
-1156.0
-398.0
214.0
786.0
1257.0
1461.0
1138.0
685.0
259.0
96.0
-131.0
-351.0
-509.0
-611.0
-621.0
-506.0
-594.0
-432.0
-1830.0
-957.0
-361.0
133.0
690.0
1121.0
1052.0
679.0
310.0
292.0
320.0
263.0
224.0
161.0
97.0
67.0
-37.0
-378.0
-558.0
-2071.0
-1248.0
-621.0
-125.0
461.0
930.0
915.0
502.0
171.0
6.0
-17.0
-38.0
33.0
181.0
212.0
284.0
490.0
333.0
55.0
1488.0
-435.0
-381.0
-292.0
-113.0
331.0
662.0
371.0
-124.0
-349.0
-397.0
-381.0
-306.0
-306.0
-377.0
-399.0
-282.0
16.0
-110.0
-132.0
-80.0
-204.0
-188.0
-194.0
-444.0
-540.0
-686.0
-739.0
-535.0
-671.0
-384.0
-2096.0
-1013.0
-684.0
-53.0
889.0
1212.0
564.0
458.0
282.0
228.0
234.0
-674.0
111.0
20.0
443.0
-24.0
424.0
164.0
459.0
-1634.0
-1190.0
-375.0
-553.0
648.0
1132.0
861.0
359.0
-240.0
-255.0
-160.0
-219.0
-303.0
-108.0
124.0
415.0
372.0
226.0
1157.0
-702.0
-591.0
-200.0
-516.0
464.0
82.0
208.0
-150.0
-187.0
-330.0
-602.0
-507.0
-55.0
-216.0
-63.0
-165.0
672.0
253.0
-183.0
1903.0
722.0
443.0
53.0
678.0
1026.0
1113.0
454.0
-254.0
-780.0
-706.0
-793.0
-874.0
-877.0
-900.0
-862.0
-768.0
-556.0
-422.0
-451.0
405.0
-1323.0
-536.0
91.0
590.0
1114.0
1433.0
1175.0
601.0
136.0
-186.0
-421.0
-199.0
-6.0
73.0
-259.0
-570.0
-561.0
-770.0
-627.0
-432.0
-28.0
506.0
594.0
110.0
-284.0
-430.0
-477.0
-448.0
-387.0
-266.0
-256.0
-40.0
196.0
115.0
413.0
-1496.0
-597.0
-8.0
311.0
652.0
852.0
545.0
-24.0
-420.0
-515.0
-569.0
-575.0
-611.0
-522.0
-468.0
-340.0
-169.0
-299.0
38.0
-1523.0
-558.0
177.0
712.0
1244.0
1529.0
1380.0
754.0
219.0
-113.0
-397.0
-586.0
-683.0
-705.0
-709.0
-684.0
-498.0
-351.0
-506.0
-369.0
-1838.0
-922.0
-265.0
219.0
817.0
1441.0
1474.0
996.0
629.0
439.0
251.0
-39.0
-141.0
-346.0
-490.0
-555.0
-421.0
-302.0
-512.0
-224.0
-1968.0
-1032.0
-377.0
202.0
837.0
1330.0
1268.0
867.0
627.0
550.0
428.0
306.0
100.0
-158.0
-147.0
-189.0
-592.0
-769.0
-534.0
-288.0
118.0
595.0
712.0
305.0
-54.0
-204.0
-187.0
-130.0
11.0
56.0
204.0
111.0
-148.0
639.0
-1334.0
-855.0
-383.0
-15.0
431.0
752.0
484.0
-8.0
-293.0
-416.0
-438.0
-429.0
-418.0
-347.0
-276.0
-374.0
-59.0
-1545.0
-597.0
99.0
628.0
1182.0
1559.0
1323.0
662.0
136.0
-234.0
-373.0
-512.0
-592.0
-653.0
-486.0
-484.0
-554.0
474.0
-1449.0
-756.0
-210.0
303.0
938.0
1425.0
1245.0
808.0
529.0
330.0
269.0
98.0
-173.0
-377.0
-485.0
-466.0
-689.0
-782.0
-297.0
-574.0
-405.0
-145.0
237.0
751.0
866.0
465.0
105.0
41.0
186.0
209.0
264.0
253.0
230.0
168.0
175.0
-95.0
-379.0
1514.0
-15.0
-451.0
-491.0
-163.0
339.0
494.0
167.0
-207.0
-338.0
-371.0
-418.0
-321.0
-65.0
-54.0
-26.0
1335.0
550.0
392.0
384.0
523.0
903.0
849.0
209.0
-392.0
-725.0
-780.0
-793.0
-730.0
-685.0
-605.0
-338.0
-373.0
-451.0
1398.0
-488.0
-305.0
46.0
553.0
1207.0
1459.0
1131.0
537.0
185.0
-140.0
-370.0
-498.0
-674.0
-789.0
-673.0
-871.0
-919.0
818.0
-100.0
-315.0
-188.0
246.0
851.0
1014.0
537.0
242.0
87.0
35.0
-51.0
-169.0
-311.0
-417.0
-345.0
-685.0
-830.0
-1903.0
-1296.0
-680.0
-173.0
382.0
866.0
887.0
441.0
94.0
46.0
131.0
187.0
213.0
200.0
260.0
138.0
-203.0
618.0
-1450.0
-999.0
-624.0
-163.0
403.0
759.0
516.0
24.0
-236.0
-295.0
-300.0
-214.0
-90.0
59.0
163.0
319.0
15.0
-160.0
-1688.0
-1120.0
-647.0
-267.0
296.0
6.0
-113.0
-167.0
-105.0
19.0
317.0
235.0
77.0
1578.0
-469.0
-422.0
-264.0
-29.0
354.0
586.0
254.0
-243.0
-483.0
-589.0
-531.0
-505.0
-464.0
-452.0
-312.0
-47.0
-200.0
-211.0
573.0
303.0
399.0
609.0
905.0
1300.0
1191.0
577.0
-81.0
-368.0
-561.0
-651.0
-697.0
-702.0
-671.0
-608.0
-464.0
-533.0
-270.0
-1888.0
-953.0
-255.0
363.0
928.0
1427.0
1348.0
840.0
460.0
241.0
122.0
-64.0
-331.0
-572.0
-730.0
-834.0
-813.0
-756.0
-830.0
-155.0
-1753.0
-875.0
-243.0
283.0
822.0
1231.0
1032.0
637.0
464.0
370.0
340.0
246.0
156.0
39.0
-117.0
-277.0
-363.0
-380.0
-616.0
-32.0
-1831.0
-1056.0
-517.0
-30.0
509.0
878.0
675.0
222.0
-2.0
-217.0
-134.0
-40.0
110.0
204.0
334.0
172.0
-53.0
853.0
-88.0
-337.0
-377.0
-135.0
306.0
481.0
77.0
-410.0
-584.0
-572.0
-533.0
-538.0
-475.0
-421.0
-309.0
45.0
6.0
6.0
1983.0
664.0
292.0
202.0
310.0
653.0
662.0
102.0
-449.0
-716.0
-778.0
-819.0
-811.0
-769.0
-737.0
-519.0
-267.0
-464.0
-567.0
-803.0
-533.0
-24.0
438.0
915.0
1414.0
1405.0
843.0
322.0
-7.0
-112.0
-287.0
-548.0
-664.0
-630.0
-409.0
-599.0
-690.0
123.0
-291.0
-216.0
-4.0
381.0
890.0
1022.0
691.0
420.0
247.0
127.0
48.0
-166.0
-328.0
-359.0
-598.0
-783.0
-448.0
-628.0
-485.0
-220.0
185.0
663.0
713.0
344.0
1.0
-78.0
5.0
109.0
191.0
307.0
117.0
-82.0
1531.0
-151.0
-332.0
-358.0
-131.0
196.0
346.0
53.0
-297.0
-404.0
-427.0
-234.0
-437.0
-394.0
-17.0
-133.0
143.0
422.0
760.0
1216.0
1170.0
555.0
-30.0
-417.0
-533.0
-662.0
-731.0
-642.0
-772.0
-813.0
1117.0
-242.0
-387.0
-246.0
123.0
641.0
824.0
454.0
183.0
103.0
34.0
0.0
-42.0
-111.0
-204.0
-297.0
-668.0
-736.0
-2339.0
-1515.0
-800.0
-294.0
297.0
769.0
663.0
135.0
-207.0
-363.0
-377.0
-345.0
-180.0
-28.0
102.0
300.0
319.0
154.0
980.0
-999.0
-545.0
-265.0
17.0
384.0
664.0
414.0
-18.0
-321.0
-356.0
-352.0
-295.0
-303.0
-337.0
-252.0
-124.0
253.0
87.0
95.0
-1072.0
-342.0
250.0
591.0
872.0
1188.0
958.0
256.0
-264.0
-518.0
-521.0
-520.0
-532.0
-442.0
-439.0
-312.0
-184.0
47.0
-85.0
-195.0
-361.0
-170.0
539.0
1062.0
1051.0
683.0
461.0
351.0
333.0
269.0
66.0
-168.0
-382.0
-603.0
-726.0
-671.0
-620.0
-730.0
96.0
-1600.0
-880.0
-336.0
176.0
690.0
1088.0
895.0
523.0
360.0
406.0
435.0
410.0
336.0
241.0
117.0
-88.0
-165.0
-183.0
-483.0
-662.0
-1686.0
-1075.0
-510.0
-91.0
429.0
911.0
903.0
447.0
113.0
50.0
144.0
224.0
233.0
163.0
83.0
-81.0
-156.0
-84.0
-442.0
-611.0
-2165.0
-1294.0
-595.0
-114.0
473.0
1011.0
991.0
484.0
110.0
-64.0
-15.0
16.0
93.0
149.0
196.0
250.0
385.0
181.0
3.0
1513.0
325.0
-63.0
-99.0
77.0
463.0
544.0
117.0
-274.0
-392.0
-443.0
-434.0
-431.0
-402.0
-252.0
-56.0
-198.0
-227.0
-273.0
-41.0
315.0
624.0
1012.0
1387.0
236.0
-250.0
-453.0
-539.0
-598.0
-495.0
-232.0
-402.0
-442.0
-1467.0
-802.0
-197.0
273.0
931.0
1421.0
1467.0
1012.0
592.0
341.0
142.0
-93.0
-341.0
-557.0
-592.0
-505.0
-666.0
-722.0
-185.0
-485.0
-288.0
-52.0
378.0
913.0
1000.0
506.0
145.0
64.0
88.0
163.0
125.0
37.0
-44.0
-94.0
-163.0
-127.0
-421.0
-307.0
-2413.0
-1480.0
-764.0
-187.0
430.0
858.0
671.0
156.0
-139.0
-238.0
-234.0
-245.0
-184.0
-88.0
83.0
135.0
459.0
350.0
185.0
2081.0
280.0
-89.0
-176.0
-5.0
362.0
515.0
129.0
-390.0
-606.0
-611.0
-609.0
-597.0
-583.0
-518.0
-415.0
-221.0
-218.0
-283.0
1745.0
558.0
393.0
428.0
651.0
964.0
1008.0
411.0
-248.0
-602.0
-742.0
-751.0
-803.0
-767.0
-685.0
-721.0
-780.0
1019.0
-70.0
-221.0
-109.0
261.0
757.0
974.0
535.0
127.0
-8.0
-113.0
-40.0
33.0
61.0
67.0
148.0
262.0
-73.0
-398.0
-193.0
-507.0
-512.0
-375.0
5.0
523.0
615.0
124.0
-351.0
-527.0
-588.0
-530.0
-525.0
-480.0
-372.0
-154.0
102.0
-5.0
-33.0
-266.0
-117.0
161.0
352.0
609.0
1010.0
864.0
198.0
-316.0
-546.0
-564.0
-557.0
-561.0
-548.0
-483.0
-429.0
-103.0
-187.0
-213.0
1651.0
-342.0
-34.0
327.0
747.0
1182.0
1362.0
942.0
302.0
-193.0
-500.0
-681.0
-764.0
-759.0
-755.0
-686.0
-549.0
-384.0
-396.0
43.0
-1726.0
-752.0
-99.0
409.0
1035.0
1535.0
1423.0
936.0
592.0
404.0
331.0
200.0
-35.0
-327.0
-541.0
-582.0
-574.0
-707.0
-242.0
-2092.0
-1066.0
51.0
737.0
755.0
358.0
43.0
-79.0
-88.0
-75.0
-77.0
-37.0
-32.0
84.0
334.0
309.0
280.0
2224.0
914.0
549.0
420.0
539.0
1169.0
1002.0
293.0
-438.0
-813.0
-877.0
-875.0
-884.0
-852.0
-781.0
-689.0
-648.0
-518.0
-339.0
-330.0
253.0
-1589.0
-522.0
216.0
738.0
1219.0
1486.0
1215.0
551.0
38.0
-277.0
-454.0
-510.0
-547.0
-595.0
-562.0
-473.0
-380.0
-210.0
-377.0
-378.0
-1463.0
-834.0
-281.0
266.0
733.0
1345.0
1442.0
991.0
574.0
339.0
113.0
-75.0
-253.0
-329.0
-424.0
-468.0
-362.0
-194.0
-380.0
-400.0
-1784.0
-944.0
-311.0
224.0
812.0
1382.0
1409.0
911.0
522.0
337.0
201.0
89.0
-95.0
-155.0
-310.0
-451.0
-442.0
-307.0
-516.0
-619.0
-1364.0
-885.0
-391.0
52.0
952.0
796.0
438.0
168.0
-70.0
-322.0
-461.0
-498.0
-481.0
-449.0
-275.0
-57.0
-231.0
-206.0
-1431.0
-687.0
-19.0
576.0
1287.0
1816.0
1750.0
1166.0
619.0
311.0
41.0
-39.0
-332.0
-564.0
-720.0
-701.0
-524.0
-679.0
-751.0
832.0
-62.0
-211.0
-73.0
337.0
832.0
916.0
494.0
147.0
76.0
118.0
96.0
68.0
-18.0
-87.0
-144.0
37.0
-302.0
-535.0
-1831.0
-1263.0
-660.0
-222.0
417.0
968.0
939.0
443.0
-8.0
-197.0
-218.0
-201.0
-168.0
-80.0
40.0
140.0
315.0
168.0
416.0
-1352.0
-613.0
-26.0
319.0
701.0
977.0
667.0
31.0
-393.0
-549.0
-541.0
-523.0
-508.0
-484.0
-419.0
-275.0
-62.0
-87.0
-40.0
1956.0
695.0
457.0
488.0
702.0
1019.0
1018.0
477.0
-174.0
-616.0
-338.0
-217.0
-182.0
-157.0
-102.0
-432.0
-705.0
1239.0
-445.0
-616.0
-477.0
-106.0
446.0
658.0
290.0
-164.0
-465.0
-447.0
-435.0
-447.0
-288.0
-209.0
-2.0
137.0
386.0
250.0
83.0
1934.0
119.0
-45.0
-174.0
-79.0
285.0
424.0
64.0
-351.0
-583.0
-608.0
-554.0
-496.0
-421.0
-406.0
-359.0
-270.0
31.0
162.0
127.0
1337.0
-510.0
-122.0
179.0
427.0
759.0
919.0
446.0
-172.0
-477.0
-608.0
-567.0
-475.0
-446.0
-420.0
-378.0
-325.0
-121.0
-179.0
-317.0
1307.0
-383.0
-108.0
211.0
637.0
1107.0
1364.0
914.0
317.0
-83.0
-348.0
-579.0
-682.0
-687.0
-671.0
-707.0
-607.0
-450.0
-543.0
62.0
-1679.0
-835.0
-248.0
285.0
887.0
1412.0
1280.0
796.0
408.0
252.0
146.0
-34.0
-269.0
-304.0
-540.0
-555.0
1436.0
-47.0
-89.0
95.0
414.0
886.0
1019.0
590.0
-97.0
-592.0
-865.0
-983.0
-1001.0
-1015.0
-1051.0
-846.0
-578.0
-690.0
-673.0
-1880.0
-1129.0
-463.0
69.0
719.0
1312.0
1287.0
795.0
479.0
335.0
266.0
144.0
-60.0
-56.0
-254.0
-224.0
-444.0
-586.0
1085.0
-647.0
-521.0
-342.0
8.0
508.0
780.0
474.0
88.0
-151.0
-140.0
21.0
120.0
120.0
147.0
249.0
19.0
-239.0
187.0
-398.0
-418.0
-324.0
-43.0
388.0
482.0
39.0
-392.0
-552.0
-570.0
-469.0
-395.0
-363.0
-263.0
6.0
-11.0
-33.0
-41.0
20.0
360.0
529.0
867.0
1207.0
1085.0
340.0
-263.0
-539.0
-690.0
-753.0
-726.0
-795.0
-741.0
-478.0
-548.0
-534.0
-1170.0
-606.0
-4.0
449.0
1013.0
1570.0
673.0
379.0
328.0
355.0
222.0
111.0
128.0
243.0
-107.0
-419.0
-1812.0
-1238.0
-706.0
-317.0
165.0
666.0
660.0
214.0
-141.0
-288.0
-260.0
-218.0
-223.0
-151.0
72.0
372.0
204.0
126.0
187.0
94.0
248.0
430.0
683.0
909.0
738.0
117.0
-362.0
-545.0
-590.0
-567.0
-570.0
-587.0
-506.0
-390.0
-482.0
-470.0
1322.0
283.0
110.0
263.0
702.0
1174.0
1325.0
818.0
345.0
34.0
-171.0
-418.0
-563.0
-756.0
-797.0
-630.0
-770.0
-837.0
905.0
-729.0
-569.0
-275.0
224.0
863.0
1233.0
947.0
464.0
214.0
112.0
-95.0
-364.0
-592.0
-692.0
-645.0
-919.0
-982.0
844.0
-133.0
-331.0
-236.0
124.0
586.0
665.0
253.0
-146.0
-313.0
-235.0
-150.0
-135.0
-65.0
-13.0
259.0
80.0
-200.0
-492.0
-388.0
-44.0
435.0
668.0
293.0
-120.0
-226.0
-226.0
-121.0
-123.0
19.0
105.0
326.0
96.0
-188.0
1772.0
-9.0
-321.0
-360.0
-143.0
303.0
496.0
90.0
-349.0
-534.0
-615.0
-585.0
-582.0
-556.0
-322.0
-319.0
-351.0
1311.0
-725.0
-206.0
230.0
650.0
1106.0
1309.0
859.0
172.0
-310.0
-587.0
-729.0
-789.0
-741.0
-550.0
-675.0
-734.0
602.0
-111.0
-187.0
-54.0
329.0
853.0
1064.0
608.0
251.0
141.0
148.0
100.0
-16.0
-100.0
-142.0
-575.0
-868.0
-262.0
-727.0
-655.0
-393.0
84.0
622.0
710.0
160.0
-221.0
-389.0
-326.0
-237.0
-322.0
-155.0
147.0
124.0
-16.0
1190.0
-926.0
-616.0
-418.0
-69.0
427.0
693.0
352.0
-160.0
-362.0
-447.0
-403.0
-421.0
-418.0
-325.0
-166.0
9.0
-1980.0
-1042.0
-373.0
160.0
776.0
1209.0
1039.0
553.0
332.0
351.0
416.0
412.0
302.0
259.0
161.0
33.0
12.0
-387.0
-529.0
-2040.0
-1302.0
-691.0
-128.0
518.0
1014.0
929.0
351.0
-45.0
-183.0
-255.0
-219.0
-254.0
-123.0
6.0
212.0
399.0
250.0
87.0
2190.0
481.0
60.0
30.0
185.0
512.0
558.0
99.0
-416.0
-636.0
-671.0
-582.0
-611.0
-563.0
-505.0
-466.0
-297.0
-215.0
-208.0
767.0
-1008.0
-173.0
307.0
755.0
1170.0
1437.0
951.0
203.0
-362.0
-603.0
-658.0
-649.0
-630.0
-615.0
-551.0
-459.0
-239.0
-307.0
-378.0
1779.0
385.0
328.0
535.0
892.0
1312.0
1411.0
853.0
196.0
-263.0
-523.0
-673.0
-780.0
-845.0
-764.0
-686.0
-571.0
-321.0
-465.0
-517.0
1186.0
244.0
882.0
1465.0
1475.0
719.0
45.0
-302.0
-547.0
-630.0
-703.0
-699.0
-678.0
-649.0
-505.0
-228.0
-387.0
-489.0
-118.0
-142.0
84.0
462.0
1022.0
1485.0
1473.0
873.0
238.0
-182.0
-464.0
-662.0
-773.0
-862.0
-849.0
-785.0
-589.0
-393.0
-513.0
-518.0
-1511.0
-827.0
-249.0
188.0
804.0
1450.0
1553.0
997.0
530.0
325.0
178.0
-23.0
-219.0
-465.0
-560.0
-661.0
-624.0
-552.0
-684.0
-570.0
-2105.0
-1221.0
-522.0
62.0
718.0
1235.0
1171.0
631.0
271.0
221.0
139.0
191.0
156.0
111.0
74.0
-11.0
50.0
-329.0
-527.0
1296.0
-568.0
-620.0
-446.0
-44.0
538.0
842.0
454.0
-51.0
-271.0
-295.0
-276.0
-99.0
-67.0
47.0
127.0
280.0
105.0
-123.0
1826.0
69.0
-342.0
-403.0
-146.0
369.0
-164.0
-436.0
-528.0
-503.0
-461.0
-489.0
-424.0
-253.0
43.0
14.0
-42.0
2119.0
706.0
349.0
230.0
351.0
650.0
687.0
48.0
-531.0
-848.0
-895.0
-908.0
-864.0
-851.0
-889.0
-735.0
-411.0
-550.0
-525.0
-1423.0
-532.0
199.0
675.0
1178.0
1610.0
1464.0
680.0
93.0
-174.0
-395.0
-476.0
-519.0
-535.0
-467.0
-254.0
-427.0
-455.0
-1395.0
-766.0
-149.0
245.0
760.0
1242.0
1365.0
991.0
573.0
405.0
287.0
225.0
66.0
8.0
12.0
-298.0
-568.0
1138.0
-605.0
-628.0
-434.0
-71.0
463.0
712.0
320.0
-128.0
-338.0
-359.0
-340.0
-311.0
-188.0
-98.0
127.0
81.0
68.0
1013.0
374.0
252.0
281.0
457.0
753.0
629.0
-29.0
-545.0
-741.0
-798.0
-840.0
-825.0
-790.0
-662.0
-483.0
-552.0
-566.0
-291.0
64.0
714.0
1338.0
1234.0
663.0
267.0
51.0
-153.0
-374.0
-464.0
-579.0
-660.0
-586.0
-738.0
-799.0
825.0
-120.0
-244.0
-107.0
179.0
719.0
857.0
429.0
38.0
-74.0
-137.0
-26.0
71.0
76.0
56.0
133.0
152.0
-106.0
-275.0
-1910.0
-1238.0
-696.0
-212.0
377.0
868.0
799.0
204.0
-204.0
-362.0
-393.0
-415.0
-447.0
-419.0
-305.0
65.0
126.0
76.0
1281.0
-639.0
-145.0
204.0
494.0
960.0
1095.0
581.0
-69.0
-406.0
-573.0
-506.0
-591.0
-599.0
-503.0
-392.0
-458.0
-509.0
1490.0
92.0
-17.0
150.0
602.0
1167.0
1397.0
970.0
433.0
119.0
-125.0
-343.0
-480.0
-607.0
-640.0
-669.0
-871.0
-345.0
-2303.0
-1403.0
-731.0
-90.0
507.0
995.0
817.0
282.0
-32.0
-61.0
-121.0
-440.0
-586.0
1137.0
92.0
-155.0
-2.0
444.0
1091.0
1317.0
896.0
402.0
152.0
23.0
-115.0
-214.0
-294.0
-651.0
-498.0
-2624.0
-1697.0
-968.0
-321.0
331.0
741.0
584.0
148.0
-171.0
-247.0
-200.0
-84.0
1.0
-49.0
450.0
-1304.0
-372.0
217.0
640.0
996.0
1143.0
703.0
36.0
-437.0
-591.0
-630.0
-572.0
-495.0
-766.0
-907.0
-1747.0
-1036.0
-388.0
94.0
694.0
1235.0
1200.0
788.0
484.0
331.0
266.0
157.0
63.0
15.0
-400.0
-552.0
-2242.0
-1387.0
-729.0
-164.0
470.0
986.0
869.0
367.0
25.0
-94.0
-179.0
-215.0
-189.0
-103.0
232.0
102.0
197.0
-1420.0
-409.0
243.0
655.0
983.0
1367.0
1083.0
390.0
-124.0
-345.0
-393.0
-495.0
-544.0
-483.0
-417.0
-251.0
-390.0
-166.0
9.0
-1980.0
-1042.0
-373.0
160.0
776.0
1209.0
1039.0
553.0
332.0
351.0
416.0
412.0
302.0
259.0
161.0
33.0
12.0
-387.0
-529.0
-2040.0
-1302.0
-691.0
-128.0
518.0
1014.0
929.0
351.0
-45.0
-183.0
-255.0
-219.0
-254.0
-123.0
6.0
212.0
399.0
250.0
87.0
2190.0
481.0
60.0
30.0
185.0
512.0
558.0
99.0
-416.0
-636.0
-671.0
-582.0
-611.0
-563.0
-505.0
-466.0
-297.0
-215.0
-208.0
767.0
-1008.0
-173.0
307.0
755.0
1170.0
1437.0
951.0
203.0
-362.0
-603.0
-658.0
-649.0
-630.0
-615.0
-551.0
-459.0
-239.0
-307.0
-378.0
1779.0
385.0
328.0
535.0
892.0
1312.0
1411.0
853.0
196.0
-263.0
-523.0
-673.0
-780.0
-845.0
-764.0
-686.0
-571.0
-321.0
-465.0
-517.0
1186.0
244.0
882.0
1465.0
1475.0
719.0
45.0
-302.0
-547.0
-630.0
-703.0
-699.0
-678.0
-649.0
-505.0
-228.0
-387.0
-489.0
-118.0
-142.0
84.0
462.0
1022.0
1485.0
1473.0
873.0
238.0
-182.0
-464.0
-662.0
-773.0
-862.0
-849.0
-785.0
-589.0
-393.0
-513.0
-518.0
-1511.0
-827.0
-249.0
188.0
804.0
1450.0
1553.0
997.0
530.0
325.0
178.0
-23.0
-219.0
-465.0
-560.0
-661.0
-624.0
-552.0
-684.0
-570.0
-2105.0
-1221.0
-522.0
62.0
718.0
1235.0
1171.0
631.0
271.0
221.0
139.0
191.0
156.0
111.0
74.0
-11.0
50.0
-329.0
-527.0
1296.0
-568.0
-620.0
-446.0
-44.0
538.0
842.0
454.0
-51.0
-271.0
-295.0
-276.0
-99.0
-67.0
47.0
127.0
280.0
105.0
-123.0
1826.0
69.0
-342.0
-403.0
-146.0
369.0
-164.0
-436.0
-528.0
-503.0
-461.0
-489.0
-424.0
-253.0
43.0
14.0
-42.0
2119.0
706.0
349.0
230.0
351.0
650.0
687.0
48.0
-531.0
-848.0
-895.0
-908.0
-864.0
-851.0
-889.0
-735.0
-411.0
-550.0
-525.0
-1423.0
-532.0
199.0
675.0
1178.0
1610.0
1464.0
680.0
93.0
-174.0
-395.0
-476.0
-519.0
-535.0
-467.0
-254.0
-427.0
-455.0
-1395.0
-766.0
-149.0
245.0
760.0
1242.0
1365.0
991.0
573.0
405.0
287.0
225.0
66.0
8.0
12.0
-298.0
-568.0
1138.0
-605.0
-628.0
-434.0
-71.0
463.0
712.0
320.0
-128.0
-338.0
-359.0
-340.0
-311.0
-188.0
-98.0
127.0
81.0
68.0
1013.0
374.0
252.0
281.0
457.0
753.0
629.0
-29.0
-545.0
-741.0
-798.0
-840.0
-825.0
-790.0
-662.0
-483.0
-552.0
-566.0
-291.0
64.0
714.0
1338.0
1234.0
663.0
267.0
51.0
-153.0
-374.0
-464.0
-579.0
-660.0
-586.0
-738.0
-799.0
825.0
-120.0
-244.0
-107.0
179.0
719.0
857.0
429.0
38.0
-74.0
-137.0
-26.0
71.0
76.0
56.0
133.0
152.0
-106.0
-275.0
-1910.0
-1238.0
-696.0
-212.0
377.0
868.0
799.0
204.0
-204.0
-362.0
-393.0
-415.0
-447.0
-419.0
-305.0
65.0
126.0
76.0
1281.0
-639.0
-145.0
204.0
494.0
960.0
1095.0
581.0
-69.0
-406.0
-573.0
-506.0
-591.0
-599.0
-503.0
-392.0
-458.0
-509.0
1490.0
92.0
-17.0
150.0
602.0
1167.0
1397.0
970.0
433.0
119.0
-125.0
-343.0
-480.0
-607.0
-640.0
-669.0
-871.0
-345.0
-2303.0
-1403.0
-731.0
-90.0
507.0
995.0
817.0
282.0
-32.0
-61.0
-121.0
-440.0
-586.0
1137.0
92.0
-155.0
-2.0
444.0
1091.0
1317.0
896.0
402.0
152.0
23.0
-115.0
-214.0
-294.0
-651.0
-498.0
-2624.0
-1697.0
-968.0
-321.0
331.0
741.0
584.0
148.0
-171.0
-247.0
-200.0
-84.0
1.0
-49.0
450.0
-1304.0
-372.0
217.0
640.0
996.0
1143.0
703.0
36.0
-437.0
-591.0
-630.0
-572.0
-495.0
-766.0
-907.0
-1747.0
-1036.0
-388.0
94.0
694.0
1235.0
1200.0
788.0
484.0
331.0
266.0
157.0
63.0
15.0
-400.0
-552.0
-2242.0
-1387.0
-729.0
-164.0
470.0
986.0
869.0
367.0
25.0
-94.0
-179.0
-215.0
-189.0
-103.0
232.0
102.0
197.0
-1420.0
-409.0
243.0
655.0
983.0
1367.0
1083.0
390.0
-124.0
-345.0
-393.0
-495.0
-544.0
-483.0
-417.0
-251.0
-390.0
151.0
429.0
820.0
1357.0
1520.0
1086.0
663.0
370.0
237.0
108.0
-58.0
-277.0
-259.0
-282.0
-655.0
-524.0
-2430.0
-1431.0
-736.0
-198.0
412.0
810.0
694.0
125.0
-47.0
-80.0
-99.0
-79.0
-42.0
138.0
348.0
280.0
556.0
-1161.0
-485.0
69.0
406.0
691.0
813.0
504.0
-47.0
-354.0
-421.0
-471.0
-460.0
-374.0
-152.0
-313.0
-371.0
-1397.0
-709.0
-147.0
316.0
937.0
1476.0
1431.0
907.0
534.0
345.0
139.0
-87.0
-327.0
-361.0
-577.0
-717.0
554.0
-1162.0
-901.0
-575.0
-141.0
383.0
514.0
397.0
42.0
-62.0
-85.0
-23.0
37.0
80.0
300.0
109.0
6.0
1682.0
-12.0
-101.0
-119.0
6.0
246.0
319.0
-92.0
-482.0
-689.0
-697.0
-628.0
-954.0
-518.0
-266.0
26.0
-124.0
-55.0
-1303.0
-147.0
735.0
1316.0
1231.0
694.0
88.0
-305.0
-435.0
-597.0
-770.0
-751.0
-589.0
-703.0
-754.0
38.0
-340.0
-269.0
-58.0
370.0
852.0
882.0
507.0
233.0
53.0
80.0
84.0
122.0
43.0
17.0
-3.0
-214.0
120.0
-1958.0
-1210.0
-645.0
-175.0
448.0
831.0
571.0
41.0
-220.0
-288.0
-218.0
-272.0
-244.0
-286.0
-95.0
254.0
155.0
143.0
-1225.0
-482.0
94.0
428.0
798.0
1039.0
757.0
100.0
-338.0
-476.0
-483.0
-470.0
-439.0
-370.0
-322.0
-229.0
-81.0
-115.0
271.0
-1518.0
-461.0
246.0
807.0
1323.0
1606.0
1249.0
557.0
16.0
-310.0
-466.0
-577.0
-581.0
-591.0
-533.0
-431.0
-187.0
-268.0
-320.0
1469.0
515.0
479.0
633.0
1045.0
1517.0
1582.0
991.0
307.0
-166.0
-478.0
-693.0
-858.0
-889.0
-710.0
-455.0
-568.0
-658.0
-1391.0
-719.0
-61.0
454.0
937.0
1352.0
1240.0
556.0
-76.0
-449.0
-574.0
-633.0
-720.0
-712.0
-645.0
-567.0
-418.0
-177.0
-308.0
-340.0
-1213.0
-617.0
-114.0
334.0
926.0
1423.0
1408.0
905.0
483.0
257.0
120.0
-60.0
-290.0
-505.0
-685.0
-701.0
-562.0
-395.0
-556.0
-601.0
-1634.0
-1013.0
-338.0
186.0
705.0
1272.0
1389.0
1015.0
669.0
419.0
265.0
97.0
-171.0
-255.0
-366.0
-546.0
-582.0
-443.0
-629.0
-741.0
-480.0
-588.0
-410.0
-121.0
285.0
824.0
899.0
440.0
72.0
9.0
133.0
228.0
219.0
212.0
172.0
78.0
115.0
22.0
-219.0
932.0
-1161.0
-783.0
-488.0
-121.0
367.0
723.0
449.0
36.0
-272.0
-334.0
-294.0
-324.0
-278.0
-151.0
-419.0
-505.0
1152.0
88.0
-124.0
-62.0
283.0
787.0
1041.0
722.0
279.0
147.0
142.0
164.0
110.0
38.0
-69.0
-227.0
-415.0
-513.0
-757.0
-356.0
-2279.0
-1292.0
-569.0
11.0
582.0
995.0
845.0
382.0
70.0
-93.0
-93.0
-96.0
-65.0
43.0
161.0
192.0
344.0
485.0
238.0
363.0
-1655.0
-1000.0
-555.0
-227.0
304.0
714.0
579.0
93.0
-226.0
-430.0
-507.0
-484.0
-486.0
-421.0
-327.0
-173.0
-649.0
70.0
190.0
404.0
-1130.0
-320.0
225.0
553.0
857.0
1097.0
776.0
140.0
-281.0
-469.0
-514.0
-541.0
-584.0
-544.0
-514.0
-430.0
-307.0
-158.0
-252.0
200.0
-1512.0
-360.0
411.0
949.0
1517.0
1874.0
1524.0
687.0
63.0
-303.0
-424.0
-571.0
-617.0
-562.0
-509.0
-472.0
-292.0
-401.0
-268.0
-51.0
294.0
771.0
1042.0
669.0
150.0
-125.0
-130.0
16.0
125.0
144.0
136.0
131.0
211.0
-66.0
-405.0
937.0
-115.0
-356.0
-413.0
-175.0
256.0
436.0
27.0
-329.0
-459.0
-483.0
-404.0
-371.0
-315.0
-229.0
-80.0
168.0
32.0
16.0
-1284.0
-534.0
85.0
463.0
869.0
1120.0
888.0
174.0
-261.0
-470.0
-518.0
-546.0
-525.0
-463.0
-383.0
-222.0
101.0
-104.0
-31.0
-1155.0
-370.0
264.0
704.0
1236.0
1626.0
1395.0
640.0
83.0
-272.0
-440.0
-532.0
-550.0
-579.0
-554.0
-345.0
-290.0
-398.0
442.0
-1238.0
-362.0
151.0
682.0
1269.0
1577.0
1225.0
562.0
69.0
-274.0
-481.0
-629.0
-706.0
-711.0
-575.0
-322.0
-495.0
-485.0
-1674.0
-910.0
-284.0
226.0
823.0
1413.0
1450.0
905.0
257.0
-28.0
7.0
-14.0
8.0
-59.0
-141.0
-494.0
-799.0
1296.0
-491.0
-617.0
-530.0
-123.0
434.0
692.0
290.0
-199.0
-415.0
-485.0
-418.0
-431.0
-341.0
-186.0
-42.0
102.0
247.0
47.0
-40.0
1856.0
360.0
-64.0
-176.0
39.0
470.0
638.0
170.0
-293.0
-530.0
-585.0
-601.0
-593.0
-518.0
-518.0
-459.0
-382.0
65.0
169.0
86.0
1375.0
-645.0
-232.0
98.0
313.0
694.0
841.0
441.0
-222.0
-621.0
-719.0
-736.0
-740.0
-744.0
-720.0
-616.0
-493.0
-307.0
-117.0
-164.0
146.0
-1076.0
-277.0
310.0
732.0
1179.0
1542.0
1218.0
405.0
-132.0
-411.0
-565.0
-608.0
-546.0
-489.0
-454.0
-417.0
-372.0
-132.0
-148.0
-293.0
1218.0
-946.0
-625.0
-252.0
385.0
1076.0
1491.0
1161.0
643.0
255.0
-251.0
-491.0
-567.0
-553.0
-433.0
-181.0
-78.0
-125.0
1300.0
-699.0
-299.0
74.0
341.0
663.0
826.0
458.0
-223.0
-600.0
-742.0
-698.0
-654.0
-616.0
-593.0
-544.0
-480.0
-205.0
-223.0
-294.0
1449.0
-400.0
-28.0
300.0
751.0
1269.0
1522.0
1057.0
368.0
-156.0
-494.0
-683.0
-707.0
-763.0
-817.0
-789.0
-730.0
-543.0
-430.0
-567.0
-354.0
-1939.0
-946.0
-221.0
279.0
927.0
1576.0
1571.0
1026.0
530.0
305.0
170.0
-43.0
-230.0
-431.0
-612.0
-681.0
-660.0
-455.0
-557.0
-592.0
1603.0
-66.0
-169.0
-40.0
339.0
861.0
1123.0
811.0
422.0
163.0
35.0
30.0
-8.0
-114.0
-145.0
-252.0
-363.0
-329.0
-528.0
-700.0
634.0
-1410.0
-886.0
-456.0
2.0
584.0
1015.0
652.0
104.0
-248.0
