-0.022063130750121784,0.023793281744343465,0.0528118955954424,0.007384246289866913,-0.01169253221666489,0.05077696941273384,0.08198305347224864,0.05071878846165959,0.0241804748392467,0.05996380416458976,0.09805999461161093,0.03765845448999043,-0.010844081485892332,0.060548844279880075,0.18462823525913594,0.298984969831861,0.422812023327306,0.6401032744569878,0.8476435594295284,0.93261415863242,0.8133932689758208,0.5787607309585462,0.31509222928687797,0.05115842303489563,-0.15547053827019433,-0.18242236258618513,-0.09691700543870137,-0.057360467624121204,-0.03734270320671778,0.049554003648396655,0.11214434319489482,0.08804382383070451,0.03007165688913135,0.05584901179147696,0.08858971267941249,0.0875086368423918,0.019020485099873443,0.03194627151853043,0.0782996313150746,0.07409270758201852,0.014540183177970128,-0.004339898802043443,0.05346821138135241,0.0535743690984674,0.010393669602300488,-0.0040569278974478635,0.05343841792630114,0.06048980480170419,0.024311859879058824,0.009721039688185584,0.05513270211152133,0.08375789276921068,0.045208358705971646,0.023500402443667863,0.07144894572190646,0.10746381851167257,0.06435502649635912,0.042938255873528605,0.08402665041087425,0.11802905318009504,0.08255415359820625,0.06401555816070353,0.09362441758995699,0.1353890753972413,0.1173160745789013,0.09701607780013559,0.127298983493391,0.17937118492028356,0.15723595171420704,0.13290187448589239,0.14717560292584925,0.21206205630094135,0.209960621385787,0.17687530952084826,0.20401112524583787,0.25056730328350074,0.23494054825573463,0.18113022030025727,0.19713761376867583,0.22775707718061292,0.20578152923667495,0.1504059475949028,0.15042685696518546,0.17943576637057973,0.17022192265463687,0.08677483022253901,0.06588953785549596,0.10995568619395672,0.09895805629501865,0.023284965442063054,0.010129299220988793,0.05707903017863691,0.05611817186301598,-0.007166083351627319,-0.029582471198622326,0.024858466233315214,0.040943401140297805,-0.005337743178693829,-0.029991250963159286,0.014975768240162168,0.03595381330819486,-0.005464648758620622,-0.02768288941943735,0.010094828963002902,0.04546305437430667,0.01361619549974615,-0.01584659202406886,0.012273246401357246,0.04277168479604739,0.0084441916828451,-0.018708826354841477,-0.00508842617359403,0.04930486914185711,0.024466578597795496,-0.010001008054874189,0.020304454254238578,0.0697818193818167,0.03282761900753516,-0.01135512448143999,0.02603680246872021,0.06580147431540839,0.047937545941520526,0.003646718617780347,0.024132674581918295,0.05659374826670414,0.06022859757248172,-0.0033643137429570807,0.009819927725590667,0.05177944889797694,0.0673120611158466,0.0084155833021685,-0.007306373173321874,0.04414629675980574,0.06196977331558112,0.00536223663128662,-0.017672935780915448,0.05286583025616444,0.05617361583918531,0.004251633221295538,-0.009296166121993975,0.02033086145765155,0.05473264387293828,0.007507230858475854,-0.020540673071567768,0.03299217784178987,0.06730494054058991,0.029598383529773585,-0.00812244224856923,0.040547899112870704,0.05800806492731228,0.029860329294625627,-0.01029154720185479,0.023958000895726847,0.06060965421370667,0.04206450654555291,-0.014873897751664375,0.0026013284041703734,0.04169235610838657,0.04720125462348222,-0.007269049335552074,-0.004110535488631351,0.03988053273740683,0.03830570645710216,0.0007698904299087089,-0.007920159110894217,0.038640888999488913,0.07325565411958067,0.033526740055837376,0.03946313512684373,0.10786984049133733,0.13554721868290714,0.11769873475970728,0.11912975200329272,0.15424317985156583,0.1990399108746378,0.16471766811960506,0.14487993022440826,0.18512757571485827,0.20145596210288405,0.15306112013394627,0.09274153749508372,0.1260968907439026,0.15471884250421747,0.1065994020034731,0.06573557857721651,0.08252260499733224,0.12095218761499144,0.0970138436445509,0.02990030506557596,0.03480737183599189,0.061324565405125826,0.05904123318544588,-0.010453139902459847,-0.007962791006149413,0.044903084420416184,0.04253293847179057,-0.01748118174674812,-0.005542556354194075,0.04474115506184127,0.058961309411379774,0.013110905248646313,0.000786998804602153,0.0531842712747564,0.07429269213158256,0.006503386145229115,-0.025386142587217452,0.03381900155490426,0.1313121286972758,0.21188629104438134,0.3403383255495345,0.5646633879512674,0.7840494250727378,0.8952814715939746,0.8623431290811854,0.6876149439122515,0.41667474962081885,0.13349836288484532,-0.09714119360097545,-0.16006969928378573,-0.10090965655202873,-0.08287271365599945,-0.060353204550137346,0.02186276502367339,0.1085907368732657,0.07744365635934247,0.02204192024597322,0.03600553807894569,0.08574970140640541,0.0,0.0,0.0,0.0,0.0,0.0,0.0,0.0,0.0,0.0,0.0,0.0,0.0,0.0,0.0,0.0,0.0,0.0,0.0,0.0,0.0,0.0,0.0,0.0,0.0,0.0,0.0,0.0,0.0,0.0,0.0,0.0,0.0,0.0,0.0,0.0,0.0,0.0,0.0,0.0,0.0,0.0,0.0,0.0,0.0,0.0,0.0,0.0,0.0,0.0,0.0,0.0,0.0,0.0,0.0,0.0,0.0,0.0,0.0,0.0,0.0,0.0,0.0,0.0,0.0,0.0,0.0,0.0,0.0,0.0,0.0,0.0,N
0.21188629104438134,0.3403383255495345,0.5646633879512674,0.7840494250727378,0.8952814715939746,0.8623431290811854,0.6876149439122515,0.41667474962081885,0.13349836288484532,-0.09714119360097545,-0.16006969928378573,-0.10090965655202873,-0.08287271365599945,-0.060353204550137346,0.02186276502367339,0.1085907368732657,0.07744365635934247,0.02204192024597322,0.03600553807894569,0.08574970140640541,0.06328666813693412,0.007033685828163387,0.027410350390067555,0.07163018238330887,0.0629056770549029,0.01805243572234191,0.01148787700328012,0.062427286250835184,0.06528127241688807,0.012863774190656119,0.025193111643035518,0.051881233866599916,0.06654085225025959,0.02358370816723936,0.011826184553112316,0.05048197046541647,0.07716167574032529,0.03667592428272829,0.013040106108124744,0.04706782898098234,0.08356908241765981,0.04095264350728691,0.032034066414927384,0.06642488101628058,0.10333459166673534,0.07557139350919112,0.06234838341114599,0.10447685916409905,0.14916434259624342,0.13641756667290797,0.10704624923766577,0.1498612025700455,0.20246710766839388,0.17846700796315,0.161869241208666,0.19107956512665464,0.22289990800218087,0.21893142037486285,0.19357609246094684,0.19963624103860833,0.2539118826127189,0.24599732771890317,0.19509041394760368,0.19959068016687603,0.22349171552609648,0.2115854006117247,0.15186409742305282,0.1259225742537588,0.1529525305961075,0.14414103915096677,0.08267707264223502,0.047752436136193364,0.08255718892091786,0.09347608842950478,0.0372953446590841,-0.0019945919856150544,0.045196009466276346,0.05404987455051988,0.010153588827544609,-0.03610413408447793,-0.0031334765948574095,0.05145365686084585,0.019643794177369805,-0.026570132054622827,-0.015195287463440135,0.039360488742334505,0.01708689255409061,-0.0172197372226378,-0.015563769000105806,0.05085135407495215,0.02601682779726857,-0.020468056633385464,-0.014203960448998933,0.042407557145756614,0.05816299975344246,-0.014939742189755707,-0.008895074705599831,0.04989682053831004,0.05583367564221886,0.008916881574604981,0.002751014356957331,0.05413776298829422,0.06467453905546805,0.010361237068389557,-0.00559786404768465,0.04079853156206436,0.07034843202339344,0.00864981912178042,-0.0098919492209742,0.038724355663119304,0.05609637204156486,0.0326248311290974,-0.014888839253324085,0.021560000986302938,0.06277047793693252,0.041542054018461054,0.003478052629299646,0.04698354363375745,0.05925576280120796,0.042695974640400675,-0.0026949414449186004,0.031087677647648356,0.06484182259715945,0.043366216906178846,-0.011737897693779776,0.0123338790929121,0.06038084482890191,0.03400063653603132,-0.004403459313388402,0.014771940228339461,0.06272699456377896,0.053059657407245664,-0.01662932224528666,-0.002334042298574562,0.033545340075945465,0.04060933357180258,-0.002740654929901018,-0.014899602068584553,0.0233354663976254,0.049565920082357225,0.003793100748096616,-0.008375768665198567,0.0538641175098103,0.07051240928379149,0.007971685089646076,-0.023350499630403643,0.024551061226513123,0.06527881779412266,0.022035452755602786,-0.004370104461937753,0.053269721824693535,0.09415670462535124,0.06549412712506976,0.036889331861022764,0.10195022216164269,0.1502769666825988,0.13627162263556475,0.09113833828544333,0.1204833341508973,0.18350695666134095,0.17460655152240231,0.13938414295486176,0.15224194806101554,0.19637811162724544,0.17338699713975136,0.09286598337270045,0.08921620112712601,0.11923174373612457,0.11810545901608173,0.07623164162702196,0.07760745992306313,0.10542597040015778,0.10687850912411698,0.03875624033565755,-0.01254540950281878,0.027368348158940858,0.036086209937556804,-0.010399622518323864,-0.01849277550782034,0.023801092543646072,0.049275148760074945,0.0195235071742769,-0.007856411509103224,0.02713280462323321,0.0404839842723106,0.03219292939176134,0.0022552395152961834,0.027469195650041894,0.07182889269602256,0.017725268116842694,-0.00524195067084278,0.08212500977330202,0.2390199795654536,0.3598339798896243,0.49256252170605386,0.7068001162407874,0.9089327717263783,0.9189397646519785,0.7032012452404375,0.4273001415895068,0.216014355745491,-0.0026876304935492448,-0.16403335230853278,-0.16244857951026065,-0.08195051601003162,-0.0425422654969326,-0.0298141720944196,0.02344941576544182,0.08366325129697791,0.08604081572697324,0.025797392620691938,0.034952898432118545,0.06792054749025465,0.09111382349055659,0.025344182828143626,0.0074306206860685915,0.04698729773842864,0.07922558389434467,0.03215634764787998,0.0017962791984405151,0.03376004261371541,0.06325820697528245,0.013500728433559248,-0.0026957358831044293,0.0362820282547995,0.060844115776488905,0.01580097315817687,-0.012432016599324481,0.0,0.0,0.0,0.0,0.0,0.0,0.0,0.0,0.0,0.0,0.0,0.0,0.0,0.0,0.0,0.0,0.0,0.0,0.0,0.0,0.0,0.0,0.0,0.0,0.0,0.0,0.0,0.0,0.0,0.0,0.0,0.0,0.0,0.0,0.0,0.0,0.0,0.0,0.0,0.0,0.0,0.0,0.0,0.0,0.0,0.0,0.0,0.0,0.0,0.0,0.0,0.0,0.0,0.0,0.0,0.0,0.0,0.0,0.0,0.0,0.0,0.0,0.0,0.0,0.0,0.0,0.0,0.0,0.0,0.0,0.0,0.0,N
0.3598339798896243,0.49256252170605386,0.7068001162407874,0.9089327717263783,0.9189397646519785,0.7032012452404375,0.4273001415895068,0.216014355745491,-0.0026876304935492448,-0.16403335230853278,-0.16244857951026065,-0.08195051601003162,-0.0425422654969326,-0.0298141720944196,0.02344941576544182,0.08366325129697791,0.08604081572697324,0.025797392620691938,0.034952898432118545,0.06792054749025465,0.09111382349055659,0.025344182828143626,0.0074306206860685915,0.04698729773842864,0.07922558389434467,0.03215634764787998,0.0017962791984405151,0.03376004261371541,0.06325820697528245,0.013500728433559248,-0.0026957358831044293,0.0362820282547995,0.060844115776488905,0.01580097315817687,-0.012432016599324481,0.028959206933278636,0.06798526626500513,0.03745681676121823,0.03579030286802232,0.06299833987367015,0.09989265350538448,0.08408305562727841,0.053982589340154645,0.09120547620094786,0.1333603382822784,0.12285551928176448,0.09090198266434302,0.10471141001019632,0.1522920971253412,0.161649595604008,0.12799118271324614,0.15452732465065266,0.2172631398698697,0.217800220576043,0.19454413575141788,0.20029989833427359,0.24707003849698972,0.25805279834344413,0.2116472276296799,0.21345579363578912,0.25867581940101103,0.265700718247554,0.20572456429469707,0.18434507742473794,0.20155504054481654,0.2189448936176541,0.15490246995935897,0.11022125895196996,0.1184914883318713,0.1340999034649003,0.07303123604042136,0.03127620921249076,0.05442331562900613,0.05605600611639859,0.01455985769163638,-0.019677168122659093,0.0013327285706554806,0.04157610808306427,0.014637658712429953,-0.029093076031126163,-0.010425559911502773,0.017828621709204174,0.0004587850709010665,-0.04814326677012001,-0.01758218000391421,0.04413611026130248,0.03380529622205693,-0.005375732208118585,0.010593255903048042,0.045708560872915686,0.03756545296447962,-0.0210389830997119,-0.019703497941092003,0.029570626386638287,0.030780870745451418,-0.013671789982044479,0.009017551187120032,0.05324923752745857,0.0614231230947815,0.009540039265363868,-0.003994959564472526,0.03762011321095616,0.045583715366156116,-0.006503573944006564,0.003764103740503759,0.047587628669311696,0.07216697400962846,0.03670231912146925,0.020397923839452072,0.054456087962809936,0.06927527860119947,0.04325546710762656,0.017198587939629795,0.048706981060738216,0.07297837030587864,0.027610324801262062,-0.008194710473574124,0.01836459432119941,0.04248599503962365,0.0017672445389574315,-0.019788698355958735,0.011419250993514273,0.06419165884524412,0.03292628074897034,-0.0031726090872735394,0.02789883243457371,0.061339686717637544,0.034748984497070756,-0.013470819490450323,0.02228504288013286,0.06281577984514228,0.03612075469425385,-0.02179698618323025,0.004268354262470633,0.03511744887347857,0.03715263684774396,-0.01842374055164817,0.014796956487033167,0.060016857195252016,0.06683899390777388,0.008866987136972752,-0.0010907248807584138,0.044170343403701476,0.043850783979811694,-0.002045301314728435,-0.01911127628426631,0.021458001872875908,0.035665316698718495,-0.0028845237261806204,0.006617818140194249,0.061778134343466094,0.09059960788067306,0.04508600112007589,0.04764693009134727,0.11988805469419697,0.15621008880564297,0.14221652225762915,0.12351228448639144,0.15770203797650195,0.18238538634163742,0.17116247707812648,0.14083414462677613,0.15140196648741816,0.20046450650823514,0.16321504139191484,0.11405321809233754,0.11537742335722902,0.14318227592540406,0.12065986347239252,0.06460502198373339,0.08541544836703702,0.1254822986715418,0.09599514712878132,0.04734809247778416,0.03713501996041165,0.05814717977094716,0.043173415773837785,-0.0173955870738213,0.008435881063164192,0.0534578100270357,0.0576604139591976,0.006635327409603915,0.020378870892748296,0.04848102508703586,0.05253211290746451,-0.003477696309903997,-0.016353343970583942,0.033097449984428796,0.029663544915206046,-0.029062190474525962,-0.020682416836913724,0.08839967951498139,0.21417852461441408,0.3518510337604936,0.52301402844779,0.7612630150466517,0.9321846670240229,0.9181624733150988,0.6975788149793176,0.42881814422795994,0.2006588494187374,-0.03492788827415867,-0.17476629492084833,-0.13967816670395994,-0.06647669136515565,-0.051160277175039806,0.0022860889766198244,0.08187828324786132,0.10842968323297299,0.05795530013718456,0.0144736001958349,0.04040196043205689,0.08055333301769878,0.055739579852912134,0.006776601380656344,0.017681618217401635,0.06686790874427531,0.055945820496250936,0.011329985630609959,0.01703688840407848,0.06827966985444428,0.05706756630890636,-0.006986174820402089,0.008135938676482856,0.04244495660097653,0.05995277633669543,0.019870905390093965,0.008615259291786088,0.0,0.0,0.0,0.0,0.0,0.0,0.0,0.0,0.0,0.0,0.0,0.0,0.0,0.0,0.0,0.0,0.0,0.0,0.0,0.0,0.0,0.0,0.0,0.0,0.0,0.0,0.0,0.0,0.0,0.0,0.0,0.0,0.0,0.0,0.0,0.0,0.0,0.0,0.0,0.0,0.0,0.0,0.0,0.0,0.0,0.0,0.0,0.0,0.0,0.0,0.0,0.0,0.0,0.0,0.0,0.0,0.0,0.0,0.0,0.0,0.0,0.0,0.0,0.0,0.0,0.0,0.0,0.0,0.0,0.0,0.0,0.0,N
0.3518510337604936,0.52301402844779,0.7612630150466517,0.9321846670240229,0.9181624733150988,0.6975788149793176,0.42881814422795994,0.2006588494187374,-0.03492788827415867,-0.17476629492084833,-0.13967816670395994,-0.06647669136515565,-0.051160277175039806,0.0022860889766198244,0.08187828324786132,0.10842968323297299,0.05795530013718456,0.0144736001958349,0.04040196043205689,0.08055333301769878,0.055739579852912134,0.006776601380656344,0.017681618217401635,0.06686790874427531,0.055945820496250936,0.011329985630609959,0.01703688840407848,0.06827966985444428,0.05706756630890636,-0.006986174820402089,0.008135938676482856,0.04244495660097653,0.05995277633669543,0.019870905390093965,0.008615259291786088,0.0525994335631223,0.0798333387753888,0.03752733311221969,0.014496616335733088,0.05155442404759244,0.07910983336166424,0.044372285403021024,0.02655571118798859,0.0736726651310027,0.12093139403703855,0.09873959869536676,0.08150970480965507,0.13165320025463054,0.1723760134375075,0.16048465806615136,0.1415880725373701,0.18289519226038659,0.22440953691601961,0.19893344523055825,0.18327346345397444,0.2182338107761721,0.26061468110310687,0.24321428890978578,0.21883398690728328,0.228273467604282,0.2595293751633617,0.2333947252464594,0.1906656771781092,0.1817375786139766,0.20420286970517315,0.19805095008637047,0.13687144194454398,0.1070571520428232,0.13259789330620197,0.10787814675968327,0.05928661587922355,0.039612441838129585,0.0680432258099761,0.06536272903236084,0.012356593181488849,-0.006986047353933327,0.024121392898530103,0.03126278769061416,-0.0023759780043635503,-0.026406688393719173,0.014359275685520407,0.03830797893892662,-0.007373519810034092,-0.04109337901118056,-0.00045976723946513785,0.02811754357741935,0.003830512887267642,-0.04452646449034926,-0.0017558151456044371,0.026536092336025673,0.004345632130997824,-0.03952855595757742,-0.004285189069066613,0.05247490834147574,0.03474989769292526,-0.016657258877585058,-0.005741729980053173,0.05309881221040129,0.04466351028304971,0.002556748556848778,-0.00841615722633334,0.04054876349878681,0.04145121773963025,0.015895506374031095,0.0022863448070608505,0.03422819131388029,0.058922294995105574,0.013969378505638395,0.002575998895978098,0.03434517914834246,0.0756783304935445,0.032974471781765095,-0.014561361042826602,0.03627659135347419,0.0630871219718623,0.041872484304343545,0.0038366594096713854,0.047385906117482446,0.0717190915003913,0.048037510487165425,-0.0020560352389064483,0.0366444800393007,0.058537105352829515,0.04922308190552165,0.011103979999018174,0.011383522126665853,0.05726315460717501,0.04314009201074086,0.002616414510773827,-0.009105213984070541,0.04637723556946434,0.03226017289813313,-0.0034533845408990524,-0.00556031411276327,0.037941236017530626,0.04305009286723523,-0.004632530293082723,-0.02110199356955302,0.027244917672093687,0.03720835966271694,0.003991994282355554,-0.005198037845066185,0.03364278507299433,0.06531654737842289,0.013024365763474707,-0.005625774740985872,0.030970492726498305,0.05561478290697503,0.029909621603301698,-0.005339812191326713,0.01947257688245006,0.07554974959238292,0.057291726905275654,0.010303748089119857,0.0641938748699035,0.13256212309782284,0.13860854295845756,0.10393616370053955,0.1197498974895801,0.16685005080555687,0.19243508781230761,0.15810317138055274,0.1526562099936146,0.188092479180896,0.19480647110030805,0.1319928033616393,0.10045036028750094,0.126574612624614,0.1287565316893724,0.08778876540603302,0.06606633800663542,0.0875824135603608,0.11152742749758476,0.06349013376996286,0.01546414708956981,0.03704267589162193,0.05381352171923233,0.015365189164029224,-0.03511062202857896,-0.006420512415340667,0.03422639042758411,0.017221480046525503,-0.02384020161799184,0.004638521921892802,0.04505149592325815,0.04459272010295235,0.005658011922701291,0.007445808318692872,0.045151409020424284,0.05636794469980406,-0.00931123559735725,0.006514663213510096,0.11824199121299032,0.23466315755601536,0.3533732667565708,0.5223681153628335,0.7488402230114253,0.9079746120579711,0.9061537153974436,0.7241581796636282,0.4579683843788271,0.19396073296968605,-0.05829350341713329,-0.18362011508629825,-0.12924166394057746,-0.05357108467647854,-0.04540645807294052,-0.015934202517838107,0.05646109008116646,0.08539234438712438,0.05407477871713092,0.012925671559864025,0.03876300811819187,0.08600017883096252,0.056248426145815114,0.009524425037998923,0.020245102197768986,0.06922387247186625,0.05327094056488942,0.008401316981063566,0.021031611219889414,0.05277377181243105,0.05083910917455963,0.005640268724697307,0.001193105907109234,0.04471060552665393,0.05220237102746102,-0.00031999704463132493,0.0,0.0,0.0,0.0,0.0,0.0,0.0,0.0,0.0,0.0,0.0,0.0,0.0,0.0,0.0,0.0,0.0,0.0,0.0,0.0,0.0,0.0,0.0,0.0,0.0,0.0,0.0,0.0,0.0,0.0,0.0,0.0,0.0,0.0,0.0,0.0,0.0,0.0,0.0,0.0,0.0,0.0,0.0,0.0,0.0,0.0,0.0,0.0,0.0,0.0,0.0,0.0,0.0,0.0,0.0,0.0,0.0,0.0,0.0,0.0,0.0,0.0,0.0,0.0,0.0,0.0,0.0,0.0,0.0,0.0,0.0,0.0,N
0.3533732667565708,0.5223681153628335,0.7488402230114253,0.9079746120579711,0.9061537153974436,0.7241581796636282,0.4579683843788271,0.19396073296968605,-0.05829350341713329,-0.18362011508629825,-0.12924166394057746,-0.05357108467647854,-0.04540645807294052,-0.015934202517838107,0.05646109008116646,0.08539234438712438,0.05407477871713092,0.012925671559864025,0.03876300811819187,0.08600017883096252,0.056248426145815114,0.009524425037998923,0.020245102197768986,0.06922387247186625,0.05327094056488942,0.008401316981063566,0.021031611219889414,0.05277377181243105,0.05083910917455963,0.005640268724697307,0.001193105907109234,0.04471060552665393,0.05220237102746102,-0.00031999704463132493,-0.01924080667235663,0.045854065689860696,0.06537390950002075,0.017731782124320753,0.0013448553688832601,0.06422834703094149,0.08879133917637923,0.07024676756024964,0.0350082787213729,0.0982924545337412,0.12090628625387065,0.10766160324737213,0.07777016330556183,0.13444629482837064,0.17449629831261948,0.15472802267839153,0.1447526191951828,0.1901795772304814,0.22141339873158525,0.21685941127169528,0.20052352305461849,0.2300118015537579,0.2813262915344595,0.26326540056975684,0.22623137034640373,0.24462601448604562,0.28724610710114024,0.27008524499790454,0.22433985240911394,0.20760598022940285,0.24147722526130172,0.21314117201082994,0.15618961599543763,0.1258140864624198,0.14360408814433911,0.13754503248193703,0.07402303411454565,0.03222769478723921,0.04814664725851093,0.061763810100801904,0.013062861153316776,-0.016367589818612402,0.03586029102652495,0.04492896400849467,-0.015575647980624888,-0.035262783600776434,0.0002562451270772135,0.03337081136073174,-0.005530157154190083,-0.04205256995475494,0.0005982776130897203,0.03121486736428024,-0.0006088118324142621,-0.02767457469927813,-0.009185155209555608,0.03805720991955863,0.030048669427310035,-0.026011442837906195,-0.000519413135379736,0.044123837267512726,0.035917081142884576,-0.003537665134948465,-0.004636788253287294,0.0470216181763976,0.043435370901857485,0.008606937003172862,0.00253989877641148,0.054036640742493036,0.06229473810861273,0.0009142495106350705,-0.0076995706655196994,0.04365426373772706,0.06377382846339956,0.019059112811750177,0.0031144950019304715,0.04234177082422285,0.06233898979647749,0.022305233294342898,-0.005756554170577028,0.04775637156096567,0.0436395736423824,0.013094683104678264,-0.005476620740441559,0.038327720076259966,0.04850486540543322,0.027455425332896004,-0.010419788448913518,0.014082296782431331,0.0601613023197871,0.029414647215979375,-0.01335451010179498,0.00625719702518269,0.06185067323413362,0.028623150002526073,-0.0070206337408657395,0.01732302955508755,0.056054517223195224,0.044373409371603216,-0.005718151726066285,-0.007815492051364802,0.0500838520266969,0.045578112344243485,0.007470866368075141,0.005366973719651102,0.03686859188041508,0.037175542016016104,-0.017711029005635447,-0.014985097101540413,0.03095633657101473,0.038515207305663456,-0.0019040395999601692,-0.011093864855248652,0.03495140871181005,0.05223451501186379,0.04076112211514782,0.01973734752883802,0.07557159208780444,0.12906602893310695,0.13462369691449735,0.11624956551107707,0.1459497076072521,0.18292544000869623,0.17917708329397664,0.15390653054776526,0.16951637784072768,0.2092055204466247,0.18656943009783333,0.11840635202527514,0.10551670752935202,0.13109597339542217,0.1279372334753274,0.06963442618626335,0.061785735699678344,0.11638553379350093,0.113422997876561,0.045690898260923714,0.016385524148380133,0.047099916195788356,0.05142303595385998,-0.0042544363501061605,-0.021537192163571035,0.02596781645177391,0.05665168628896736,0.012906272563860142,-0.01647143436857119,0.021314158922444593,0.056655680518281765,0.03674627371284608,-0.0024179149093494843,0.02796103168100752,0.06307557533902086,0.03811803811463555,-0.020516197924880818,-0.004828921212009636,0.08757612050723465,0.19189315110104782,0.29131773308081227,0.46024784488735415,0.6818766329776346,0.8529917448265697,0.8943783067878055,0.7796191344324321,0.5614955027042572,0.2807843443204695,0.004660761608827775,-0.13489914871751546,-0.14512446516820432,-0.07643304970516504,-0.06563217520895326,-0.02151341493240403,0.06553487283785094,0.08512193228012567,0.0348606770768954,0.01076723717474155,0.051255436388313064,0.08193486986516853,0.023614698823305698,-0.0156893967508495,0.031236635010413766,0.054001763329477905,0.01901764368361281,-0.008900696584960555,0.025461319473002522,0.05491458423726019,0.02667039573810974,-0.018456758345683853,0.01074934166264411,0.06150133926053378,0.040210314153496136,-0.0003075430620972166,0.02876508955139633,0.0650399670982745,0.03892843437881873,-0.0015541365232417238,0.0,0.0,0.0,0.0,0.0,0.0,0.0,0.0,0.0,0.0,0.0,0.0,0.0,0.0,0.0,0.0,0.0,0.0,0.0,0.0,0.0,0.0,0.0,0.0,0.0,0.0,0.0,0.0,0.0,0.0,0.0,0.0,0.0,0.0,0.0,0.0,0.0,0.0,0.0,0.0,0.0,0.0,0.0,0.0,0.0,0.0,0.0,0.0,0.0,0.0,0.0,0.0,0.0,0.0,0.0,0.0,0.0,0.0,0.0,0.0,0.0,0.0,0.0,0.0,0.0,0.0,0.0,0.0,0.0,0.0,0.0,0.0,N
0.29131773308081227,0.46024784488735415,0.6818766329776346,0.8529917448265697,0.8943783067878055,0.7796191344324321,0.5614955027042572,0.2807843443204695,0.004660761608827775,-0.13489914871751546,-0.14512446516820432,-0.07643304970516504,-0.06563217520895326,-0.02151341493240403,0.06553487283785094,0.08512193228012567,0.0348606770768954,0.01076723717474155,0.051255436388313064,0.08193486986516853,0.023614698823305698,-0.0156893967508495,0.031236635010413766,0.054001763329477905,0.01901764368361281,-0.008900696584960555,0.025461319473002522,0.05491458423726019,0.02667039573810974,-0.018456758345683853,0.01074934166264411,0.06150133926053378,0.040210314153496136,-0.0003075430620972166,0.02876508955139633,0.0650399670982745,0.03892843437881873,-0.0015541365232417238,0.027608764226492107,0.06402837570783211,0.05731624308771645,0.021885989698319952,0.04415361707628572,0.09773084249740394,0.09862703064083239,0.06605487705766297,0.08402898247094975,0.14776033076035144,0.1708564655701727,0.12692641239780067,0.1455841161606094,0.20283720226778562,0.2218906140317671,0.19315076771228498,0.2030265231635787,0.25632275439560737,0.28344056667384104,0.24358084956425138,0.23994840500134398,0.27974326396779836,0.3077619482233431,0.24719878137568163,0.22285400962269092,0.23952220185886797,0.25639512501106204,0.18226148304513465,0.13471642582980475,0.14015081653117678,0.17215289055705804,0.1251072512969209,0.06380394803523654,0.060232670998787825,0.09757950482560761,0.05102623581184804,-0.0026383762439484747,-0.0034264484577448523,0.046247843219313314,0.035966651170158355,-0.015083306847262876,-0.020513005774954532,0.014864636964030327,0.021436254375072038,-0.017609640683465894,-0.0350815336178609,0.0338136742552852,0.040264508834202635,-0.02533552113226121,-0.021387512167867204,0.025703628244869305,0.034332981434731485,-0.005101835001954846,-0.027800621521897967,0.01903686196157188,0.04900834467518044,0.018913059532753844,-0.025646719024595394,0.018533320707494663,0.05065237664558937,0.03231186352057631,0.006715962891901246,0.02426896123826085,0.07057271315142176,0.040025576483145205,0.007032218185835793,0.021996216822121092,0.06571853983404359,0.05659773520163548,0.006635486533618897,0.011836303366670771,0.0650008425338888,0.04132534920357026,-0.00878777214836986,-0.0061352577584891195,0.04448388205837804,0.04466775561549543,0.0040182459852420895,-0.005460677617855211,0.04023315740571115,0.04269791228416004,0.009135455432259468,-0.002850692874805544,0.05234249782992555,0.06911273277930063,0.021060386757930424,-0.0030102473561443195,0.054503863272720235,0.06159902018469966,0.018276137841073247,-0.010661778984865282,0.03958818309948858,0.06342364369629132,0.02724468925246771,-0.018545801986644968,0.014856333219875537,0.0626513350880149,0.024038037159250784,-0.02657855596978419,0.009207328369251257,0.04979732584330637,0.01839320373506741,-0.02019827891423059,0.006029811449197068,0.04908188590615913,0.03936152595270186,-0.003924645755548057,0.01043246141509,0.0464376031516022,0.04409459471677316,0.015409683971055235,0.029991030130474227,0.0830439617507627,0.09777099264681897,0.08137733033036335,0.1034700029390789,0.16645314459069227,0.1647263748743897,0.10789274477072833,0.11355847880691643,0.17452464308458648,0.19958862699634594,0.15754916796632312,0.1252080026540371,0.16496554701603022,0.15921492900462214,0.09835244892292302,0.06397698639459726,0.10648577454060164,0.13467048585178287,0.09812377043533572,0.06884213518168797,0.08282026396957338,0.0944494763766082,0.03171970079100462,0.012227410622560228,0.023964124068337766,0.04772103170977864,0.0042869836529673125,-0.022343368420287186,-0.008177614917830612,0.049177976936786216,0.015312853700630631,-0.004174901340168891,0.0075094319672374754,0.052760437434190455,0.035569019451102836,-0.008069295953379501,0.0034425271018917376,0.0124971391621918,0.023889483041086387,0.0448145278926349,0.16647023234011235,0.3648500672770604,0.5271433846768488,0.6893432194862575,0.8442383720637326,0.9390125083540234,0.7744396547124618,0.4777012227936036,0.2023757291418156,0.03243672583585593,-0.08974848766934101,-0.16661073110011249,-0.1573706992050571,-0.05483450227997132,0.025802169460110977,0.043751588689745664,0.013427942074999121,0.045248750571572155,0.07682507250981445,0.0385674734977543,-0.0023088018891434647,0.04061200869673402,0.06653895849640144,0.032283029519377,0.005058957085101353,0.04008087096692028,0.07255843433392109,0.04490137642940466,0.009923149709215057,0.027637248600882538,0.06445365369479983,0.0435806085237063,-0.018170501426538258,-0.0007846890469701296,0.05014862996193752,0.04103833792138173,-0.018503114064443528,-0.01565966055688724,0.0,0.0,0.0,0.0,0.0,0.0,0.0,0.0,0.0,0.0,0.0,0.0,0.0,0.0,0.0,0.0,0.0,0.0,0.0,0.0,0.0,0.0,0.0,0.0,0.0,0.0,0.0,0.0,0.0,0.0,0.0,0.0,0.0,0.0,0.0,0.0,0.0,0.0,0.0,0.0,0.0,0.0,0.0,0.0,0.0,0.0,0.0,0.0,0.0,0.0,0.0,0.0,0.0,0.0,0.0,0.0,0.0,0.0,0.0,0.0,0.0,0.0,0.0,0.0,0.0,0.0,0.0,0.0,0.0,0.0,0.0,0.0,N
0.16647023234011235,0.3648500672770604,0.5271433846768488,0.6893432194862575,0.8442383720637326,0.9390125083540234,0.7744396547124618,0.4777012227936036,0.2023757291418156,0.03243672583585593,-0.08974848766934101,-0.16661073110011249,-0.1573706992050571,-0.05483450227997132,0.025802169460110977,0.043751588689745664,0.013427942074999121,0.045248750571572155,0.07682507250981445,0.0385674734977543,-0.0023088018891434647,0.04061200869673402,0.06653895849640144,0.032283029519377,0.005058957085101353,0.04008087096692028,0.07255843433392109,0.04490137642940466,0.009923149709215057,0.027637248600882538,0.06445365369479983,0.0435806085237063,-0.018170501426538258,-0.0007846890469701296,0.05014862996193752,0.04103833792138173,-0.018503114064443528,-0.01565966055688724,0.02558145858573869,0.050033336432412354,0.012109293449576794,0.02222817363930764,0.08040467445249809,0.10025018445635278,0.06497826615419823,0.06580597797696419,0.11954729985237643,0.1590127737616397,0.14341332103754353,0.1303627098227763,0.17987408001961078,0.21275476779778188,0.17381209821851898,0.17105837275009547,0.20930120427414703,0.24774566268284573,0.2407955937099635,0.23165689092996852,0.27313459924411826,0.317228874569258,0.2871374412349633,0.24526158934542508,0.2732018839271438,0.27975126821303226,0.2553043395170251,0.18545411874433695,0.2045978575022312,0.21432326398700008,0.19301986584371084,0.12627638557967918,0.10528448895522781,0.13003183495355206,0.08770138130449803,0.031081564585809587,0.03216109347783965,0.05252443524840316,0.044155541055089835,-0.0073606570000344426,-0.01563571689265202,0.03851701553066514,0.018279906114135058,-0.02595794344032425,-0.03420716752556764,0.010322466598766773,0.030820977132566943,-0.020720603422338744,-0.03870571179288233,0.005661341313266721,0.025975658573965242,0.0030348014936684153,-0.01516131116815673,0.009786868869191624,0.05147793190386088,0.011507754513970425,-0.0021204050597266565,0.02259310083717183,0.04484616712138072,0.009436042786973865,-0.014035628440958688,0.012831595241996167,0.04683646893451193,0.030377150620149153,-0.007745238157055961,0.03327293704686335,0.06702911803072117,0.05272226792624594,-0.016847741713771496,0.004724381928245428,0.040637271369716586,0.011689446679962728,-0.019715534512874226,0.008825826972114214,0.07571579437498427,0.07055330023764737,0.010141606311084263,0.02408779641067892,0.05719206402719557,0.061454748690984745,0.0008763481030241428,-0.009337351259516244,0.028415080215509564,0.044533472055312474,-0.008981688852592587,-0.009723831628599536,0.027909404774539622,0.03671935099190958,0.01430959641868642,-0.017715564884814135,0.027050487900856787,0.06220966308817132,0.0349649773038144,0.0029232221308705068,0.03569145845848488,0.08047220242402972,0.05326663696712192,-0.0003196607194030447,0.015720485574084057,0.04138850872266614,0.01188558534661928,-0.0295833176977985,0.010588572367722628,0.048404265598654,0.04786849563139421,-0.0006132688309021363,0.010968554055724873,0.04901836365059608,0.05833970503455694,0.017337121763287063,0.010018774046277056,0.04598998179553546,0.07005361652208525,0.019812053308471963,0.01047389010717849,0.06364416158903216,0.08572358639831577,0.07431594035370354,0.09182696896305294,0.13825973667359387,0.16801516110011167,0.1354934685587082,0.12229875307772106,0.16203265469435585,0.2018930042092324,0.16747602282399174,0.13558251832518983,0.15421139520499474,0.17535732699540482,0.13661368321430561,0.08597704259766259,0.1002443667272987,0.1362077459903509,0.12425779246403841,0.06438701314634486,0.05499093562005906,0.07446032422343135,0.05798406946862357,0.0031529990471023273,-0.010839329179571587,0.0231979620994836,0.05725473692906419,0.0025192333189351197,-0.018612780290151055,0.015450721246434339,0.044700511197005986,0.011527374402461717,-0.012073331184625917,0.04589369475144356,0.07021797105005555,0.029691895998752632,-0.018089196635767937,-0.0011295885891523202,0.020563271436213736,0.04938435152978635,0.10692922757417994,0.25559473857547205,0.46177363584602377,0.6390554385483356,0.7898306435457381,0.906886197119612,0.9038021651338676,0.6389520360190724,0.2995169483829234,0.07027475724674863,-0.05360519722183349,-0.13215596923134815,-0.15580294453709032,-0.1173590429034672,-0.03362327107704946,0.052215536216584056,0.0441697842864388,0.031058456980427265,0.05849871842613036,0.08330429088983397,0.03588762705614787,0.005066625616731538,0.041257584606077875,0.06527198011132089,0.03392241432451336,0.019225426734901508,0.04759569952206014,0.05424444334323099,0.01998431857475783,-0.02397042027925383,0.011196513192255694,0.06549817536652618,0.057346767202526384,0.02755869230401056,0.043351044628980866,0.0,0.0,0.0,0.0,0.0,0.0,0.0,0.0,0.0,0.0,0.0,0.0,0.0,0.0,0.0,0.0,0.0,0.0,0.0,0.0,0.0,0.0,0.0,0.0,0.0,0.0,0.0,0.0,0.0,0.0,0.0,0.0,0.0,0.0,0.0,0.0,0.0,0.0,0.0,0.0,0.0,0.0,0.0,0.0,0.0,0.0,0.0,0.0,0.0,0.0,0.0,0.0,0.0,0.0,0.0,0.0,0.0,0.0,0.0,0.0,0.0,0.0,0.0,0.0,0.0,0.0,0.0,0.0,0.0,0.0,0.0,0.0,N
0.04938435152978635,0.10692922757417994,0.25559473857547205,0.46177363584602377,0.6390554385483356,0.7898306435457381,0.906886197119612,0.9038021651338676,0.6389520360190724,0.2995169483829234,0.07027475724674863,-0.05360519722183349,-0.13215596923134815,-0.15580294453709032,-0.1173590429034672,-0.03362327107704946,0.052215536216584056,0.0441697842864388,0.031058456980427265,0.05849871842613036,0.08330429088983397,0.03588762705614787,0.005066625616731538,0.041257584606077875,0.06527198011132089,0.03392241432451336,0.019225426734901508,0.04759569952206014,0.05424444334323099,0.01998431857475783,-0.02397042027925383,0.011196513192255694,0.06549817536652618,0.057346767202526384,0.02755869230401056,0.043351044628980866,0.06873696081583133,0.04852865013821713,0.0019407317968624664,0.00818980300397721,0.0744897864824285,0.0712495009132693,0.03208343270950333,0.03860748856041893,0.09323448347388863,0.09277313106800614,0.06363647540267853,0.06103816258643092,0.12579098758827464,0.14510175531028274,0.1309812606614422,0.12904081660861558,0.18009090355998333,0.19293647127922256,0.17958538860163928,0.18564580324683544,0.2543248761812805,0.2872235993972497,0.2435438250911841,0.22889138773908496,0.30086912757403866,0.30827101249371025,0.2702958127095782,0.24214208947090052,0.2646065195907349,0.2728806608193555,0.22375554731014374,0.17722466833932354,0.18127995027443497,0.19270905796447696,0.1514981280753708,0.09603597560151574,0.09351172396094398,0.10311001921328417,0.06481432925002933,-0.0045895511493608794,0.0244880235538312,0.0704293182010103,0.03481585341013711,0.00643572609535895,-0.0003258945203172619,0.0385164839122428,0.024543854566490535,-0.023058629483258725,-0.032303983705794626,0.023195279302294678,0.013823942120558222,-0.03882773259791555,-0.04116688653406527,0.011599740696757382,0.018665411981085393,-0.01277267061472638,-0.027515621827593702,0.01283603522594975,0.026679950103971003,0.009216550622423655,-0.01315271406202636,0.014774625038807162,0.035398111590041914,-0.008882784616329683,-0.017262908250368983,0.04626134157528596,0.05928934319577666,0.024224862601388585,-0.010926942966709355,0.021039673217854504,0.05292652167442398,0.036736018333492486,0.003673245757197093,0.028144701698993396,0.057352157758066735,0.03849724481009397,-0.011616117070542623,0.015019175099514507,0.05360493234910382,0.04654315708975642,0.0010379820154570942,0.02029686015198319,0.061121820937645115,0.053913815238368176,0.015476686053793492,0.0034155168597067406,0.05853469196513691,0.05603244959445619,0.007911798391375882,0.022179019884937555,0.06523511530001266,0.050679020790205184,-0.0022867453141213133,0.01914354614368143,0.05976962372780466,0.03799014319662472,-0.002991919577748869,-0.0007730680644069775,0.03744790254042523,0.037269783348684055,-0.008506334633902135,-0.0014756383981856893,0.048763495988245746,0.041409457248253075,-0.013935523708067665,-0.011665869970328513,0.03382087793713806,0.03612562296196297,-0.007147792135981455,-0.0023921521773594937,0.03839652870508132,0.057620775935450785,0.014483544738541002,0.0025924765018741436,0.048352653061943786,0.05096443550481978,0.0200320291580216,-0.010839727211214251,0.03755559270180256,0.07401913831639599,0.05775373662390501,0.04636548639374469,0.10466046410521557,0.1414387407078712,0.1303022621560601,0.09525413256040585,0.1346995581320945,0.16703660684743968,0.1514641832301853,0.1407838208424296,0.15899523001108126,0.19889626240348166,0.15248024401086505,0.11094687891687835,0.11509324345396993,0.14811372739164644,0.1091990361165662,0.07754579641095977,0.10114893432141404,0.13199943511795564,0.07888617945452926,0.025803872299734222,0.018345402972241198,0.0445013999428123,0.029860090474268783,-0.020787589413315842,-0.013847566431310509,0.0338721215251951,0.03596217612042791,-0.014783939077740563,-0.012768765481414932,0.032402296314418516,0.034322216309431774,0.012187710844151248,0.011596301736105952,0.06374491690713381,0.05822518555238616,-0.00496749585285542,-0.015433935954521973,0.10842446259928781,0.24900039081066616,0.3750891953022127,0.5322878201326354,0.7757916892194235,0.9471856595101039,0.9384525743437356,0.7375740941786588,0.4741324279555196,0.2201039649159461,-0.0077393193629308864,-0.16382548390953186,-0.15458007599314846,-0.08802054086201551,-0.0409484839166859,-0.01575439499445709,0.04277725800189239,0.07945941783239353,0.07030596811125023,0.012931194591282152,0.024953472804941434,0.07278551757877122,0.06763787596959316,0.026324639458976985,0.02806187082003843,0.06806239228606498,0.05033551038579034,0.0060948991240281575,0.014555757351829015,0.058929700398169804,0.045625428375177794,-0.0037443895964277708,-0.0027649142159542677,0.0,0.0,0.0,0.0,0.0,0.0,0.0,0.0,0.0,0.0,0.0,0.0,0.0,0.0,0.0,0.0,0.0,0.0,0.0,0.0,0.0,0.0,0.0,0.0,0.0,0.0,0.0,0.0,0.0,0.0,0.0,0.0,0.0,0.0,0.0,0.0,0.0,0.0,0.0,0.0,0.0,0.0,0.0,0.0,0.0,0.0,0.0,0.0,0.0,0.0,0.0,0.0,0.0,0.0,0.0,0.0,0.0,0.0,0.0,0.0,0.0,0.0,0.0,0.0,0.0,0.0,0.0,0.0,0.0,0.0,0.0,0.0,N
-0.015433935954521973,0.10842446259928781,0.24900039081066616,0.3750891953022127,0.5322878201326354,0.7757916892194235,0.9471856595101039,0.9384525743437356,0.7375740941786588,0.4741324279555196,0.2201039649159461,-0.0077393193629308864,-0.16382548390953186,-0.15458007599314846,-0.08802054086201551,-0.0409484839166859,-0.01575439499445709,0.04277725800189239,0.07945941783239353,0.07030596811125023,0.012931194591282152,0.024953472804941434,0.07278551757877122,0.06763787596959316,0.026324639458976985,0.02806187082003843,0.06806239228606498,0.05033551038579034,0.0060948991240281575,0.014555757351829015,0.058929700398169804,0.045625428375177794,-0.0037443895964277708,-0.0027649142159542677,0.041375585312914,0.04468626001528056,-0.009621458828372812,-0.0135317444070126,0.03296814695045791,0.04588913551422293,0.010844552673226286,0.02145149754925973,0.060922929036636604,0.07407027755315111,0.04650617894717303,0.0382456523275575,0.0949029513151281,0.11328663107870052,0.09100850297229089,0.07848176609292808,0.14291978627845214,0.17872914147223176,0.14031791567344049,0.1428992505902381,0.20808212211981714,0.23267017270126522,0.2070694685844484,0.21048819923737894,0.2525309428212319,0.28039891557526025,0.25569260404113975,0.23361455698735684,0.274166222371757,0.3005428169866014,0.26473925270731297,0.2387533800047025,0.24417986030333844,0.25461038473709996,0.17883302523344943,0.1440426638511659,0.1550287583482401,0.15657782561460692,0.10787614035354628,0.054512392122030455,0.06607561935822445,0.08014970249791249,0.04871872455591859,-0.011431233894330416,0.010089128348358319,0.043663536488188395,0.007675221152774253,-0.04028765342896353,-0.018636073142315634,0.03181827331884084,0.017463513511409193,-0.028107676311032493,-0.016100664210116467,0.024677499498491264,0.019819606364625094,-0.009078122401800004,-0.011618498774627317,0.03859563943203349,0.02395722859008893,-0.012335036552058035,-0.019882314553579028,0.034914786071500586,0.029651771926723355,-0.018870873039310024,-0.002649437741659245,0.03751607441380855,0.034424934629727434,-0.0119212863383358,-0.00791772563809871,0.039237881404966264,0.040745531558880686,0.008608756102216323,0.01003292558824458,0.06662167982885649,0.07037381185708451,0.02609195642846651,0.005780883562785751,0.04304381160101214,0.0634799328011721,0.007088757159370866,-0.006123860763741034,0.05024443392731209,0.06339142597579009,0.01411811312417201,0.005629706293469381,0.03552743746179185,0.06301108923968632,0.028079555990996534,0.002736302464540116,0.01578305413994433,0.052819923943913626,0.020244014623629795,0.0020587379646745878,0.031865539182577986,0.06646301076111741,0.04824905289923762,0.0012242535712710897,0.033392068422916664,0.06074884088344875,0.030491902162262528,-0.023778522532630915,0.013140659637710033,0.042846894941006214,0.03894022872736385,-0.02017933023520665,-0.004906371829902902,0.04156003561080928,0.028019513335998624,-0.011923906243592476,-0.0038648207695674455,0.030599751839985298,0.024271473127350396,-0.01324530592588386,-0.009944046214569291,0.041380651363390086,0.047131399894523696,0.0073140697834926495,0.00593740469458984,0.07900833519796997,0.08012701138636545,0.059700472058368155,0.08733606598702863,0.15823808983116391,0.1620064952169246,0.1346458609775689,0.13376075534958368,0.19295418507825637,0.2042232473599194,0.15796771649374747,0.14058989871025676,0.176089000920455,0.1732592634287623,0.10089626674933067,0.07180005467136251,0.1099668799337165,0.14098899440121013,0.08805801127807167,0.06877203374490319,0.09272472751372487,0.0783060390411888,0.015908115945992726,-0.003273554983403485,0.03755367988900699,0.05677914331318671,-0.0032071414674065806,-0.020008773140822514,0.027967223583371538,0.04231128351958396,-0.005783722394400794,-0.008320071684416588,0.025096155094046724,0.05845869070422558,0.007759365904791449,-0.009402819439122967,0.009366832083691013,0.028062489933257988,0.0010779214306842998,0.06281341554883564,0.21086419277817148,0.3972234718444738,0.5426822624120975,0.7144350064255951,0.9100708564587131,0.9543689974245245,0.746506817493693,0.42806590443703063,0.1766254458841035,-0.017444439307821906,-0.1661746042348984,-0.1831906028977766,-0.10210664401917766,0.005079045566421303,0.025576429110504346,0.01220157347640048,0.02737077295005061,0.06869786250241319,0.04019307602919265,0.004272166465285304,0.030550952258775434,0.06864078918744235,0.056152436143356285,0.009899240078894006,0.030697376100882696,0.06095710729144464,0.04548863207201142,-0.0036956687882174215,0.01661973343199701,0.044044589535355894,0.030589100183030096,-0.011734533532021033,0.003488490149534254,0.033069291153482255,0.017018350179832616,-0.013450642022661743,0.0,0.0,0.0,0.0,0.0,0.0,0.0,0.0,0.0,0.0,0.0,0.0,0.0,0.0,0.0,0.0,0.0,0.0,0.0,0.0,0.0,0.0,0.0,0.0,0.0,0.0,0.0,0.0,0.0,0.0,0.0,0.0,0.0,0.0,0.0,0.0,0.0,0.0,0.0,0.0,0.0,0.0,0.0,0.0,0.0,0.0,0.0,0.0,0.0,0.0,0.0,0.0,0.0,0.0,0.0,0.0,0.0,0.0,0.0,0.0,0.0,0.0,0.0,0.0,0.0,0.0,0.0,0.0,0.0,0.0,0.0,0.0,N
0.0010779214306842998,0.06281341554883564,0.21086419277817148,0.3972234718444738,0.5426822624120975,0.7144350064255951,0.9100708564587131,0.9543689974245245,0.746506817493693,0.42806590443703063,0.1766254458841035,-0.017444439307821906,-0.1661746042348984,-0.1831906028977766,-0.10210664401917766,0.005079045566421303,0.025576429110504346,0.01220157347640048,0.02737077295005061,0.06869786250241319,0.04019307602919265,0.004272166465285304,0.030550952258775434,0.06864078918744235,0.056152436143356285,0.009899240078894006,0.030697376100882696,0.06095710729144464,0.04548863207201142,-0.0036956687882174215,0.01661973343199701,0.044044589535355894,0.030589100183030096,-0.011734533532021033,0.003488490149534254,0.033069291153482255,0.017018350179832616,-0.013450642022661743,0.006477163769653844,0.050414519196226644,0.03677210050832771,-0.0056355821106528065,0.021608373621666708,0.06571580931803286,0.07629854737551332,0.024568881047834328,0.05214502875543659,0.10623789115300945,0.11485739756058268,0.0804156997206035,0.10852819461467796,0.18480543583644038,0.2012539701171632,0.16028350616565462,0.17470683242558727,0.22773113930887218,0.2665614113004163,0.22640105009848263,0.23685931951562383,0.2787388441353954,0.30403999833048195,0.2719620292579154,0.24970666105326186,0.278073280953857,0.29465620813758436,0.2394484602421123,0.20844735532638317,0.2280464382475439,0.22143439209981783,0.1622006250952159,0.11993699132136698,0.14503382325325856,0.12707490232622795,0.0780478149421583,0.03394040039031576,0.06194126246135467,0.07563315036780195,0.01979965835633546,-0.007170312615993741,0.01150901931913212,0.03742207420737189,-0.0014480290173647511,-0.04751356191730847,-0.014385592577659626,0.02832355100244906,-0.0033976255019569474,-0.03275480667891364,-0.006954242603928848,0.04039773061130388,0.013293128027212359,-0.016270019451166528,0.006905630832237519,0.032415058833006896,0.01705347645713785,-0.02718202346230984,0.002908942035540294,0.03532285389196378,0.02205706676542008,-0.020088842992785315,-0.004712833357186543,0.046585048959240975,0.028202096046060034,-0.019059214534854655,0.005605674422627792,0.04699735704770454,0.04031604413644269,-0.0024354460638133634,-0.004452098578824504,0.034268490494961674,0.0441265720509682,-0.0108765307931821,0.0036665911067246715,0.044557807027308306,0.04219799082414878,-0.010609896955283183,0.006141601034570308,0.056455176377163414,0.04193118046701902,0.0225755449512822,-0.00160822883354052,0.02938546822606878,0.05315786788970504,0.014510321468190333,-0.004951022424193561,0.035578402230006745,0.054499101659712904,0.011012914247055841,-0.010873975159489659,0.017642520221621952,0.058165033066272076,0.012293887183004228,-0.0023628900877522858,0.03339902525122803,0.06198133923366664,0.028185679724348107,-0.007982371661545383,0.032683336372285425,0.06618367326656469,0.03972049978579748,-0.0035011011762989533,0.02292535354290365,0.07580188309641482,0.03272746074622428,-0.0030909695932851387,0.006750974047850249,0.05025610193172717,0.03382417047513015,-0.011340696223814154,0.01076785511928373,0.04495165910501884,0.05281311827803672,0.010354943381824282,0.05678562127516014,0.1153055926850544,0.13791608032468455,0.10781888511972736,0.12101929324636243,0.1631179657816288,0.19091389279182558,0.1492048046224755,0.15319378370908898,0.19567863632749088,0.19505364917271398,0.13451452885372503,0.11006018154214933,0.12888555426795797,0.13338264545309889,0.08994369735364326,0.08016454896952892,0.11363792479652325,0.11115286193863869,0.06550049409594738,0.01027290924943259,0.041464177358532785,0.05106076679203641,0.00305160338352873,-0.02817055633252393,0.014986407137001412,0.043711871090522623,0.002796381461074053,-0.02856476011105566,0.0096230234229988,0.06215275910721946,0.035416004651439924,-0.0009899528174186886,0.029732263226109838,0.0579747049554526,0.02372963118747823,-0.020206814303564836,0.017362814827447042,0.13643450917779723,0.2530010636140635,0.3838583215302352,0.5890024601863932,0.8060232074153487,0.9221054806876329,0.8556313220982033,0.6497827821764647,0.38853914334043305,0.11507492904899208,-0.0986362140204178,-0.17822112573881202,-0.10689940736542086,-0.0478803911167389,-0.04195872362989833,0.0020803825355448346,0.0890525031559592,0.07736778520824354,0.029443480632884725,0.00529636570525393,0.052942625352371764,0.061992555490925756,0.008459385067297305,0.0027610073317000682,0.0401110095803284,0.0581208334757927,0.018402608387550125,0.00017252556417343004,0.02504455241264659,0.05223034599639952,0.01694054989420556,-0.011209479200282634,0.03259535305145946,0.05236525453378662,0.014512579635214152,-0.0017464042511104165,0.022802277050325382,0.05217072062108069,0.0,0.0,0.0,0.0,0.0,0.0,0.0,0.0,0.0,0.0,0.0,0.0,0.0,0.0,0.0,0.0,0.0,0.0,0.0,0.0,0.0,0.0,0.0,0.0,0.0,0.0,0.0,0.0,0.0,0.0,0.0,0.0,0.0,0.0,0.0,0.0,0.0,0.0,0.0,0.0,0.0,0.0,0.0,0.0,0.0,0.0,0.0,0.0,0.0,0.0,0.0,0.0,0.0,0.0,0.0,0.0,0.0,0.0,0.0,0.0,0.0,0.0,0.0,0.0,0.0,0.0,0.0,0.0,0.0,0.0,0.0,0.0,N
0.017362814827447042,0.13643450917779723,0.2530010636140635,0.3838583215302352,0.5890024601863932,0.8060232074153487,0.9221054806876329,0.8556313220982033,0.6497827821764647,0.38853914334043305,0.11507492904899208,-0.0986362140204178,-0.17822112573881202,-0.10689940736542086,-0.0478803911167389,-0.04195872362989833,0.0020803825355448346,0.0890525031559592,0.07736778520824354,0.029443480632884725,0.00529636570525393,0.052942625352371764,0.061992555490925756,0.008459385067297305,0.0027610073317000682,0.0401110095803284,0.0581208334757927,0.018402608387550125,0.00017252556417343004,0.02504455241264659,0.05223034599639952,0.01694054989420556,-0.011209479200282634,0.03259535305145946,0.05236525453378662,0.014512579635214152,-0.0017464042511104165,0.022802277050325382,0.05217072062108069,0.009569399486108294,0.0006152766071567097,0.04212198052996725,0.07890047193821395,0.029360523817584288,0.015919064877509825,0.06258923515103518,0.09978063085449156,0.08430351234611824,0.06177092765001029,0.12579727979648994,0.1563887574303795,0.15355536151957516,0.11730631108818591,0.1604542322144174,0.22300476895927895,0.225762052503103,0.1975330961809027,0.2319261828245442,0.2689429227242874,0.2725846548013724,0.24045261682907812,0.2637501478787983,0.2920741440136646,0.27742027137225833,0.22938486755098794,0.21756510369964116,0.2395543392579842,0.21854209222839166,0.1545195252796044,0.1386800837651017,0.16621288739315782,0.12910254294548154,0.07053842218928057,0.060110228467131904,0.08100411468668102,0.044403268418747234,0.007895890611133103,-0.002131194545163805,0.043108886487590384,0.030797968965433378,-0.005476909002472811,-0.005727886208727144,0.025231020553311386,0.012983762679979452,-0.028082548018479148,-0.023578643995897725,0.014484212393131734,0.011694689284270969,-0.03195586399600705,-0.032473047678044965,0.010137464898263292,0.033470775851627534,-0.015277708081809255,-0.028106796165089657,0.02378322245675926,0.03958993217011564,0.016914440319013086,-0.020241366614091923,0.036127422197686526,0.05161866906592772,0.021434852279330577,0.0031805015141743243,0.04005950631534015,0.05767138784191814,0.03201733230544515,0.0039006358676340687,0.04052541169162029,0.05308997973504475,0.03439547741893166,-0.013156867980836042,0.018437907186573847,0.05717935451024233,0.023866666911146195,-0.016695919015142845,0.0050958916459910054,0.04364371626437636,0.02934825846848875,-0.004186176805630948,0.003045545724849682,0.05104673837482363,0.034216789879118754,0.0005605186149961782,0.010083016006714983,0.055586883542635995,0.04107138572703032,0.014540838701118603,0.002398553813487564,0.04784839149185659,0.06208931473075564,0.013922179111304028,0.0017523263822779745,0.04718218624349547,0.06141009362842755,0.013236279388160976,-0.0061348025410231976,0.027298748462453983,0.046336040431213914,-0.004223510964917249,-0.016374681555432632,0.019484512189948604,0.0409549446105713,0.0072381920589244236,-0.021660643187268857,0.011863416132564654,0.04541296373062821,0.03579124461156002,0.004603675022294902,0.06465886764874412,0.11275741780139244,0.09370137402017574,0.07709684001979238,0.13974971748663922,0.1712585941801351,0.15242473450631078,0.11685050075439427,0.15573962491848778,0.2162899251688222,0.20249684210609353,0.1383591761908448,0.13187782431603934,0.17344863909547598,0.15506317188006397,0.08631645926080057,0.08240667086515949,0.1289267481240873,0.12266593386616623,0.0804172675957108,0.06217477435877624,0.08473047824366944,0.06887253941724729,0.009791448005848477,-0.013319541310254486,0.016330467711044714,0.01712999479450959,-0.03493039015888814,-0.029455228631541448,0.02874999262412815,0.04607929853340922,0.012929679188257957,0.010901269679337069,0.03759103153228234,0.05939471702591843,0.016306913395827863,-0.02207329248176114,-0.014947961179460791,0.01128045655959769,0.03261101887478464,0.10664574759362924,0.2741858797052399,0.4776284770962192,0.6449686977666342,0.8026029534479345,0.9481233651138068,0.9039115564113402,0.6315495622897871,0.32062333662861553,0.09111309959998826,-0.04980670657151998,-0.13576360527205308,-0.14997852290065225,-0.08525984361861536,0.007996164543888275,0.05060026732755976,0.020965322320824084,0.027108730725000436,0.06664370291008105,0.05078011595958422,-0.010868844387718964,-0.0030863379413009423,0.030939645501078597,0.028820698734248754,0.00017092464049479837,-0.01179447443473931,0.05054023595650387,0.05518489346828609,0.033355123234372265,0.01626627446405999,0.044733884895788494,0.06837003554142554,0.017585873133898606,-0.006801490784591322,0.02402230261310738,0.047668882900571266,0.02815073662794797,-0.0009173120395352462,0.02048039739774979,0.04195552657935988,0.003519279438107245,0.0,0.0,0.0,0.0,0.0,0.0,0.0,0.0,0.0,0.0,0.0,0.0,0.0,0.0,0.0,0.0,0.0,0.0,0.0,0.0,0.0,0.0,0.0,0.0,0.0,0.0,0.0,0.0,0.0,0.0,0.0,0.0,0.0,0.0,0.0,0.0,0.0,0.0,0.0,0.0,0.0,0.0,0.0,0.0,0.0,0.0,0.0,0.0,0.0,0.0,0.0,0.0,0.0,0.0,0.0,0.0,0.0,0.0,0.0,0.0,0.0,0.0,0.0,0.0,0.0,0.0,0.0,0.0,0.0,0.0,0.0,0.0,N
0.03261101887478464,0.10664574759362924,0.2741858797052399,0.4776284770962192,0.6449686977666342,0.8026029534479345,0.9481233651138068,0.9039115564113402,0.6315495622897871,0.32062333662861553,0.09111309959998826,-0.04980670657151998,-0.13576360527205308,-0.14997852290065225,-0.08525984361861536,0.007996164543888275,0.05060026732755976,0.020965322320824084,0.027108730725000436,0.06664370291008105,0.05078011595958422,-0.010868844387718964,-0.0030863379413009423,0.030939645501078597,0.028820698734248754,0.00017092464049479837,-0.01179447443473931,0.05054023595650387,0.05518489346828609,0.033355123234372265,0.01626627446405999,0.044733884895788494,0.06837003554142554,0.017585873133898606,-0.006801490784591322,0.02402230261310738,0.047668882900571266,0.02815073662794797,-0.0009173120395352462,0.02048039739774979,0.04195552657935988,0.003519279438107245,-0.008411931473272087,0.03497615697301384,0.09529611990494215,0.08135840339353695,0.060378839557727,0.09237258724585573,0.14855121684305872,0.13532343856441997,0.11270290474506453,0.15750321288625077,0.21693260036048262,0.2165977175884945,0.19250821633273393,0.21907408658609182,0.26270035862185176,0.282590700864296,0.2571481788454292,0.2775786199746562,0.3222823910895833,0.3384573163942535,0.2901002304640808,0.27561124985450675,0.28538504344129495,0.2810138361296863,0.22168833707351482,0.2034029134502331,0.21654691564327214,0.21550734462865376,0.15227002982163226,0.10362434206259039,0.11755782492748834,0.11245270725634522,0.07389311723336024,0.02346395317203818,0.03555169809646572,0.04533756579197502,0.026404013504438988,-0.009265306989067095,0.022315788854148297,0.04672850325243643,0.02315517041185675,-0.02681979962312177,-0.00480927014581958,0.02437040325052393,-0.0016965893204771907,-0.03982227124488909,-0.027617794123276675,0.006106098164364039,-0.00826022461674191,-0.041922781358092534,-0.03248556266319488,0.017649025221557722,0.017278375609215177,-0.014396120427583937,-0.007771292858100477,0.046755175325108846,0.04598216457140436,-0.0028875924410152027,0.0033519601028041326,0.0479027110296256,0.044363956446917555,0.0023383059961714554,-0.006169543019977683,0.03804314083340711,0.041375500266945225,0.0038299519969408257,-0.019389251135445863,0.014921680430238215,0.053964825185725616,0.032941742883399405,0.0022579871086106304,0.033919746173700985,0.06792831166065634,0.025084094943216017,-0.005806614413177006,0.016060571212656256,0.052287659806012014,0.018874891351730656,-0.0001715377703845326,0.016752164964086932,0.06724892011375923,0.038517478471706584,0.004963183029180213,0.03619100653765992,0.084201544449427,0.06499387886888802,0.00017057924506336367,-0.0022629121996004644,0.03369396046402658,0.03124001396556554,-0.009623260997102359,-0.016891865140481955,0.0334373385049275,0.03816438384777381,-0.005107131690030488,-0.007570426113292813,0.023578214703111715,0.04274180285575743,0.009123410202524157,-0.007670019103007735,0.042767702866175414,0.062037985465155716,0.028544866648563618,0.011895449576301571,0.036095006986339044,0.06274644265847172,0.0174511475046184,-0.010983761114632363,0.027847325686539075,0.06434661894178545,0.05291707871002559,0.03676462988609375,0.0806957322151355,0.14391275326681086,0.1280155253035718,0.10020929003117637,0.11569820494680877,0.18408423880360322,0.1805638075970596,0.14353844708236674,0.14260994493613852,0.187377150488017,0.16983384753463612,0.11157767960110802,0.08940748404566445,0.13211976381435023,0.13650568937536953,0.09775941247187525,0.07827688945187815,0.1068523442996741,0.09947543478420713,0.0561383933293307,0.012834287374566265,0.02955679192936301,0.055895431827018234,0.012638518202596061,-0.023420143583684036,0.010112655678669707,0.04842764232574832,0.012314959173227547,-0.01902963057292411,0.014388864108949986,0.0525628007459382,0.0330843760946189,-0.0032506563762868135,0.008354179641956255,0.03669211622286093,0.019355188928578654,-0.017261463570310324,0.0804419084088709,0.25005870003078695,0.40278092716247654,0.560203441382193,0.7535194356683118,0.9491169036748859,0.9645745642350436,0.7230702989497308,0.4117869374279125,0.1891026280127858,-0.024215333679896103,-0.16099517914996303,-0.18286390535481864,-0.09223472475506804,-0.03310871848548568,0.004127479494131085,0.021890114073672834,0.07539736368180051,0.07586196772523718,0.05210064110717093,0.011328919985245945,0.042365100104342544,0.07802164686242621,0.046310636179583045,0.012048816960463726,0.03045235125178006,0.07513432076571751,0.04290481251464268,0.01538037745590655,0.02137539784662935,0.07050346843252839,0.049973546946669306,0.010200278785658686,0.01599859243550487,0.05058034529038083,0.04195527174913969,0.0021359622255392747,0.0,0.0,0.0,0.0,0.0,0.0,0.0,0.0,0.0,0.0,0.0,0.0,0.0,0.0,0.0,0.0,0.0,0.0,0.0,0.0,0.0,0.0,0.0,0.0,0.0,0.0,0.0,0.0,0.0,0.0,0.0,0.0,0.0,0.0,0.0,0.0,0.0,0.0,0.0,0.0,0.0,0.0,0.0,0.0,0.0,0.0,0.0,0.0,0.0,0.0,0.0,0.0,0.0,0.0,0.0,0.0,0.0,0.0,0.0,0.0,0.0,0.0,0.0,0.0,0.0,0.0,0.0,0.0,0.0,0.0,0.0,0.0,N
-0.017261463570310324,0.0804419084088709,0.25005870003078695,0.40278092716247654,0.560203441382193,0.7535194356683118,0.9491169036748859,0.9645745642350436,0.7230702989497308,0.4117869374279125,0.1891026280127858,-0.024215333679896103,-0.16099517914996303,-0.18286390535481864,-0.09223472475506804,-0.03310871848548568,0.004127479494131085,0.021890114073672834,0.07539736368180051,0.07586196772523718,0.05210064110717093,0.011328919985245945,0.042365100104342544,0.07802164686242621,0.046310636179583045,0.012048816960463726,0.03045235125178006,0.07513432076571751,0.04290481251464268,0.01538037745590655,0.02137539784662935,0.07050346843252839,0.049973546946669306,0.010200278785658686,0.01599859243550487,0.05058034529038083,0.04195527174913969,0.0021359622255392747,0.007937195664093902,0.037770098455738865,0.05084504669591528,0.006372227629572049,0.005166815021602432,0.05204039772818318,0.06300125220240614,0.030860237133437045,0.0156303833374855,0.08212474498195423,0.10074910316098319,0.07871389143778644,0.07123081615385118,0.12871101242882851,0.15996001848311064,0.1409852161153324,0.136596473893046,0.18040180071726003,0.2220054135899827,0.20141027219946062,0.18342284516872442,0.22324823876468566,0.2608863784829361,0.2531366953611998,0.21439944783385517,0.2406766487422456,0.2839639093591077,0.2530540387025241,0.20074375554239784,0.20142931281414397,0.22150196255587376,0.20335106139724,0.13256645732949282,0.12434177820280605,0.14266439298513095,0.13472042715220148,0.057295648162544566,0.03758145653200275,0.08036443616251543,0.05362591995594023,0.007753589782352664,-0.002064962965392708,0.024155771335252315,0.03359954430214959,-0.004949213789990622,-0.03390295409516977,-0.010074190549215852,0.02332458594986168,-0.00811931318830733,-0.04681380773660278,-0.008765069045067487,0.02921922749329705,0.007132860950374895,-0.034226804998130196,-0.003660576990840741,0.03402821617778087,0.028437126425223114,-0.013234332643559428,-0.004583858344992355,0.027987934435195625,0.03407997801592401,-0.019908313440233784,0.002828610488856969,0.039890818941382813,0.03127845573866723,-0.00860578114018789,-0.0005569518012440852,0.04102723697725664,0.04174691067275697,-0.007995612066369858,0.0022062199831688195,0.038754388056444614,0.0656507735312398,0.00849564279436494,-0.01510395992608043,0.028455858203158133,0.05277598358205504,0.03145938098603015,0.010111416096268975,0.03433729729705218,0.0705392511513276,0.039517644837956986,0.00607782241091375,0.03262484150975752,0.06395937690165254,0.040081762577176494,0.008996009908548304,0.02830628516393174,0.06441333423624147,0.02611562965841936,-0.016982726748570126,0.01912276921522575,0.048031928449349344,0.03134624276328611,0.014670072723510211,0.0004060232938718356,0.03655831378545708,0.04632654251738383,-0.006288364937578253,-0.013280385068004717,0.05175408294175652,0.04481359488448754,-0.0004969790794245415,-0.009771482812346265,0.019393622250684597,0.04620120409408741,0.013053411950844005,-0.005642950511664052,0.028517522714043047,0.06033730949435498,0.03461874510804781,0.016168304456822807,0.057791845217708464,0.1162915911786325,0.10046770064450741,0.09672632360030944,0.13147088703777515,0.18070246896704434,0.15081891408432738,0.14502444732102518,0.16331871998782158,0.1985003917945952,0.18336508520288847,0.12991036143653686,0.11733535202725447,0.15763605182164317,0.1332030723753141,0.07763183311355483,0.07251886397008014,0.12265746428137639,0.11763630713251605,0.055047449499775816,0.040486357356422246,0.06434395778138027,0.0546086659408622,0.004070973588406585,-0.020076146953904465,0.006158657409732787,0.037166071049588544,-0.006264496024006408,-0.0209370688406779,0.019542080259008013,0.05516547021320493,0.0043247228139598505,-0.008181176921737737,0.020042204263824817,0.0673891885782735,0.028250889101581748,-0.030175522546579008,0.007308760522806163,0.0998996381710793,0.18999235193245373,0.29438439745482486,0.49227462990525434,0.7284554582622067,0.8805143429976924,0.926838833006387,0.8218111863493572,0.5918116916791878,0.2872174168544262,0.006404247198951036,-0.15225336805044382,-0.1311825217234211,-0.09360401458910883,-0.06832121081046155,-0.012125917383363919,0.0653945950351584,0.07785136531216871,0.02765839191076472,0.010832748258606409,0.06578923766284714,0.07973701321696307,0.04308871859438868,0.0038587306120392425,0.046062543036079005,0.0665087018962413,0.0244078323904702,-0.0010253315173269265,0.04782302266189017,0.060560586990393885,0.022798367462921593,-0.01745062324779847,0.019027668279587417,0.045842824268568984,0.015005753023325769,-0.00626860270899011,0.0036329370924085918,0.04712343735605074,0.03541256945058044,-0.007486056041640593,0.0,0.0,0.0,0.0,0.0,0.0,0.0,0.0,0.0,0.0,0.0,0.0,0.0,0.0,0.0,0.0,0.0,0.0,0.0,0.0,0.0,0.0,0.0,0.0,0.0,0.0,0.0,0.0,0.0,0.0,0.0,0.0,0.0,0.0,0.0,0.0,0.0,0.0,0.0,0.0,0.0,0.0,0.0,0.0,0.0,0.0,0.0,0.0,0.0,0.0,0.0,0.0,0.0,0.0,0.0,0.0,0.0,0.0,0.0,0.0,0.0,0.0,0.0,0.0,0.0,0.0,0.0,0.0,0.0,0.0,0.0,0.0,N
0.18999235193245373,0.29438439745482486,0.49227462990525434,0.7284554582622067,0.8805143429976924,0.926838833006387,0.8218111863493572,0.5918116916791878,0.2872174168544262,0.006404247198951036,-0.15225336805044382,-0.1311825217234211,-0.09360401458910883,-0.06832121081046155,-0.012125917383363919,0.0653945950351584,0.07785136531216871,0.02765839191076472,0.010832748258606409,0.06578923766284714,0.07973701321696307,0.04308871859438868,0.0038587306120392425,0.046062543036079005,0.0665087018962413,0.0244078323904702,-0.0010253315173269265,0.04782302266189017,0.060560586990393885,0.022798367462921593,-0.01745062324779847,0.019027668279587417,0.045842824268568984,0.015005753023325769,-0.00626860270899011,0.0036329370924085918,0.04712343735605074,0.03541256945058044,-0.007486056041640593,-0.004757051424929916,0.05321319503841406,0.0632345721750738,0.02532052227190324,0.03548772449047377,0.0913490895159775,0.09211370872121638,0.06179483569539644,0.06040659585202182,0.12636200619471302,0.14206800799179647,0.11953570731579827,0.12357745407537263,0.19260402341255306,0.21381997653216692,0.1896331752760183,0.165652011257439,0.23068552679529458,0.2623341192437222,0.2462010297077504,0.23269058592892713,0.27700606229603064,0.3071448619568682,0.27270380246464054,0.2336822516529537,0.26927892444591683,0.27148443891360324,0.21629117564809494,0.17569371086685773,0.19528456224339516,0.19585075002080438,0.1581805386741078,0.07506165755552499,0.08808655233832852,0.09163814428998904,0.0593018455094675,-0.0017361465283442937,0.00931353336360689,0.0420348192563586,0.02201071039138699,-0.03157253994253928,-0.02032585724595146,0.014937680452925206,0.011806126646598745,-0.0225299639013308,-0.030478230107918076,0.016754763542079495,0.027960906686291774,-0.004064885894838228,-0.031325796223043344,0.010976001627429734,0.03643571348303976,-0.019750710274057507,-0.011179684735601483,0.028547589359935073,0.05383052921318229,0.0022677875034971123,-0.008535590278200195,0.03102143284154731,0.05613795110540002,0.021213614258369654,0.0006522326651852532,0.023255822924904808,0.06982462185163381,0.029955374585163695,-0.007548150284098457,0.029317044274055456,0.04934863218322726,0.045347249698428474,-0.01388760193038487,0.025250191427083058,0.05475838116866085,0.05063770135785104,0.0032891452233869177,0.025517982941157088,0.0549229839294939,0.04590341180014086,-0.00634023440485711,0.006196489670390247,0.04991338995886363,0.04560855371349579,-0.0019170724630993724,-0.013460016399203495,0.02538097789167065,0.028204714397610985,0.00461342324939427,-0.011789918183880265,0.04379879914023341,0.04417769821125213,0.01095019024844339,-0.012679734981711226,0.038092656972023645,0.05526690965006559,0.02924601800331516,0.01283501012905039,0.046838323763511984,0.06645642411555375,0.03329051929049484,-0.00945549479802477,0.012623266051501344,0.046727876524544326,0.03045899288548706,-0.009779675671660132,0.014817737233074332,0.049052697477483594,0.013725708588779938,-0.014357197466997054,0.03440967616908099,0.07362761658738698,0.07209978183227052,0.06583144894330314,0.09082753446114694,0.1542915598549457,0.14342215114669793,0.11822355838624386,0.14109940333885726,0.19284969656157838,0.1894713448073152,0.14296384362807127,0.15172893896194642,0.19656330944453884,0.16465941084536295,0.10161457864589012,0.0866265685971898,0.10768925298223882,0.10719438325357136,0.03713352772221458,0.05830544660576198,0.09870009831379098,0.08630714972864596,0.0163182613654843,0.0015290146869981714,0.02513011295034203,0.022310475243807772,-0.026139417297277794,-0.03142519791143851,0.016047052143193,0.0514714833904125,0.022042610249702364,-0.005040868907399234,0.03021936759902628,0.05101705723864452,0.026147474081882893,-0.005991786926623283,0.012197449029906484,0.030309928809484944,0.0003404271090692263,0.02548916312590808,0.15615440017894655,0.33953045461516723,0.5012100625738467,0.6867887038514613,0.8866573091918166,1.0,0.856393888435058,0.5350203245797408,0.26146179494491323,0.06689091601847102,-0.09192375663253778,-0.16221044884806726,-0.1535909631921171,-0.05647098162653064,-0.005246924543015721,0.009695481981342303,0.012371543284426141,0.06519793744574005,0.07458550698475681,0.03334796617408236,0.03270229823255523,0.06066150011303652,0.05963671755929631,0.02244065835758272,0.0018879527652925592,0.04599294118415183,0.07076506913570249,0.016214440438675076,-0.019243332385041473,-0.009195382671444182,0.051172184924341495,0.017868632084797487,-0.008287975097194209,0.027918652430488133,0.06890141624669613,0.04507263420607174,-0.0027516343391092513,0.028646754081183726,0.0624795423780342,0.05555957379540771,0.024701599834294277,0.0,0.0,0.0,0.0,0.0,0.0,0.0,0.0,0.0,0.0,0.0,0.0,0.0,0.0,0.0,0.0,0.0,0.0,0.0,0.0,0.0,0.0,0.0,0.0,0.0,0.0,0.0,0.0,0.0,0.0,0.0,0.0,0.0,0.0,0.0,0.0,0.0,0.0,0.0,0.0,0.0,0.0,0.0,0.0,0.0,0.0,0.0,0.0,0.0,0.0,0.0,0.0,0.0,0.0,0.0,0.0,0.0,0.0,0.0,0.0,0.0,0.0,0.0,0.0,0.0,0.0,0.0,0.0,0.0,0.0,0.0,0.0,N
0.02548916312590808,0.15615440017894655,0.33953045461516723,0.5012100625738467,0.6867887038514613,0.8866573091918166,1.0,0.856393888435058,0.5350203245797408,0.26146179494491323,0.06689091601847102,-0.09192375663253778,-0.16221044884806726,-0.1535909631921171,-0.05647098162653064,-0.005246924543015721,0.009695481981342303,0.012371543284426141,0.06519793744574005,0.07458550698475681,0.03334796617408236,0.03270229823255523,0.06066150011303652,0.05963671755929631,0.02244065835758272,0.0018879527652925592,0.04599294118415183,0.07076506913570249,0.016214440438675076,-0.019243332385041473,-0.009195382671444182,0.051172184924341495,0.017868632084797487,-0.008287975097194209,0.027918652430488133,0.06890141624669613,0.04507263420607174,-0.0027516343391092513,0.028646754081183726,0.0624795423780342,0.05555957379540771,0.024701599834294277,0.05632267015730915,0.09523447017389033,0.07664804837536725,0.02937744130210724,0.05903914469229842,0.10564337838984979,0.12120051117389412,0.08652144952094577,0.11442137934538313,0.16890954673059078,0.18759364856497238,0.17288293549631326,0.17998767438032395,0.23771629056995333,0.2548718681703054,0.2314596781002309,0.22748593757397587,0.271754551766933,0.2922645577248499,0.2698155878968831,0.2476081228903267,0.28324182719167174,0.31431068593732203,0.25680646861884,0.22352665692189405,0.23366398427842067,0.2368074905275773,0.17774486953622123,0.13566760540036665,0.14896478344645933,0.14802081348439253,0.08482015993584714,0.040951343732667456,0.05240077400829834,0.05915110209188765,0.008384983787281556,-0.018310246590574626,0.010250837998366843,0.038852206324759386,0.002677420600308547,-0.033485354610081196,-0.019248501085745016,0.023776115716986172,0.006775971816079792,-0.024656601384465692,0.0038717595537625144,0.022751430874941334,0.015174723640617864,-0.02846589836624669,-0.01937440536254172,0.018443761864283818,0.005782960092932809,-0.030958637764365058,-0.010180844707823085,0.027314937197270846,0.031127917761118166,-0.013141497387923801,0.0025114718745756163,0.04208752454393165,0.031185925839068828,-0.0037905387587538275,-0.0028379961312541397,0.041245832764864154,0.030059588230193637,-0.005193499049606265,0.0050910725322139356,0.03451474491723527,0.04947866811310755,-0.007617068708138621,0.004834748805911732,0.031634774881665405,0.046384705486058615,0.0010852789764478684,0.006142864315166502,0.047159206076300975,0.07133459690058488,0.023469004806531888,0.013968170146743508,0.04763380757646133,0.0428643641672555,0.014061601869236518,-0.019572754036927122,0.006764639119023315,0.042674719761886255,0.016157593057559348,-0.007981786108859473,0.027861189881194143,0.06128744560649194,0.04189821047080369,-0.003902750121266415,0.015090518050948801,0.05327927687657913,0.03866373570407995,-0.007152698293088919,0.00943585352553734,0.047630975040152033,0.03063287055883875,-0.017554763065236956,-0.012926161488525883,0.022922198982676206,0.022793382329815374,-0.006106908464784171,0.005829225095215959,0.056207596876774714,0.0610309715102838,0.025105119157160568,0.022838080783458944,0.05423501821776393,0.08089955787922527,0.05483469970714365,0.06964827988820835,0.13974492917135795,0.15232422227609027,0.12418983181148799,0.1321468894202587,0.19779786279359354,0.2131397622740057,0.16377207343608302,0.13849703568174884,0.15891358241925427,0.15781666800266184,0.11360213991572156,0.0862680766492848,0.1118111004216086,0.1422242931939357,0.07909831252202823,0.04003109919723347,0.06341726725508386,0.08204732222327972,0.045512074326511276,0.006605743079004032,0.04212320869650649,0.06085310053278957,0.029185969154127727,-0.009685096700644793,0.009033645213165737,0.04213286004591402,0.003201568908318371,-0.02856528874613055,-0.01477429951700745,0.030168709522375867,0.019856650071477955,-0.019313542182885685,-0.0009428101824136613,0.029364852477282672,0.02120536411518056,0.02977840457833069,0.15828532421075248,0.3611218172406959,0.5494811875983796,0.7065575983906199,0.8803448636254101,0.9748279349513842,0.8123843422024162,0.4865967784321146,0.18464733899376504,0.03131337677583539,-0.08143729471027894,-0.15843319899391972,-0.14929308005907366,-0.06122276256436983,0.02418335806229508,0.018136436076899774,0.011854166782841994,0.04375220062517103,0.06824301986147113,0.027738443857376244,0.011055369160977836,0.03500788884246408,0.07080835299757782,0.03446689368026008,0.00999950673594893,0.0334202391518248,0.06634033430566104,0.019969003124056885,0.00232240857947538,0.03981359370892243,0.07485248102072993,0.037848349824313975,0.005615523564242252,0.03096724818143877,0.051512477882115666,0.02166063381957044,-0.022576100324847366,0.0028161273508319046,0.06424896099482537,0.0,0.0,0.0,0.0,0.0,0.0,0.0,0.0,0.0,0.0,0.0,0.0,0.0,0.0,0.0,0.0,0.0,0.0,0.0,0.0,0.0,0.0,0.0,0.0,0.0,0.0,0.0,0.0,0.0,0.0,0.0,0.0,0.0,0.0,0.0,0.0,0.0,0.0,0.0,0.0,0.0,0.0,0.0,0.0,0.0,0.0,0.0,0.0,0.0,0.0,0.0,0.0,0.0,0.0,0.0,0.0,0.0,0.0,0.0,0.0,0.0,0.0,0.0,0.0,0.0,0.0,0.0,0.0,0.0,0.0,0.0,0.0,N
0.02977840457833069,0.15828532421075248,0.3611218172406959,0.5494811875983796,0.7065575983906199,0.8803448636254101,0.9748279349513842,0.8123843422024162,0.4865967784321146,0.18464733899376504,0.03131337677583539,-0.08143729471027894,-0.15843319899391972,-0.14929308005907366,-0.06122276256436983,0.02418335806229508,0.018136436076899774,0.011854166782841994,0.04375220062517103,0.06824301986147113,0.027738443857376244,0.011055369160977836,0.03500788884246408,0.07080835299757782,0.03446689368026008,0.00999950673594893,0.0334202391518248,0.06634033430566104,0.019969003124056885,0.00232240857947538,0.03981359370892243,0.07485248102072993,0.037848349824313975,0.005615523564242252,0.03096724818143877,0.051512477882115666,0.02166063381957044,-0.022576100324847366,0.0028161273508319046,0.06424896099482537,0.04653101058427177,0.00727696033714578,0.04250268303540042,0.08261788606911445,0.07723277492446709,0.04795980678389096,0.07401318449449097,0.11460242979486526,0.12893669435768945,0.09542526745300581,0.11968150145542604,0.17051320852042554,0.19032662530788827,0.1527282906521185,0.163328677194714,0.23173394088824106,0.25714533503716475,0.22756624084525556,0.2222021291848083,0.26745537892074533,0.28892352720738584,0.24580401748880681,0.24849844464138504,0.261001756123853,0.268908456338425,0.2170102346333139,0.20130303186438686,0.22177815078875945,0.2136234893412726,0.15522743543742357,0.11378059544427283,0.12047146719886175,0.1296851371971918,0.07420529014222325,0.021219936577839996,0.05951751545718025,0.06187836527664807,0.018686879428353585,-0.005270104475546291,0.01879282534986639,0.03565847243280372,-0.007490364836459593,-0.04106653622434851,-0.009882712869765152,0.016447716447477858,-0.01248698758519367,-0.043894826992789515,-0.01778235105793041,0.022644241419180523,0.022179996830743315,-0.026378375128459898,-0.017430100832726735,0.010622769717915096,0.019379842383017043,-0.01275870830839176,0.0030112812782210124,0.0474911896761514,0.051080515012310465,-0.007819705518550147,-0.009203449379075837,0.03733125222588159,0.04058422232871985,-0.013842060256362042,-0.010740523022046061,0.04269269139904782,0.05045917415497695,0.00536358949935146,0.003414168916057518,0.04941574167583406,0.059369833409565566,0.02608056510749072,0.00715415921779652,0.04099599717632857,0.0532072498172319,0.026991014823212606,0.003152255669274579,0.036896333832484404,0.06582424254534679,0.034737057037265644,0.0012396982473364929,0.037337446386506296,0.06382997941729485,0.03751812100783186,-0.0031946042332084324,0.023296739583653265,0.05219197343774165,0.023490979477062482,0.001997997851606021,0.006915463558865465,0.04304526864920782,0.031186161679051253,-0.007059593321572123,0.00511215474891879,0.0413024081273242,0.04391098874920745,-0.0038609779166879957,-0.015608766430415866,0.03747058361232546,0.04257627470347054,-0.0026885920132492143,0.007282868903049553,0.04849300169526107,0.05134242649433514,-0.0033666136838083503,-0.007627424747340946,0.03136274356677191,0.04400505664598983,0.0039021219354647453,-0.007339675966409158,0.04868442915674231,0.07117474887152174,0.04333446023901687,0.03956975984177042,0.11268582815431873,0.14748142996913677,0.11755805321856856,0.11172071208490227,0.1347707240435289,0.1915088479662791,0.16673072756189014,0.14203833274239505,0.17983208915667317,0.19610629386438314,0.15245603246233747,0.108879051889647,0.10857171502193405,0.14672806381577233,0.10813751136444535,0.08399637617321089,0.08629750479551762,0.11263279084579655,0.062190054577186835,0.009363037390703571,0.011744547953762806,0.042924239201962505,0.00928921821485596,-0.029167937673074257,-0.017254875225815675,0.03062095378722902,0.030451160850309158,-0.015369597914274398,-0.006043176766257433,0.04882594414171136,0.06043092749452375,0.019167623111602777,0.023435575836259635,0.06123014866897467,0.03894356734190765,-0.00022718547072627827,0.04451681001599833,0.20437191921013254,0.37372922184287793,0.49738064113581876,0.700122893628639,0.9027426587317128,0.9972220493266727,0.8299369768842576,0.5184684041243687,0.25479589769389555,0.04368950345492919,-0.1340828949718221,-0.1969499017132103,-0.1401302254591276,-0.03322661827067653,0.0061697036386700625,0.030876987243626454,0.05051184979897846,0.08669119830552288,0.04822751237390297,0.011939055992032224,0.052243763184072776,0.08035346809802352,0.060281697839235475,0.023244064879023852,0.017256502063540836,0.06633393775671954,0.045685706816236224,0.012927563220477297,0.006474321909779208,0.05034020022952551,0.05333511949639637,0.013072035895080557,-0.008033962758215307,0.04283179068777795,0.05287859760371909,0.017319542379839122,-0.006230245505693198,0.0278438326966317,0.0,0.0,0.0,0.0,0.0,0.0,0.0,0.0,0.0,0.0,0.0,0.0,0.0,0.0,0.0,0.0,0.0,0.0,0.0,0.0,0.0,0.0,0.0,0.0,0.0,0.0,0.0,0.0,0.0,0.0,0.0,0.0,0.0,0.0,0.0,0.0,0.0,0.0,0.0,0.0,0.0,0.0,0.0,0.0,0.0,0.0,0.0,0.0,0.0,0.0,0.0,0.0,0.0,0.0,0.0,0.0,0.0,0.0,0.0,0.0,0.0,0.0,0.0,0.0,0.0,0.0,0.0,0.0,0.0,0.0,0.0,0.0,N
0.04451681001599833,0.20437191921013254,0.37372922184287793,0.49738064113581876,0.700122893628639,0.9027426587317128,0.9972220493266727,0.8299369768842576,0.5184684041243687,0.25479589769389555,0.04368950345492919,-0.1340828949718221,-0.1969499017132103,-0.1401302254591276,-0.03322661827067653,0.0061697036386700625,0.030876987243626454,0.05051184979897846,0.08669119830552288,0.04822751237390297,0.011939055992032224,0.052243763184072776,0.08035346809802352,0.060281697839235475,0.023244064879023852,0.017256502063540836,0.06633393775671954,0.045685706816236224,0.012927563220477297,0.006474321909779208,0.05034020022952551,0.05333511949639637,0.013072035895080557,-0.008033962758215307,0.04283179068777795,0.05287859760371909,0.017319542379839122,-0.006230245505693198,0.0278438326966317,0.05715297043112091,0.016908133096728475,-0.0016742259701289877,0.04702057432869977,0.0910030216595499,0.06788372389064264,0.03527727518456392,0.08439917385193252,0.13845852398372918,0.10146329706554957,0.0886285889950417,0.12876579061054777,0.19068362895272853,0.1615871671428501,0.14948868689346398,0.1831967307170338,0.23631705068023118,0.22725243986371663,0.2040093063771279,0.23379363267741904,0.29500709460600216,0.2820470901194949,0.24291522701516716,0.2616130352476801,0.30453647771227627,0.2876783438890434,0.23503389775420627,0.23299927437319587,0.24556490350629226,0.2247196057864562,0.16565257289354104,0.12595418239029718,0.1608138947504209,0.15261414519105568,0.07734002908125982,0.03578049768121768,0.06152162841766329,0.07054496733155885,0.012432996422376772,-0.021626914290069098,0.00675058887288476,0.01594847283728671,-0.02044828622140177,-0.025650972343936724,-0.002071858248135254,0.007077710145337536,-0.015012439169565907,-0.037150737063654765,-0.008943477616501378,0.03600346549571201,0.0016827587462509563,-0.02790644944473734,-0.011966617942309656,0.027900136020248708,0.012490700209809854,-0.02219391345034009,0.007849021033372884,0.045019097331122845,0.029315781041789193,-0.01525857841460448,0.00010062011017559167,0.05139525249840809,0.028223996386450713,-0.0022081544275815383,0.005702853298739383,0.06155995018967023,0.028560619957644338,-0.011689878301415423,-0.003987405382770065,0.03967080132345348,0.052085840228282096,0.016460476738714664,0.014400857706316631,0.057910471720775396,0.055788915841343135,0.024839494753439013,-0.0013341440187709744,0.0420726775918684,0.06145890186768979,0.016025214903806106,-0.0006230302325695693,0.030716685787828123,0.0668446320012109,0.021359324988951215,-0.012134390926529435,0.03356724469248151,0.03846221660805703,0.012153138360277031,-0.011756680559967035,0.021936808008229502,0.0412340613223833,0.014936937001191837,-0.00894998224270221,0.019977900444848318,0.05132230146634651,0.03228474850860372,0.001269888042123386,0.008682649244613492,0.05212600076817381,0.042799670108837416,-0.007293145167409208,0.009854091554648139,0.04384274721051042,0.04187405063903141,-0.012849656141829468,-0.007521443870135313,0.04346212964534292,0.03930202339018163,0.008803775653539608,0.02637441591205845,0.08721799835924923,0.12173604700942812,0.08913071570119309,0.10220923446903209,0.16097421286295013,0.1814246404701489,0.1491612779662599,0.1505877096036694,0.19530393139031146,0.21610634395750905,0.17219134850501233,0.12595808522699822,0.14460501101327988,0.15132462339187686,0.11011020691097444,0.08575802019559786,0.107062438926896,0.1260145675578541,0.09700506405545212,0.04402653227332662,0.04627313404215113,0.06533445857665442,0.04119906429018976,-0.004541796985740941,-0.014295747022115326,0.03352869148796067,0.023719290854549158,-0.03173163646770381,-0.010427810615891753,0.03722366729271559,0.03201562086858326,0.0003445959561761964,0.0022082218885072927,0.03760190562087315,0.04171864476034539,-0.004647063397932887,-0.01269693297351673,0.05116572038270399,0.12693532300708332,0.20020773310497283,0.35018163842649797,0.5816519720712451,0.7818075637473247,0.900236644383913,0.884123447046178,0.7358497466184226,0.4553928085415259,0.13392959440283242,-0.08936343465056655,-0.1425129742528567,-0.1119430930404361,-0.06966378796001171,-0.0348724671882838,0.0404425662912086,0.09389223637459435,0.06068717591898152,0.024843055544042408,0.05117453182405405,0.07009116285140625,0.057603938543429434,0.0017239424925867967,0.027267033364447937,0.05744159980495546,0.03945678238677961,-0.019476344870672162,0.01025762490375817,0.04946822095550846,0.04056572067759726,-0.004437269918567551,-0.001525682864497878,0.030112151822790194,0.02568636136855303,-0.007590412777028443,-0.01210379224560139,0.03375999002755898,0.05321220909367315,0.01266557007542145,-0.00626322430846718,0.05404157707099104,0.0,0.0,0.0,0.0,0.0,0.0,0.0,0.0,0.0,0.0,0.0,0.0,0.0,0.0,0.0,0.0,0.0,0.0,0.0,0.0,0.0,0.0,0.0,0.0,0.0,0.0,0.0,0.0,0.0,0.0,0.0,0.0,0.0,0.0,0.0,0.0,0.0,0.0,0.0,0.0,0.0,0.0,0.0,0.0,0.0,0.0,0.0,0.0,0.0,0.0,0.0,0.0,0.0,0.0,0.0,0.0,0.0,0.0,0.0,0.0,0.0,0.0,0.0,0.0,0.0,0.0,0.0,0.0,0.0,0.0,0.0,0.0,N
0.12693532300708332,0.20020773310497283,0.35018163842649797,0.5816519720712451,0.7818075637473247,0.900236644383913,0.884123447046178,0.7358497466184226,0.4553928085415259,0.13392959440283242,-0.08936343465056655,-0.1425129742528567,-0.1119430930404361,-0.06966378796001171,-0.0348724671882838,0.0404425662912086,0.09389223637459435,0.06068717591898152,0.024843055544042408,0.05117453182405405,0.07009116285140625,0.057603938543429434,0.0017239424925867967,0.027267033364447937,0.05744159980495546,0.03945678238677961,-0.019476344870672162,0.01025762490375817,0.04946822095550846,0.04056572067759726,-0.004437269918567551,-0.001525682864497878,0.030112151822790194,0.02568636136855303,-0.007590412777028443,-0.01210379224560139,0.03375999002755898,0.05321220909367315,0.01266557007542145,-0.00626322430846718,0.05404157707099104,0.06878956955869056,0.025994253122544907,0.021672780961145263,0.07023915621137566,0.09970407590339476,0.07647930709061145,0.05097922722268608,0.10721907491939592,0.13960681663541494,0.13135316929905239,0.10406957302356566,0.15376956476823883,0.19885958800647094,0.18654638327811066,0.17443978282978168,0.20094797556667549,0.25887659049746964,0.26662749827909105,0.23860482823309223,0.2396132418935132,0.29125460889884236,0.2975252483380753,0.256023487248552,0.24594918513181216,0.28409861189103336,0.2720625440263738,0.19783353528775235,0.1766074869004093,0.1891743366552987,0.18992216221785604,0.12123765125088624,0.0815123155086978,0.09473430694546978,0.11288870516811983,0.04235842841443128,0.01513418014047054,0.014400944786415576,0.04254434173105918,0.010746542953270875,-0.023405073892231745,7.690394274368254e-05,0.04037838198845201,-0.0033169552641079967,-0.035018341468312064,-0.02833727112628004,0.028717555045171133,0.008934976450992954,-0.02048911617029237,-0.013959676190749903,0.016518157655044514,0.022939240408911293,-0.02110085604241233,-0.010001789067970977,0.03223399193028407,0.026402944718005535,-0.015495258713914184,-0.011858502429812076,0.02291324850797449,0.033619645549618264,-0.00853879733286649,-0.0075571153038415766,0.03416682578431016,0.047033390871855034,0.009444550588719517,0.0030058599240222056,0.04212033951082395,0.0595879748624442,0.019409695630967783,0.0007903971856990744,0.04453345662843297,0.06663762814712662,0.026303042133864227,-0.006866418202695763,0.01993237704756819,0.061099568230739254,0.03263377481198385,-0.005461359670005373,0.014017911633158516,0.04787176839431614,0.03129952076104475,-0.01169647390891049,0.017288738856465015,0.039054651556187314,0.01760226911698842,-0.006264756369594874,0.008257139176628622,0.05877051611629508,0.0276736298672507,-0.001028096605324397,0.020669288902758487,0.049566460869666325,0.04486407925331096,-0.010236555558805606,-0.0029295708853469085,0.04998708181357081,0.035712176339487214,-0.00975025621772085,-0.00719476445764791,0.033781742725442224,0.04358081928517277,-0.006594639688325928,-0.00873689391622095,0.03955851501875493,0.0398931448388338,0.0018723526521981727,-0.004896483243957309,0.03879214073582025,0.08014152855720807,0.06155461257280078,0.06223898752034907,0.11340016384075169,0.15744005421095997,0.14396027078567414,0.12096528039309129,0.15565954066957,0.1904422854632152,0.17251214797680733,0.13547000694451994,0.16571783271595467,0.18645087810979535,0.13766418913888842,0.08655658734973078,0.10272629479406309,0.13096648177883735,0.0992691831962054,0.053230131589193264,0.08164616202632123,0.11010780324456851,0.06180508692391471,0.006332912602880004,0.018086048446928914,0.05385487847367939,0.03202827505147574,-0.016200983894825677,-0.01643868171033355,0.03130818374144018,0.031030623224167903,-0.00047633420849225235,-0.010416482263156637,0.042005986474361164,0.0439821841079373,0.00270745402098848,-0.012220770833063308,0.032793596569091976,0.03454274113119441,-0.002177319032473144,0.037833347483381394,0.1809715923603484,0.34082990328237633,0.4790016395992409,0.6386814766016427,0.8390608063101899,0.9673229418976871,0.8218437146638974,0.5370065549603992,0.2711916721820913,0.06997241586019343,-0.09788206287049808,-0.16999949851587767,-0.1344001921358455,-0.048690870797436864,0.017534062319618345,0.016285629104021482,0.02437938273601397,0.06342875196533419,0.06144357942341798,0.016035966557435614,0.023221349470427796,0.06381082042850861,0.051412868457739506,0.01243983836098428,0.018905505574364007,0.049220119113419156,0.050592678725699336,0.015833625755758085,-0.007044808412887123,0.04437006139228921,0.06448537176734956,0.014910524591354281,-0.015540692895453947,0.0283441884278921,0.050573517998248864,0.01755781301245654,-0.015489375631224813,0.021045948133536555,0.047973744640011154,0.00770466842743385,0.0,0.0,0.0,0.0,0.0,0.0,0.0,0.0,0.0,0.0,0.0,0.0,0.0,0.0,0.0,0.0,0.0,0.0,0.0,0.0,0.0,0.0,0.0,0.0,0.0,0.0,0.0,0.0,0.0,0.0,0.0,0.0,0.0,0.0,0.0,0.0,0.0,0.0,0.0,0.0,0.0,0.0,0.0,0.0,0.0,0.0,0.0,0.0,0.0,0.0,0.0,0.0,0.0,0.0,0.0,0.0,0.0,0.0,0.0,0.0,0.0,0.0,0.0,0.0,0.0,0.0,0.0,0.0,0.0,0.0,0.0,0.0,N
0.037833347483381394,0.1809715923603484,0.34082990328237633,0.4790016395992409,0.6386814766016427,0.8390608063101899,0.9673229418976871,0.8218437146638974,0.5370065549603992,0.2711916721820913,0.06997241586019343,-0.09788206287049808,-0.16999949851587767,-0.1344001921358455,-0.048690870797436864,0.017534062319618345,0.016285629104021482,0.02437938273601397,0.06342875196533419,0.06144357942341798,0.016035966557435614,0.023221349470427796,0.06381082042850861,0.051412868457739506,0.01243983836098428,0.018905505574364007,0.049220119113419156,0.050592678725699336,0.015833625755758085,-0.007044808412887123,0.04437006139228921,0.06448537176734956,0.014910524591354281,-0.015540692895453947,0.0283441884278921,0.050573517998248864,0.01755781301245654,-0.015489375631224813,0.021045948133536555,0.047973744640011154,0.00770466842743385,-0.01814571391469511,0.030437326244077093,0.06466473415327884,0.03894890174721751,0.015705894815055202,0.057351584401445325,0.11589767701685193,0.10015399354240678,0.07973572672555032,0.11945739089137618,0.16652874920306102,0.1681589675368269,0.15315939921559157,0.17434144502932952,0.23651396344723,0.23408085522654204,0.19824990164749656,0.2178298454145953,0.27602452963049556,0.2744336881581859,0.24426047135223738,0.2503079009654328,0.2853751126625142,0.29425821404492986,0.22895215231713287,0.20705653239957908,0.2573665278829525,0.2502704145467704,0.18095980029976266,0.13582841709378551,0.16046758203647302,0.1564626035220062,0.09740065239233961,0.05287167022398853,0.08526484511163784,0.07936252765360143,0.025550550476303675,-0.0041826305160277254,0.0069492698257249295,0.03493142395535762,-0.009053428726798146,-0.024215706208563587,0.00863201350752761,0.05587749873486356,0.03110652045059676,-0.03689116609852004,0.005478657763515376,0.019002878578370904,0.0060735962396034895,-0.040517539678380586,-0.015174735138251877,0.012495168751758236,-0.010312605733417213,-0.04759961222567914,-0.0057642928308366875,0.04319330330138989,0.03927411876004668,0.016082344389051983,0.033622951749814355,0.07029781190157876,0.06130702891742116,0.00905284251466273,0.002340383618300558,0.036371273667730214,0.04154472409331382,0.010662073949970931,-0.003473324776262801,0.03994138245933101,0.03530396176976757,-0.0005834903031877025,0.011483255743347442,0.054704931796256,0.06188034697616347,0.02821034635996236,0.0016974197989783342,0.027943827266615796,0.046947911896844094,0.029909031844959112,0.0008282647028653182,0.03890858151966545,0.06254699784844517,0.016541311787466328,-0.03190646116433609,0.003606322394929569,0.05587965210484044,0.050513233094793115,0.018710399448259737,0.03247574272776778,0.048609497286753345,0.011911290968991638,-0.03681593838165028,-0.006367447127781622,0.050459676310767226,0.02566690541928561,-0.01833823195586725,0.009652729611414217,0.04724431280314617,0.027240814385317766,-0.00954970791912034,0.0016815556706050881,0.0513415685456466,0.045834176772747155,-0.0004330331106673528,0.01815067165714449,0.0655908242308916,0.06269126814051443,0.02625907200941055,0.033103211659373175,0.10243039978828854,0.09744140987566971,0.07094352051799807,0.09494423371422117,0.1598476766552424,0.17685457054654444,0.13396767979328936,0.12719288170631207,0.16133200836284906,0.1787839463948025,0.12914704225260124,0.12282469982163567,0.17901630185688566,0.1921159980279801,0.15012050714442735,0.10102780809048206,0.13123655036689455,0.16153874932830198,0.129526385929916,0.085594808264106,0.09213916092225898,0.07474909742892151,0.03101647539851924,-0.0006657112547885357,0.037296086910296025,0.06809050831103045,0.03170662666756383,-0.004662116964455122,0.01657720463273116,0.03541360909470844,0.008636652954365536,-0.03736170836396004,-0.0017868090073224006,0.04095308192768873,0.035650575700854864,-0.005699434060147227,0.010500788109922107,0.014643478941655278,0.006723398621198287,-0.008464588230318704,0.1274800342673667,0.3113489040757478,0.45673364353947254,0.6116292925252784,0.7736267418817063,0.949914179615592,0.9196674871120639,0.6708655240638346,0.3474883255284963,0.13671417110743053,-0.04069025674663802,-0.160755139625694,-0.18990643824257297,-0.09695493039803552,-0.016299481788281868,0.006473539177885652,0.026583043242391656,0.0800471981699489,0.0876797751529598,0.03989672110733017,0.003916386988152846,0.04455683544072542,0.08263077995704327,0.05095115537587156,0.031135990605821985,0.04240075031880349,0.07035949994011939,0.019023072800879823,0.003609767139367582,0.05773476598805977,0.08540843771636711,0.04584290502222781,-0.008146672217219602,0.000255524922532756,0.056662713904654154,0.05068455786711087,0.018335855031856543,0.031632482590897314,0.0809872059665226,0.0,0.0,0.0,0.0,0.0,0.0,0.0,0.0,0.0,0.0,0.0,0.0,0.0,0.0,0.0,0.0,0.0,0.0,0.0,0.0,0.0,0.0,0.0,0.0,0.0,0.0,0.0,0.0,0.0,0.0,0.0,0.0,0.0,0.0,0.0,0.0,0.0,0.0,0.0,0.0,0.0,0.0,0.0,0.0,0.0,0.0,0.0,0.0,0.0,0.0,0.0,0.0,0.0,0.0,0.0,0.0,0.0,0.0,0.0,0.0,0.0,0.0,0.0,0.0,0.0,0.0,0.0,0.0,0.0,0.0,0.0,0.0,N
-0.008464588230318704,0.1274800342673667,0.3113489040757478,0.45673364353947254,0.6116292925252784,0.7736267418817063,0.949914179615592,0.9196674871120639,0.6708655240638346,0.3474883255284963,0.13671417110743053,-0.04069025674663802,-0.160755139625694,-0.18990643824257297,-0.09695493039803552,-0.016299481788281868,0.006473539177885652,0.026583043242391656,0.0800471981699489,0.0876797751529598,0.03989672110733017,0.003916386988152846,0.04455683544072542,0.08263077995704327,0.05095115537587156,0.031135990605821985,0.04240075031880349,0.07035949994011939,0.019023072800879823,0.003609767139367582,0.05773476598805977,0.08540843771636711,0.04584290502222781,-0.008146672217219602,0.000255524922532756,0.056662713904654154,0.05068455786711087,0.018335855031856543,0.031632482590897314,0.0809872059665226,0.06320916819721997,0.0071119928258672836,0.020711918613753447,0.07041990801702526,0.07224495458225783,0.05980005223976946,0.07149801134748453,0.13615098795830824,0.13376527341134267,0.09795216316687533,0.0935234385992897,0.15888941423406935,0.1788542521033795,0.17262629405892374,0.17621360946447148,0.23762384868326902,0.25125809613439,0.21712015647000082,0.20721524283747098,0.23834543978102982,0.281710108071093,0.26530581787946683,0.24193234978926917,0.27398851315928624,0.29906728872470345,0.2595604649305193,0.20826242089000388,0.22436721500218637,0.2502628012611926,0.21153539004174715,0.14897420406166212,0.13456856310226228,0.15630393315722116,0.12056208728695507,0.05132836951549792,0.04699027466832041,0.07873033314100437,0.06252879737540076,-0.011231720226432004,0.0038368537958922986,0.018914954949614572,0.0003850425600642272,-0.03496865327222544,-0.029560394326713237,0.014196658984466466,0.02908975617952493,-0.02809303594472694,-0.039757844685565466,0.010888140798190536,0.030237422338252506,-0.005714976714877897,-0.032170897628800876,0.022868627730239646,0.03699842880992856,-0.01138304858523083,-0.021473013507216906,0.013928942160218644,0.051623401119628924,0.005209277557445911,-0.014907488709368427,0.01047564069456062,0.05256084383224607,0.020147936907571534,-0.02195775297748396,0.024650244106026543,0.05917311149985778,0.026413596992143767,0.005579126772070491,0.025475129610860306,0.052504696903175614,0.026669815579946864,-0.004023792772854499,0.01802981538642281,0.06883394576930205,0.06438959328349303,0.02150113936693381,0.03377548594765869,0.06041445318139543,0.024618359953600268,0.003192907953588728,0.020141721602708336,0.07306743226968301,0.06836919521942905,0.006049264601090263,0.0037139052011177357,0.04936455494540873,0.05179970192608246,0.0014206075029248352,-0.000967639958072835,0.042236221279896645,0.032629991831858184,-0.017784652863554712,-0.005802825122468366,0.03737707801440327,0.04215578955570153,-0.010664279025343658,-0.00347586394165127,0.034923893302810316,0.044537026670684245,-0.005833538580579392,0.0014204073450822723,0.04470247651090889,0.04961431970193525,0.011359940150307852,0.0043460242808267425,0.03817680341147583,0.04565364469205496,0.005179412085946702,-0.006439616837922277,0.046801299547093576,0.05450209623368248,0.021466737865128777,0.0029007819242142406,0.07321038916954688,0.10039406680353165,0.07245439728610059,0.09019763593775615,0.15122585628086754,0.17393774958537223,0.14873391577760983,0.15481737166418197,0.18498719263929073,0.20084052526981702,0.16157350236048879,0.11998471673479671,0.13127204217490884,0.1642295547965891,0.1348487201792223,0.07672453523770269,0.10265425390757556,0.13822781805893228,0.10903465629059472,0.0534676808931989,0.06272121316026744,0.06718335569222486,0.04524367400721898,-0.019908424641001985,-0.013078873776639712,0.03452286597888815,0.0316863558424364,-0.019195551362081373,-0.005326075237815744,0.04448814744428406,0.04863903171424849,-0.016879598010082323,0.003932501458182392,0.04386891603212486,0.059724100224214566,0.005892200376151417,-0.021627695045688046,0.02996187409266078,0.09105589242052937,0.14725123776023627,0.29694850748554236,0.5233432990569256,0.735226971580453,0.8701893333599703,0.9186184707406323,0.8180961649447597,0.5590015582784867,0.23491352209327,-0.017390268395815346,-0.13073588850079873,-0.11715069272246427,-0.10625396813547165,-0.09564898705825163,0.017874803017695003,0.09032789215712404,0.06412387879359657,0.006480528683064556,0.03981732996444333,0.0801460993217115,0.055478898483144946,0.013831829755995855,0.04162213927205536,0.0716613191278403,0.036760653309171144,0.0065361305880717565,0.014602223540457438,0.060972128494938105,0.025654527459532818,-0.00973474101846724,0.014819233899886639,0.04652811302303545,0.05420428249895581,0.009059984661248402,0.01911225391490056,0.055573016272177055,0.0,0.0,0.0,0.0,0.0,0.0,0.0,0.0,0.0,0.0,0.0,0.0,0.0,0.0,0.0,0.0,0.0,0.0,0.0,0.0,0.0,0.0,0.0,0.0,0.0,0.0,0.0,0.0,0.0,0.0,0.0,0.0,0.0,0.0,0.0,0.0,0.0,0.0,0.0,0.0,0.0,0.0,0.0,0.0,0.0,0.0,0.0,0.0,0.0,0.0,0.0,0.0,0.0,0.0,0.0,0.0,0.0,0.0,0.0,0.0,0.0,0.0,0.0,0.0,0.0,0.0,0.0,0.0,0.0,0.0,0.0,0.0,N
0.14725123776023627,0.29694850748554236,0.5233432990569256,0.735226971580453,0.8701893333599703,0.9186184707406323,0.8180961649447597,0.5590015582784867,0.23491352209327,-0.017390268395815346,-0.13073588850079873,-0.11715069272246427,-0.10625396813547165,-0.09564898705825163,0.017874803017695003,0.09032789215712404,0.06412387879359657,0.006480528683064556,0.03981732996444333,0.0801460993217115,0.055478898483144946,0.013831829755995855,0.04162213927205536,0.0716613191278403,0.036760653309171144,0.0065361305880717565,0.014602223540457438,0.060972128494938105,0.025654527459532818,-0.00973474101846724,0.014819233899886639,0.04652811302303545,0.05420428249895581,0.009059984661248402,0.01911225391490056,0.055573016272177055,0.04405241448647346,-0.008236666463454532,0.013922435317602,0.05534085754871439,0.06562984598915642,0.023201435608187507,0.02407168570912044,0.06825298654051161,0.0717544990758578,0.03938832959273302,0.057569245686657375,0.11670826496392481,0.13761354122510644,0.10589504303656393,0.1127659592492889,0.1606356626700478,0.2015110969258323,0.1753979583343732,0.1711064428816631,0.219843737735356,0.25921271030950255,0.2292152176256541,0.21385715021317786,0.25154156482775325,0.3014675176750564,0.27963120838152905,0.23883239232882364,0.26067049265682424,0.2755381422935174,0.2354274702501315,0.18113251441619335,0.1966477344152887,0.20276064402754818,0.15625910618727204,0.10273325659455054,0.08537236082775335,0.09936339427517812,0.06309006302525576,0.010139840006539651,0.002900948611541578,0.03895916322645798,0.024696868337542782,-0.02549974918624067,-0.013241517043639716,0.03265845175472993,0.02578617031382453,-0.02426895850608016,-0.016714285380360613,0.026840614431002427,0.02478553287040308,-0.03008711871096356,-0.020180433927714878,0.03290019996282091,0.025948292754096998,-0.019438191299581298,-0.03125955233539398,0.009683801961484554,0.04099141347291015,-0.0021373131644605095,-0.009296693959207753,0.03391560507726039,0.053099514550452226,0.024256660837829104,-0.009409108047415465,0.04330771114839697,0.0648057876657267,0.03828730490643534,0.01175652055056171,0.05241821145113561,0.07627149962864832,0.054517288014891176,0.011158052360325644,0.056599193571793306,0.09483841771358056,0.06587448024684786,0.034510281402518786,0.0,0.0,0.0,0.0,0.0,0.0,0.0,0.0,0.0,0.0,0.0,0.0,0.0,0.0,0.0,0.0,0.0,0.0,0.0,0.0,0.0,0.0,0.0,0.0,0.0,0.0,0.0,0.0,0.0,0.0,0.0,0.0,0.0,0.0,0.0,0.0,0.0,0.0,0.0,0.0,0.0,0.0,0.0,0.0,0.0,0.0,0.0,0.0,0.0,0.0,0.0,0.0,0.0,0.0,0.0,0.0,0.0,0.0,0.0,0.0,0.0,0.0,0.0,0.0,0.0,0.0,0.0,0.0,0.0,0.0,0.0,0.0,0.0,0.0,0.0,0.0,0.0,0.0,0.0,0.0,0.0,0.0,0.0,0.0,0.0,0.0,0.0,0.0,0.0,0.0,0.0,0.0,0.0,0.0,0.0,0.0,0.0,0.0,0.0,0.0,0.0,0.0,0.0,0.0,0.0,0.0,0.0,0.0,0.0,0.0,0.0,0.0,0.0,0.0,0.0,0.0,0.0,0.0,0.0,0.0,0.0,0.0,0.0,0.0,0.0,0.0,0.0,0.0,0.0,0.0,0.0,0.0,0.0,0.0,0.0,0.0,0.0,0.0,0.0,0.0,0.0,0.0,0.0,0.0,0.0,0.0,0.0,0.0,0.0,0.0,0.0,0.0,0.0,0.0,0.0,0.0,0.0,0.0,0.0,0.0,0.0,0.0,0.0,0.0,0.0,0.0,0.0,0.0,0.0,0.0,0.0,0.0,0.0,0.0,0.0,0.0,0.0,0.0,0.0,0.0,0.0,0.0,0.0,0.0,0.0,0.0,0.0,0.0,N
-0.03671686481559866,0.026221052750672907,0.08906913628131474,0.13714993086551544,0.2634040071364764,0.5118537632097016,0.7186209614164776,0.8665772651234032,0.9165778755466507,0.8612700274152947,0.6027990220481525,0.26832629354690174,-0.010097989305086614,-0.119991994063126,-0.10540888663128295,-0.10333365853346925,-0.0990970784684339,0.0002478803915031542,0.08709596334750123,0.061179537476523965,0.013008732771085102,0.05021449369482585,0.0872036269339544,0.05061205979422106,0.0015983721753590199,0.025779634300823803,0.062020448098081556,0.03451004056601398,-0.0004854571250223498,0.01819166232193046,0.06364767613978023,0.042950163466265276,-0.01209402354074779,-0.008531389014156378,0.04875773830929302,0.04238362060831184,-0.008074760776560316,-0.00721653193242045,0.040079100281420414,0.04332801273211021,-0.002348516264629813,-0.008886200173860747,0.03840324049633738,0.05881983022921765,0.01079739090626493,0.02153477965956069,0.06658659065329903,0.0946026926553521,0.05178674716223669,0.04087790031474318,0.1034681808598726,0.13928870152780035,0.11410866484465525,0.1159902938131653,0.157173136402268,0.1911951765077804,0.18626885819025032,0.15952315630238578,0.22102933921188492,0.27051268456808036,0.2517231029648471,0.22091937199913572,0.2465883823443925,0.29448919786431393,0.28390803705104395,0.23930224250202892,0.2609498417649966,0.29014583388032283,0.2584004157855663,0.19750318156360358,0.1930516687400798,0.20345696172782082,0.17489980798929797,0.12204441917743393,0.11091749355255626,0.13416888900083243,0.10862580433049573,0.04650386670301794,0.040732013318119785,0.054607608920874955,0.05142781459629053,-0.007956355947073075,-0.025725183189208727,0.012782080738033035,0.03417715141272766,-0.020253073467040326,-0.030673040385587286,0.002906885633044914,0.02911589239720631,-0.015646218511192092,-0.038443833431964315,-0.0025949620974151204,0.03319693872664345,-0.009338335911418444,-0.03236820458297031,0.0007939428224765796,0.05346156124278219,0.027801243186038837,-0.015038854151328272,0.02766915117372638,0.06298462272322163,0.034654900789452346,-0.0035086440303037443,0.031655677647552595,0.06188218219326243,0.04803901711311265,-8.849272947810821e-05,0.017782087854702398,0.057626616495949454,0.05096211853009769,-0.004656061703243047,-0.0016084894469593116,0.05276861847702366,0.04841247584038836,0.014674869860646667,-0.011755031291862216,0.054729353946894335,0.047810667013501326,-0.003158777230054799,-0.00034242149986287926,0.04647812068213107,0.06392853552556792,0.01532239192551717,0.003387776423292703,0.04035534842736947,0.060187771578471806,0.023752125463005487,-0.00046634038178749673,0.05601750482070748,0.051343643046857464,0.00752535685844868,-0.02162796150172013,0.007909545228756925,0.05211431278615137,0.015599376252563761,-0.01358191448130892,0.00859797438711058,0.0527916367902111,0.02605889087205403,-0.03246349490776788,-0.00047915487844347196,0.05353316226748776,0.04397363298838487,0.002644134320098211,0.00781793585995378,0.05216269214053096,0.04518629109905711,-0.0033227922662137665,-0.0004165813828103292,0.05390999112772267,0.07650230471339925,0.030677081701918286,0.03873249390559429,0.10801046584643259,0.15046362918628556,0.11962393928751265,0.11577505949845553,0.16582382489569525,0.1915038951292235,0.1536820901443415,0.14774736097899244,0.18103641407819174,0.1972924843516943,0.1329202785119782,0.09308884615884733,0.1316032111842678,0.14573197437823798,0.10611930866676447,0.06167663714485032,0.11023233907899792,0.13437754357313572,0.08274143570635457,0.02869211992853643,0.040705538305580435,0.06496377252267893,0.030527580368517715,-0.016140636943777386,-0.006565761793363179,0.034785631941831936,0.024746610009598737,-0.012231464880737744,-0.015009238676870396,0.04820331260184583,0.04043230946398291,-0.006531039248702722,0.00025113160405157973,0.055882334075151585,0.04540173373374872,-0.009182820312156314,-0.014933350149569504,0.09173850244160728,0.22767005404560797,0.3341569059381757,0.4943542326721073,0.7278228052172143,0.917151959821625,0.9302521475890285,0.7671064481370304,0.5157447660049754,0.25930142152316293,0.005086051807596116,-0.16132502370396123,-0.15924725968080888,-0.0743002399263401,-0.038560032183919284,-0.020222065001174204,0.04431826267655268,0.07191501269596588,0.04546063244931403,0.0016564451986293166,0.02367515933242243,0.047937014652849594,0.062225493692715274,0.012743975546914192,0.00956910885581577,0.05271313331181538,0.05169089024088501,0.004068433585806897,0.0003547836941933496,0.035669841373805175,0.04643252153683338,0.0008579271454897904,-0.010545354080514564,0.0171256594448207,0.039857464348090704,0.0038529742739848213,-0.019945505161620206,0.014945569008259491,0.0522849123607084,0.0,0.0,0.0,0.0,0.0,0.0,0.0,0.0,0.0,0.0,0.0,0.0,0.0,0.0,0.0,0.0,0.0,0.0,0.0,0.0,0.0,0.0,0.0,0.0,0.0,0.0,0.0,0.0,0.0,0.0,0.0,0.0,0.0,0.0,0.0,0.0,0.0,0.0,0.0,0.0,0.0,0.0,0.0,0.0,0.0,0.0,0.0,0.0,0.0,0.0,0.0,0.0,0.0,0.0,0.0,0.0,0.0,0.0,0.0,0.0,0.0,0.0,0.0,0.0,0.0,0.0,0.0,0.0,0.0,0.0,0.0,N
0.3341569059381757,0.4943542326721073,0.7278228052172143,0.917151959821625,0.9302521475890285,0.7671064481370304,0.5157447660049754,0.25930142152316293,0.005086051807596116,-0.16132502370396123,-0.15924725968080888,-0.0743002399263401,-0.038560032183919284,-0.020222065001174204,0.04431826267655268,0.07191501269596588,0.04546063244931403,0.0016564451986293166,0.02367515933242243,0.047937014652849594,0.062225493692715274,0.012743975546914192,0.00956910885581577,0.05271313331181538,0.05169089024088501,0.004068433585806897,0.0003547836941933496,0.035669841373805175,0.04643252153683338,0.0008579271454897904,-0.010545354080514564,0.0171256594448207,0.039857464348090704,0.0038529742739848213,-0.019945505161620206,0.014945569008259491,0.0522849123607084,0.01871004537615097,-0.0026058152318133012,0.03482233862415606,0.0625236686789461,0.036485905939771926,0.02520668836200369,0.058049482057047644,0.10323076864281464,0.1020621217673817,0.06678495473864464,0.08546227504435669,0.13120066234259686,0.14775577691924316,0.11312486379449191,0.1471651408369788,0.20585967961807708,0.19871920345381544,0.18200586666595261,0.18507621225780665,0.2568528679105793,0.2750463322362611,0.2469971595178167,0.2509748846202112,0.29676332594735244,0.3158770681998566,0.2642879556457315,0.2422728391333699,0.27917689225772463,0.2747127373142391,0.22887244858838343,0.18078071621637515,0.1817904576641996,0.20009395898858828,0.1451816131723332,0.09041639340137456,0.09203942658477172,0.12313166004394434,0.06627623038229985,-0.00027439438288329025,0.016407168414934215,0.05515824419042324,0.03280320727679339,-0.02621537289427262,-0.01674123773985794,0.03186127317126161,0.021744929212635686,-0.03487331432045572,-0.040171009013303824,0.00828850731597723,0.034677734266261064,-0.019709749637300256,-0.027694089539663465,0.005829227566714816,0.02704985885984142,-0.0007214472595996257,-0.018784978442535197,0.014437925828782542,0.03290923975535928,-5.864259060266631e-05,-0.01598089513180791,0.024276821719259555,0.05223189484545906,0.023860333129562802,-0.011918890845850075,0.03539293995297014,0.06551747645903679,0.022201930731901822,-0.006500226790538908,0.03322212258232661,0.06310350078893996,0.04156637873316174,-0.006928481061793596,0.020347454924263188,0.07937091811309387,0.06007993105232787,0.004056328415936509,0.006690879923082978,0.06553936147520274,0.05830967293762685,0.011907721121409183,-0.0002892662811201769,0.05351601513092662,0.06326018561141025,0.002039325339788336,-0.020081838854889976,0.02135580781572303,0.04808656570177619,-0.001034251256805582,-0.013494491526374164,0.027828995482904656,0.04222566880147459,0.007685832436453301,-0.026870064919723602,0.021720627733847274,0.05073666433567416,0.0137118000043756,-0.0037432495510358885,0.03506467605140917,0.07143999360470422,0.03445757288645185,-5.561322158517843e-05,0.029051989844078637,0.0655299736868822,0.03600666428150016,-0.005704474450350008,0.013776836086944846,0.057767071185974496,0.04066515048710543,-0.0057283269613489585,-0.0006954786687851146,0.0435388971871807,0.06583258173136301,0.04173125347012249,0.049506983959801056,0.11606827499402834,0.14113791523460287,0.09536846881561037,0.12306887220811215,0.16798588929184996,0.19343266330942172,0.1627214975739786,0.17124094250907082,0.20431438970266427,0.2056845107851759,0.15578107089110607,0.11574665989967167,0.13204784275432221,0.1459780091139157,0.10372163707490055,0.07864794044059069,0.10988337366848479,0.11915202973307665,0.062419692929621504,0.020391143051735006,0.03463685838013382,0.04889224170373372,0.024013642995973573,-0.03267121980127564,0.003567219428944673,0.03733294011328175,0.027039139287132703,-0.019983685910763115,0.01610504602913548,0.05703199365595788,0.02696960933200551,-0.01294097678986888,0.013116476625553455,0.06355747206298394,0.033204713626295054,-0.016799957356655678,0.0040356264792468155,0.13973361606542584,0.24842969243660964,0.35457829297079174,0.5437794713575568,0.7866754144901239,0.9169366274138359,0.8611729066562436,0.6633914323050643,0.41406669101312193,0.14741474269283014,-0.09256692572324426,-0.16404659084016227,-0.11596193380040822,-0.04126078941157485,-0.04021759911275049,0.014363428903370001,0.08336245210466178,0.07385032069700855,0.04209580271656371,0.0150168048870516,0.05621913852921479,0.0727725822220345,0.030447617570450596,0.000186958867783762,0.03581204780045183,0.06640473386156896,0.03816780785282534,-0.004861297911672628,0.025380396134380586,0.05308275070764889,0.00977312263802181,-0.023823062015834333,0.00856083055511224,0.04334585476908012,0.021844770916939222,0.010109713818794636,0.010599976272441339,0.04534179523432218,0.0385263811249131,-0.007387303515417648,0.017677982111486624,0.0,0.0,0.0,0.0,0.0,0.0,0.0,0.0,0.0,0.0,0.0,0.0,0.0,0.0,0.0,0.0,0.0,0.0,0.0,0.0,0.0,0.0,0.0,0.0,0.0,0.0,0.0,0.0,0.0,0.0,0.0,0.0,0.0,0.0,0.0,0.0,0.0,0.0,0.0,0.0,0.0,0.0,0.0,0.0,0.0,0.0,0.0,0.0,0.0,0.0,0.0,0.0,0.0,0.0,0.0,0.0,0.0,0.0,0.0,0.0,0.0,0.0,0.0,0.0,0.0,0.0,0.0,0.0,0.0,0.0,0.0,N
0.35457829297079174,0.5437794713575568,0.7866754144901239,0.9169366274138359,0.8611729066562436,0.6633914323050643,0.41406669101312193,0.14741474269283014,-0.09256692572324426,-0.16404659084016227,-0.11596193380040822,-0.04126078941157485,-0.04021759911275049,0.014363428903370001,0.08336245210466178,0.07385032069700855,0.04209580271656371,0.0150168048870516,0.05621913852921479,0.0727725822220345,0.030447617570450596,0.000186958867783762,0.03581204780045183,0.06640473386156896,0.03816780785282534,-0.004861297911672628,0.025380396134380586,0.05308275070764889,0.00977312263802181,-0.023823062015834333,0.00856083055511224,0.04334585476908012,0.021844770916939222,0.010109713818794636,0.010599976272441339,0.04534179523432218,0.0385263811249131,-0.007387303515417648,0.017677982111486624,0.0697100972782818,0.06556282345327899,0.012586944075182065,0.04042663168868441,0.10017716920040295,0.08912440193894895,0.05619788332802029,0.07478546455332656,0.1400067369822922,0.1320248241501183,0.11688859927688344,0.13374165773612204,0.1850388953823399,0.19985830920969003,0.1733155781547061,0.19836035539846145,0.2627688309928466,0.28583172171271504,0.24553941461041687,0.24706633317660462,0.2977506996687721,0.30709452747666194,0.2726498174189953,0.2384386472714965,0.27049460060642216,0.2758682368066533,0.21297212388851283,0.15761941877044242,0.18806808784866647,0.18690536235014435,0.11987726066706907,0.07502258358492883,0.08901617139646367,0.10314339008381228,0.04645978885624561,0.026569227909440274,0.028781618220021708,0.05797373262569285,0.023633100858382067,-0.020446451252919183,-0.005795970014310992,0.03332871846808572,0.006417228922052305,-0.037626153279300426,-0.022992557126582703,0.028295489338071148,0.006166166182976941,-0.02334953563604222,-0.01623352503961345,0.02995464350468524,0.02226785851647118,-0.01728504735295519,-0.027561363377151996,0.030570394204202135,0.032370746808005925,-0.007485099711890883,-0.01072936855691707,0.03486782101911359,0.033918898162706095,-0.008683034444251949,-0.017114687900701836,0.04286818782985114,0.05631313403672169,0.02566944591158799,0.009641246863707265,0.0547031602630963,0.0703607983230178,0.019928735185779957,0.001244281801817221,0.03632254498742152,0.081140018200618,0.01829678313464284,-0.01034480434673225,0.02212142623144822,0.06678052361008648,0.03069168783171514,-0.0005373882603951709,0.022012719642554964,0.06899350807238107,0.030342510330029944,-0.010779012517322988,0.02145242586973961,0.05366300119429376,0.039383399619709686,-0.006709102545594921,0.015668175933874352,0.06004609335422548,0.04571318893305672,-0.0028697017912083294,0.007242509629169123,0.044255593005089015,0.04947066421247943,0.005768481602139729,0.008539775738046644,0.06267789782088962,0.05322831377077456,-0.00024073526956416405,-0.014568541500505546,0.04204226464097724,0.044854479071616535,-0.008575595583071591,-0.013073410080272366,0.038701425968323926,0.04158032535848621,-0.009324644746658754,-0.016174902872721157,0.038155165128669156,0.0851871081775804,0.04421291272624425,0.039977583717131324,0.08960743413845434,0.13685234693844311,0.11323238533614612,0.11903225763862453,0.17137637848534018,0.18955359381838105,0.16133637417320243,0.15765596982296326,0.19074184023730018,0.21656754682275145,0.1593093308774264,0.12169117756505647,0.1306141710122524,0.1567236771064878,0.11196342454272978,0.07459581340890545,0.09842394059179764,0.13452380778623238,0.09239106081449615,0.02827313318396478,0.052226231891556896,0.0835282241731584,0.03901084179509339,-0.017742140813306533,0.006203347783906893,0.03990948385311608,0.019776035659170906,-0.017516580206010376,-0.0034916796314601434,0.047169358063236196,0.02195051173197256,-0.005778025899584897,0.005557461742443425,0.04616787903795282,0.03777962110426984,-0.019613168951805645,-0.023289814708689627,0.046312496000579746,0.125599060369689,0.19255480778268083,0.34745775654840316,0.5951958630039815,0.7939028858936301,0.9117739532103445,0.8827579826950603,0.714175563371012,0.437801613855541,0.13677084299461714,-0.07154198863622911,-0.11623441674532295,-0.09760838424021899,-0.09638779705166367,-0.06365594837858725,0.03239190505198502,0.09638108823121272,0.04272026154433897,0.020621539957770805,0.049665484901294056,0.06627282719132205,0.026431044024060726,-0.008700122217128079,0.026930687372701656,0.06729844393639113,0.02681098925612739,-0.0015753446747658374,0.026178153314045858,0.05627537051455553,0.030028314651185276,-0.003632817038801343,0.02134314290910084,0.051159864495310924,0.04914203137334837,-0.009156556910579273,0.005907736798913486,0.050322341503566737,0.028711295559991565,-0.01244090265958429,0.01492996541342542,0.07170383463644836,0.055167832418629444,0.0,0.0,0.0,0.0,0.0,0.0,0.0,0.0,0.0,0.0,0.0,0.0,0.0,0.0,0.0,0.0,0.0,0.0,0.0,0.0,0.0,0.0,0.0,0.0,0.0,0.0,0.0,0.0,0.0,0.0,0.0,0.0,0.0,0.0,0.0,0.0,0.0,0.0,0.0,0.0,0.0,0.0,0.0,0.0,0.0,0.0,0.0,0.0,0.0,0.0,0.0,0.0,0.0,0.0,0.0,0.0,0.0,0.0,0.0,0.0,0.0,0.0,0.0,0.0,0.0,0.0,0.0,0.0,0.0,0.0,0.0,N
