0.8741285050543022,0.9411971019041208,0.9375171178615939,0.8750523444816338,0.7763240636903951,0.6677126410024471,0.5718245000132057,0.5037580945788701,0.46752542247903817,0.4573575687384575,0.4612967769505922,0.4653904193918618,0.45979582546138087,0.4401132159139188,0.408052458704509,0.3697231120619153,0.33232202695866725,0.30269191037937954,0.2843475349007428,0.27717559151295007,0.27814944717323853,0.2824961092182698,0.28641495882311024,0.28748665924636596,0.28527586250423437,0.2809623233529107,0.2762787593972403,0.2733221968595131,0.273411646965792,0.2769949804390784,0.28377519953258296,0.292916841500985,0.30370295576493955,0.31547603897070303,0.3277326415311517,0.34006177332266796,0.35204713550325845,0.3634713610169436,0.37433272088507247,0.3850184115257923,0.3963483471127529,0.4094479578168359,0.42541362555143786,0.4449183946065546,0.4678517292356527,0.4931661845825356,0.5190307945240307,0.5432166355429195,0.5637182849589225,0.5793237327013341,0.5899840220523183,0.5964117635228242,0.6014151983158128,0.6070753138841423,0.614922435878644,0.6254665888540679,0.6376378667113464,0.6501315267125508,0.6601182949853922,0.664546627189995,0.6609491556558175,0.6478805331485378,0.6261101151948656,0.5973835045757384,0.5644251993048619,0.5303060867689638,0.4975461614718257,0.4682659733333567,0.4429030905282633,0.42061267047148354,0.39966301788211017,0.3778580508327051,0.35376708678130897,0.32643340447053754,0.29590152777274276,0.26320170700147555,0.2299105386832114,0.1982919322339144,0.17003721915130526,0.1461453992673715,0.12674039612084098,0.11096115547799455,0.09778430750412989,0.08565696566676691,0.07320250629436298,0.05960144272542033,0.04462040098653519,0.02926563834707866,0.014669729690622933,0.0020700666906371496,-0.007537510670000316,-0.013875962170055569,-0.016744288061841986,-0.01697708191341897,-0.015818540835805438,-0.014544660235403755,-0.014350171743651203,-0.015195257888271923,-0.01701105336844681,-0.019345813552845273,-0.02155180980080719,-0.023302657704828877,-0.023710225310484685,-0.02289635240771995,-0.021369342423965307,-0.019782769301233984,-0.018978153214955763,-0.01858765034913887,-0.018547604393453345,-0.018529157938059534,-0.018013728801660783,-0.016786898074365213,-0.013812096311899197,-0.009078821795043957,-0.002985159117065176,0.0037988198399041494,0.010237118090586805,0.016139482326921552,0.02090554094695165,0.024117181367159606,0.025611368481469082,0.025281341842139513,0.023814070088451874,0.02157082557911604,0.01889991116385286,0.016113690863068814,0.013335396685576286,0.011000350281971242,0.00916000320520661,0.0077450627463440105,0.006616013244668548,0.00555283420460834,0.0045511197694336385,0.0035225077953712465,0.0024297846974163334,0.0012900235443699321,0.00012475280307459305,-0.0009576876839150067,-0.0019546964570869014,-0.002935476853411842,-0.004035966155928685,-0.005425791251570773,-0.007276476391931731,-0.009689428169865719,-0.012658914878292996,-0.016048582317098655,-0.019588033944443004,-0.02293436487006865,-0.025690718122902103,-0.027489536692222087,-0.02806119847826863,-0.02727484171992109,-0.025205126195427238,-0.022068396001011528,-0.018206533908614424,-0.014030599239134314,-0.00994443229745735,-0.0063208916082680405,-0.003403397128837667,-0.0013023153522019014,2.6123998389894383e-20,0.0006319148064079481,0.0007571656534361691,0.0005781176849591206,0.00027954692899695,-1.617866349553645e-20,-0.00018316128393362882,-0.0002438723715379714,-0.00020321998084975963,-0.00010585980241961993,2.0223607809976907e-20,6.441665215869746e-05,9.393112126799229e-05,8.578991711913364e-05,4.897989988939628e-05,-2.0464419944712657e-20,-5.1197794953239634e-05,-7.513486648830204e-05,-6.847508732744185e-05,-3.873991508256331e-05,-4.877183427848281e-21,2.945038109578138e-05,4.530274926646126e-05,4.315551469567466e-05,2.5440779030352163e-05,7.729370905310797e-21,-2.3846750178813087e-05,-3.6562846784691947e-05,-3.463961330441622e-05,-2.0270969160868306e-05,-1.4955287909714815e-20,2.019396944818903e-05,3.0041519298785606e-05,2.759750945604033e-05,1.565287863901464e-05,1.6951647047504273e-20,-4.888879354361677e-06,-9.9674222129565e-06,-1.1590967137975014e-05,-7.922869773656472e-06,-1.1849882492442624e-20,2.3217828037659735e-05,3.103672683382314e-05,2.5231223512839404e-05,1.2422253213081764e-05,2.0078540421018758e-20,0.0,0.0,0.0,0.0,0.0,0.0,0.0,0.0,0.0,0.0,0.0,0.0,0.0,0.0,0.0,0.0,0.0,0.0,0.0,0.0,0.0,0.0,0.0,0.0,0.0,0.0,0.0,0.0,0.0,0.0,0.0,0.0,0.0,0.0,0.0,0.0,0.0,0.0,0.0,0.0,0.0,0.0,0.0,0.0,0.0,0.0,0.0,0.0,0.0,0.0,0.0,0.0,0.0,0.0,0.0,0.0,0.0,0.0,0.0,0.0,0.0,0.0,0.0,0.0,0.0,0.0,0.0,0.0,0.0,0.0,0.0,0.0,0.0,0.0,0.0,0.0,0.0,0.0,0.0,0.0,0.0,0.0,0.0,0.0,0.0,0.0,0.0,0.0,0.0,0.0,0.0,0.0,0.0,0.0
0.6609491556558175,0.7130476121019428,0.7133355115210194,0.6712300762586961,0.6037400588297799,0.5303060867689638,0.46746398347079327,0.42492243798158297,0.40404759631145193,0.3989697435319217,0.39966301788211017,0.395792986745571,0.3801480578668184,0.3504655649041276,0.309453291391136,0.26320170700147555,0.21873756427509047,0.18170833515414925,0.15482162899108143,0.13751810467228184,0.12674039612084098,0.11835900385422325,0.10869766165995946,0.09559641950766234,0.07879021900968916,0.05960144272542034,0.040192721533002115,0.022725483856444705,0.008710831261237754,-0.0012781103454667384,-0.00753751067000032,-0.010925754814114251,-0.012503049884228784,-0.01322331558959301,-0.013773941235828148,-0.014544660235403751,-0.015661850184256452,-0.017101661706844122,-0.018716348926141,-0.02028418887662121,-0.02155180980080719,-0.02226763593164541,-0.022326646795334634,-0.021771575979128585,-0.020815573892012915,-0.019782769301233984,-0.019054514604056865,-0.018742750333265088,-0.01873839164706418,-0.018671881288683165,-0.018013728801660783,-0.016738195046725555,-0.013740844958662497,-0.009017550607532095,-0.00295510646782006,0.0037988198399041494,0.010123507432111165,0.01593451477368317,0.020677422477489396,0.023960543036687702,0.025611368481469082,0.02541704179975912,0.024043231220885374,0.021809536274980328,0.019053344624574486,0.016113690863068818,0.013159743955785163,0.01070181161640326,0.008846081382832709,0.007540706660166587,0.006616013244668548,0.005817662782687719,0.005018067726067293,0.004033432857928593,0.002776846258113991,0.0012900235443699315,-0.0006036135445245661,-0.0023418818352172457,-0.003576023572422698,-0.004106656900245484,-0.004035966155928684,-0.004473213666604086,-0.005570210154567788,-0.007775977979512332,-0.011310950709958592,-0.016048582317098655,-0.021908332127234205,-0.027559875789530026,-0.03152468218605163,-0.032176683235635585,-0.028061198478268625,-0.018458653992107638,-0.002874324875106683,0.018307951620900216,0.04394324424993057,0.07221752575423628,0.10064181845801613,0.12689870861062236,0.14873062210185972,0.16431708196146774,0.17249624998674115,0.17277107722999588,0.16577896661466263,0.1529381055006045,0.13631466941149703,0.11829466028687968,0.1010999036553048,0.08660424183447726,0.07580582356571745,0.06866456250528878,0.06409307058701827,0.06016354978252066,0.05459251695992167,0.04526116022774838,0.030878439794600143,0.011545700966752887,-0.01089334981396295,-0.03277544035181458,-0.0489852886242923,-0.05362872058511694,-0.04100166865351248,-0.006694464403149544,0.051387509253776636,0.13225441050400003,0.23155338222017635,0.3418633482996037,0.453571584249821,0.5562165812586103,0.640059663761336,0.6976001823353721,0.7247283652527199,0.7212837741772986,0.690894893094015,0.6401689334555224,0.5773850106079093,0.5109957531972146,0.44825986339193713,0.3942285662959725,0.3513607088468453,0.319655903090541,0.29726314114170926,0.28135782312372504,0.26896304885084654,0.2577049848982792,0.24614649119483137,0.2338007429851664,0.2208349840658284,0.20781390705846442,0.19512137328610574,0.18276988092264324,0.1703383448286235,0.1570078673218513,0.14215600515704188,0.1252058363234595,0.10604496103319687,0.08516917241431175,0.06359615461617919,0.04290912539329716,0.02464780981870926,0.010092718420728558,-3.563319445162786e-20,-0.005578398528756414,-0.007163090378924144,-0.005859758442302514,-0.00303359186996065,-2.0821099679384722e-19,0.002239129266178878,0.003182638801985188,0.002825704051563801,0.00156437141766361,3.4280764945367247e-19,-0.0012610683786103082,-0.0018697069294671418,-0.0017208206668675582,-0.0009823318846175354,-4.425143465508145e-19,0.0006690068732452814,0.0010692456320905348,0.0010521093200665382,0.0006370852837386421,4.814120359402992e-19,-0.000975472358031579,-0.0013696169802213838,-0.001182696753992417,-0.000627820320383147,-7.309225982462084e-19,0.00019227708530349704,0.00031883196838281176,0.00032293884706870884,0.0002000625778852881,2.0596691290775592e-19,-0.0003482670647668411,-0.0004840463043237934,-0.000412779214181436,-0.00021576508618251257,-2.9807049270639153e-19,2.9676694597834564e-05,6.05046931006143e-05,7.036000827885704e-05,4.8093759237778714e-05,7.19316878692667e-20,-0.00014093790047895995,-0.0001884005304287256,-0.00015315970394160042,-7.540611827385335e-05,-1.2188165607180333e-19,0.0,0.0,0.0,0.0,0.0,0.0,0.0,0.0,0.0,0.0,0.0,0.0,0.0,0.0,0.0,0.0,0.0,0.0,0.0,0.0,0.0,0.0,0.0,0.0,0.0,0.0,0.0,0.0,0.0,0.0,0.0,0.0,0.0,0.0,0.0,0.0,0.0,0.0,0.0,0.0,0.0,0.0,0.0,0.0,0.0,0.0,0.0,0.0,0.0,0.0,0.0,0.0,0.0,0.0,0.0,0.0,0.0,0.0,0.0,0.0,0.0,0.0,0.0,0.0,0.0,0.0,0.0,0.0,0.0,0.0,0.0,0.0,0.0,0.0,0.0,0.0,0.0,0.0,0.0,0.0,0.0,0.0,0.0,0.0,0.0,0.0,0.0,0.0,0.0,0.0,0.0,0.0,0.0,0.0
0.7247283652527199,0.776088016403284,0.7664052824572427,0.7056696001164298,0.6129873163912081,0.5109957531972146,0.41938065352046333,0.3517797532822566,0.31251690516751884,0.2975386048135579,0.29726314114170926,0.29994565723494865,0.2969713743859945,0.28394515978114815,0.26144984370883356,0.23380074298516643,0.20637114215776628,0.18465799328495552,0.1716633390276076,0.16759694403356057,0.1703383448286235,0.1762052768702509,0.18230226934899202,0.18666897832938736,0.18882478607609648,0.18951097522906182,0.18983454738538189,0.19130796326766067,0.19484733242411528,0.20073037980900243,0.20868360562950014,0.21800144108744499,0.22813391576818406,0.238580041387472,0.2489899831481515,0.2591373495131598,0.26885647297511905,0.278241804403159,0.28763689974114404,0.2977425790113077,0.3095910933968195,0.3243780569605758,0.34308770987671505,0.3661477614961718,0.39312314768344114,0.4226324327139656,0.45256873917924245,0.48049422910875983,0.5042873373068503,0.5226939486349744,0.5356737720311117,0.5440613445274016,0.5505668803436685,0.5573512921219781,0.5660491741980356,0.5772865772881977,0.5902055613910523,0.6034862108895187,0.6144838874130316,0.6203692150843267,0.6188993825452835,0.6089023414403013,0.5910867374096315,0.5672024208828934,0.5398529599772767,0.5118433817698546,0.4853782042926137,0.4619759810040277,0.4416393984211983,0.42320386052200765,0.4047873809944255,0.3843032322964503,0.3604276632508382,0.33256042733456065,0.30115813907081784,0.26761858772211206,0.23382660402310462,0.20201604267668968,0.1737956549697833,0.14997582527752013,0.13044979444979854,0.1142206701938632,0.10005496159784932,0.08640159620522635,0.0720068382569439,0.05625696760780187,0.039231347364504385,0.0220392843703896,0.005958802920865606,-0.007698837567329354,-0.017935859234194808,-0.024439733064124898,-0.027217126418005822,-0.02720528778836259,-0.02573597412265743,-0.024152437614226335,-0.023623693595022786,-0.024231058731878488,-0.025911391375361314,-0.028189065743439996,-0.03036901599425787,-0.032010525493347174,-0.03223791977877345,-0.03113083018639729,-0.02918130331539011,-0.027065078833533526,-0.02564843550163299,-0.02471176522363173,-0.024289686378898077,-0.024131694275545068,-0.02376114167280918,-0.022938148627591123,-0.020617081124899437,-0.016697847490586403,-0.011471919211034274,-0.005516633070566629,0.00019377245607674052,0.005448212300278471,0.009590573088782571,0.012108156061461066,0.012727875531675923,0.011244084587334825,0.008294331271548381,0.004246345079042785,-0.00047906289056629127,-0.005443056575093037,-0.010372996522839876,-0.014691836371287457,-0.018265308132004242,-0.021162882073084796,-0.023613988681862,-0.02600098561385753,-0.028512799117964165,-0.03139698827323846,-0.034764396583340976,-0.03854589898401017,-0.04253047813733911,-0.04631520845792519,-0.04954655010289763,-0.051965503592297686,-0.053477809286158334,-0.05417003270877278,-0.054317274376345884,-0.054262406147460696,-0.05433242197628684,-0.054738670733432956,-0.05549105438418207,-0.05641935629231473,-0.05714035105275022,-0.05716223387162109,-0.05599953218070757,-0.05327587461738671,-0.04887732144954094,-0.04292060654384281,-0.03577420774451557,-0.027999766090353786,-0.020240305643508396,-0.013158895630727228,-0.007262356418441742,-0.002852876236444141,4.310564452981165e-20,0.0014541157672546589,0.001793005045723003,0.0014100992626603762,0.0007028357334789587,-8.597310816920923e-21,-0.00048192582755081695,-0.0006636496800100015,-0.0005722552671376543,-0.0003084732919243641,-2.5677652063039436e-21,0.0002350321051308303,0.0003426854050495706,0.0003110698133703489,0.00017562406709102196,2.1977164467856588e-20,-0.00014604903341568123,-0.00021988312601099128,-0.0002052316729639935,-0.00011867390043646348,-4.673011048041361e-20,0.00011651732289336516,0.00017253141718072656,0.0001580248015533751,8.951418469709297e-05,6.453400953360248e-20,-5.5502871791037714e-05,-8.910018583891706e-05,-8.789022312452388e-05,-5.327818228123359e-05,-4.902687378696777e-20,7.788295202494474e-05,0.00011019163308297275,9.591676280072523e-05,5.1345515437609265e-05,6.633083957705786e-20,-9.756352956349755e-06,-1.9891202487499603e-05,-2.3131183714452836e-05,-1.5811049595655255e-05,-2.3647880773411898e-20,4.633399779300097e-05,6.193756066621663e-05,5.035197317605993e-05,2.479011611359342e-05,4.0069167798347445e-20,0.0,0.0,0.0,0.0,0.0,0.0,0.0,0.0,0.0,0.0,0.0,0.0,0.0,0.0,0.0,0.0,0.0,0.0,0.0,0.0,0.0,0.0,0.0,0.0,0.0,0.0,0.0,0.0,0.0,0.0,0.0,0.0,0.0,0.0,0.0,0.0,0.0,0.0,0.0,0.0,0.0,0.0,0.0,0.0,0.0,0.0,0.0,0.0,0.0,0.0,0.0,0.0,0.0,0.0,0.0,0.0,0.0,0.0,0.0,0.0,0.0,0.0,0.0,0.0,0.0,0.0,0.0,0.0,0.0,0.0,0.0,0.0,0.0,0.0,0.0,0.0,0.0,0.0,0.0,0.0,0.0,0.0,0.0,0.0,0.0,0.0,0.0,0.0,0.0,0.0,0.0,0.0,0.0,0.0
0.6188993825452835,0.6691303031111743,0.6717151685251229,0.6354771735833468,0.5762092080827248,0.5118433817698546,0.45749132597218123,0.4218021913705701,0.4056326560092219,0.40315226484602434,0.4047873809944255,0.4008662869789293,0.38479879040889214,0.3547692723866619,0.31368606917886815,0.26761858772211206,0.22345445700297345,0.18662810213623515,0.15968369140276398,0.1419780941727004,0.13044979444979854,0.12104427917766888,0.11012556678226892,0.095577553595259,0.07716763174685816,0.056256967607801876,0.03510991551583089,0.015958076743616854,0.0004241429761979099,-0.010805189865862585,-0.01793585923419481,-0.021738214001292933,-0.023329074726643115,-0.02376000082134991,-0.02385698535217107,-0.024152437614226335,-0.02484900005362742,-0.02601021796106933,-0.027501266335033834,-0.02906300498212417,-0.03036901599425787,-0.03105523197726258,-0.030960919025010077,-0.03009269586196346,-0.02867019185697247,-0.027065078833533526,-0.02561873703990788,-0.02465144375755627,-0.024215485424519186,-0.024076186328195352,-0.02376114167280918,-0.02295709020289875,-0.020644792192126893,-0.016721677073031054,-0.011483607283551689,-0.005516633070566629,0.00020766047119564611,0.005466390210535435,0.009603595437144166,0.01211244837552597,0.012727875531675923,0.01121063177082027,0.008233475904046798,0.004177815929011839,-0.0005268124120925347,-0.005443056575093038,-0.010395876593068532,-0.014750724789980107,-0.01834895243993674,-0.02123174984181443,-0.023613988681862,-0.02602072778796479,-0.028560449512868385,-0.03146398082129113,-0.034820348650186794,-0.03854589898401017,-0.04247754340176195,-0.04620603970398743,-0.04940825279882116,-0.051857706862479334,-0.053477809286158334,-0.054294780093814644,-0.05457133076272203,-0.05458585302877814,-0.05459008407134038,-0.054738670733432956,-0.054966976384248564,-0.055284813198640335,-0.055595277836601,-0.05582898034667878,-0.05599953218070757,-0.05610123374959005,-0.0564704097767508,-0.057391609751382015,-0.05907661519259717,-0.06154337587967567,-0.06474132019501985,-0.06789030079406157,-0.070013874947106,-0.07004072963032708,-0.06708721957864376,-0.06128032585006664,-0.052256761393840494,-0.040415880131973156,-0.02656318524315465,-0.011787018537514082,0.0024450925546596397,0.015350750476648897,0.02640724585706347,0.03562031312904956,0.04351318250361559,0.05098814487574167,0.05912171798987298,0.06884746596669249,0.08068725606438175,0.0945340730068968,0.10955199601172814,0.12421058673739782,0.13649913029243252,0.144252036296464,0.14555496351017796,0.13916162689668285,0.12476394953215922,0.1032049903961837,0.07639314962488376,0.04701703700691275,0.018103085117946685,-0.007614794227758501,-0.028130038690447272,-0.04260082608152297,-0.05152088949635243,-0.05657333375641392,-0.06032900869419105,-0.06547495401021797,-0.07412443552111345,-0.08711766823997581,-0.1034845843868584,-0.12036565059950691,-0.13308752382174358,-0.1358510799691497,-0.12271444698359917,-0.08873608956979984,-0.031235995232726375,0.049449385046382036,0.14946603733100786,0.26158020212990646,0.3759691534308466,0.481387742885739,0.5669376987828186,0.62365334717912,0.6458748512434122,0.6321322519139403,0.585180035556018,0.5116296144823381,0.4207461312719959,0.3229374256217061,0.22817577626705784,0.14460692090848784,0.0776548559279672,0.029645464511356218,-3.3554404673182224e-19,-0.014143320543614064,-0.016931059548567225,-0.01293536078121802,-0.006268448632606269,2.295389626911621e-19,0.004050260629429519,0.0054438158522305095,0.0045887634321990015,0.0024218966704523358,-1.517982224012243e-19,-0.0019016318758426198,-0.002690761030976787,-0.00237076653404086,-0.0012998790886516887,-2.5198333653699435e-20,0.0010181316805295462,0.0014952260140551066,0.0013643411427975583,0.0007731144105720305,5.2991070249125365e-20,-0.0006317131774781128,-0.0009576332429976908,-0.0008997285772954127,-0.000523623950328316,-1.419394251626587e-19,0.000511308540428029,0.0007649694126200951,0.0007082284705897035,0.00040569429509463044,2.531718130896561e-19,-0.00028640284868975893,-0.0004529837881677686,-0.00044133758417806224,-0.0002648301925567932,-2.358962311105368e-19,0.00011252563671472092,0.0002294166923789483,0.0002667852615705101,0.0001823579395742555,2.727446262847758e-19,-0.000534396677377546,-0.0007143615531033713,-0.0005807383011693058,-0.000285918684204475,-4.62140785528219e-19,0.0,0.0,0.0,0.0,0.0,0.0,0.0,0.0,0.0,0.0,0.0,0.0,0.0,0.0,0.0,0.0,0.0,0.0,0.0,0.0,0.0,0.0,0.0,0.0,0.0,0.0,0.0,0.0,0.0,0.0,0.0,0.0,0.0,0.0,0.0,0.0,0.0,0.0,0.0,0.0,0.0,0.0,0.0,0.0,0.0,0.0,0.0,0.0,0.0,0.0,0.0,0.0,0.0,0.0,0.0,0.0,0.0,0.0,0.0,0.0,0.0,0.0,0.0,0.0,0.0,0.0,0.0,0.0,0.0,0.0,0.0,0.0,0.0,0.0,0.0,0.0,0.0,0.0,0.0,0.0,0.0,0.0,0.0,0.0,0.0,0.0,0.0,0.0,0.0,0.0,0.0,0.0,0.0,0.0
0.6458748512434122,0.6979648313669116,0.6992739492486648,0.6586535738321131,0.5925257658830081,0.5199280854600936,0.45681103785231764,0.41366470831416613,0.39275555868049916,0.38925559237312274,0.39398131967677497,0.3964362013271431,0.38965075727642684,0.3708839617248005,0.3420784113322051,0.3084580691620616,0.2758556723926454,0.24975202304279487,0.23283190721242597,0.22479381557825195,0.2229348186473483,0.22308609542546173,0.22191735083366612,0.2172961772473183,0.20887857870867652,0.19788272704926704,0.18622896650747317,0.17638547948012528,0.1702690608313784,0.16900084998373985,0.1728306354511857,0.18116442923443363,0.19311698699987453,0.20750346685480106,0.22308725559708664,0.23873377376923152,0.25350256679120137,0.26700401215847636,0.2794027473553019,0.2915032513843183,0.3046369120872774,0.3203447702634334,0.3399963459887463,0.36428163160407656,0.3928761214874157,0.4243472584627792,0.45638350901787533,0.4862879519783124,0.5116509387737341,0.5309722556653191,0.5440576048382811,0.5517527580161419,0.5567888110490181,0.5615441244256635,0.5679410563796287,0.576891487710219,0.5877552713076096,0.5992904571115457,0.6087644240136353,0.6131061221213572,0.6097253705821569,0.5970449211552658,0.5755352907740136,0.5467637679396157,0.5133683031302171,0.47845462515166964,0.4447674567492931,0.4146183055947368,0.388785770784006,0.36678305660029314,0.3471838797211823,0.32804236708370527,0.3078717663461086,0.2855535558732459,0.2608124292875272,0.23425099592623608,0.2070489971870201,0.18097764525870533,0.15747708566675067,0.1374976910237804,0.12131811213128979,0.10845038278548405,0.09815070752352126,0.08923917094265743,0.08058557975594449,0.07139651406175306,0.06126194047874414,0.050624559602079296,0.0400303050683692,0.030133416236251976,0.021474915992216313,0.01416065789500405,0.008359619628767198,0.003587402573335229,-0.0008317368775440622,-0.005510591228064688,-0.01099410948516843,-0.016829409347933443,-0.022682784930844063,-0.028066009779992362,-0.03249609844834569,-0.03594318046855812,-0.037875365426434236,-0.03867536909364297,-0.038988164326808336,-0.039465097891701315,-0.04081819281324146,-0.0425368865358115,-0.04436820902349789,-0.04585042099847841,-0.046434097335056934,-0.0459607657342203,-0.04361183330563836,-0.03956983388064647,-0.03438592011149113,-0.02878999953341031,-0.023725724878812308,-0.019239451514026153,-0.015633236096109074,-0.01298323933788709,-0.011145901731763684,-0.010002513871832418,-0.008874402654892893,-0.0075214631314398294,-0.005861564304559656,-0.003950453413771644,-0.0020579323979679613,-0.00015699735249890374,0.0015114831926366903,0.0027071825846635544,0.0032449949042203975,0.0029693311494931704,0.002008045433839974,0.0004527671821714549,-0.0015391785092345087,-0.003758469494221535,-0.006004348596440761,-0.007975370399911839,-0.009487337077582415,-0.010428013541332352,-0.010761933892663467,-0.010534808965480494,-0.009816198758547862,-0.008735573972544347,-0.007440150003466382,-0.006073545837423437,-0.004756578972736132,-0.0035880138855564855,-0.002626034341140536,-0.0018941023699841028,-0.001385157782183406,-0.00105110456268339,-0.0008747860585082037,-0.00079524522190452,-0.0007507534994293736,-0.000692578891091703,-0.0005739738374793421,-0.00043061092942939965,-0.0002742864677661935,-0.0001238857404133559,-2.052661427622058e-20,0.00010491073006700325,0.00013961171904317804,0.00011595693089499134,5.985757248776937e-05,3.680171917800569e-20,-2.7248980419832688e-05,-4.005740831771605e-05,-3.674704238985601e-05,-2.0989400603160906e-05,-5.0343531953523054e-21,2.392863511789418e-05,3.412500926776097e-05,3.0086614022960816e-05,1.639749477284237e-05,1.033695402266932e-20,-1.0730416467434964e-05,-1.5895428152071664e-05,-1.4586001528345547e-05,-8.28968791272433e-06,-3.996221174874499e-21,5.383396328851122e-06,8.63619889270609e-06,8.52832741230408e-06,5.183351831057348e-06,3.587187587982612e-21,-3.0173810453287537e-06,-5.556722966320252e-06,-6.072918062396145e-06,-3.982918610528079e-06,-5.198719883769595e-21,9.736399101325796e-06,1.316566011551042e-05,1.0859729040702084e-05,5.448604413728579e-06,8.394670447215233e-21,-2.413250199949295e-07,-4.920122159884422e-07,-5.721536928165024e-07,-3.910889526940498e-07,-5.849342808746112e-22,1.1460791746534395e-06,1.5320359086110988e-06,1.2454644668824138e-06,6.131876628034414e-07,9.911175583108668e-22,0.0,0.0,0.0,0.0,0.0,0.0,0.0,0.0,0.0,0.0,0.0,0.0,0.0,0.0,0.0,0.0,0.0,0.0,0.0,0.0,0.0,0.0,0.0,0.0,0.0,0.0,0.0,0.0,0.0,0.0,0.0,0.0,0.0,0.0,0.0,0.0,0.0,0.0,0.0,0.0,0.0,0.0,0.0,0.0,0.0,0.0,0.0,0.0,0.0,0.0,0.0,0.0,0.0,0.0,0.0,0.0,0.0,0.0,0.0,0.0,0.0,0.0,0.0,0.0,0.0,0.0,0.0,0.0,0.0,0.0,0.0,0.0,0.0,0.0,0.0,0.0,0.0,0.0,0.0,0.0,0.0,0.0,0.0,0.0,0.0,0.0,0.0,0.0,0.0,0.0,0.0,0.0,0.0,0.0
0.6097253705821569,0.6568230879635263,0.6555109622554879,0.6144466285190492,0.5493900335742467,0.47845462515166964,0.41720378193585234,0.37491647143769957,0.3532060140728891,0.346970706421839,0.3471838797211823,0.34443480708613405,0.33198264221096857,0.307516954303578,0.2731973108034696,0.2342509959262361,0.19680808848435993,0.16578775873183202,0.14354960058805608,0.12960598716374416,0.12131811213128979,0.11516442666364393,0.1080639399268473,0.09827590473772842,0.0856705350771247,0.07139651406175307,0.057188201220657146,0.04461318812442186,0.03455865551368281,0.02706208337697812,0.02147491599221631,0.0168316349029247,0.012204513902487188,0.006995234778629998,0.001027304291781812,-0.005510591228064686,-0.012204097127107223,-0.01858799430777303,-0.024255835875188165,-0.028931603534576713,-0.03249609844834569,-0.03498854074649362,-0.03659923864013991,-0.03763794525870996,-0.03847740266833123,-0.039465097891701315,-0.04082284828654651,-0.04254634241193178,-0.044379840621306454,-0.04585912231673173,-0.046434097335056934,-0.04595779648958345,-0.043607489372443235,-0.03956609840148367,-0.03438408791189453,-0.02878999953341031,-0.02377301844246007,-0.019333938580277658,-0.015748000051869965,-0.01306823725388675,-0.011145901731763684,-0.009968494723413041,-0.008822765736292653,-0.007474519854564176,-0.00583632321242646,-0.003950453413771644,-0.0022036086034003645,-0.00043570068603148235,0.0011845951806028852,0.002471910858953056,0.003244994904220397,0.0031049889153001156,0.002227551774288592,0.0006702125176155458,-0.0014074284319185043,-0.003758469494221535,-0.006273545390271123,-0.008460254557572577,-0.010027094780444163,-0.010799392746198693,-0.010761933892663467,-0.010190552285799686,-0.009221412963389906,-0.008098218633193049,-0.0070159241157702395,-0.006073545837423437,-0.00533736857697127,-0.0046479710577177,-0.0038369234819146275,-0.0027639231906185294,-0.0013851577821834059,0.00019143336943618918,0.001769611177840701,0.003123957693629742,0.004074047164504459,0.004565652372682234,0.00450087797992719,0.004410056304943792,0.004935747744273194,0.006783515257506534,0.01051646252754788,0.01593789815532571,0.023265214291253607,0.0322186365373648,0.042285491175927725,0.052805583464902946,0.06287921029899768,0.07213351778867416,0.08040426986254876,0.08788720020010204,0.095094704402258,0.10273608522170109,0.11151180352878082,0.12193885218051104,0.1341622103435392,0.14784600793288216,0.16216863647671106,0.1759207094757199,0.18771864936568855,0.1962621875650967,0.2005973114635063,0.20031957733699493,0.1956781080322002,0.1875311606446042,0.1771839034904245,0.16612797700443477,0.15574338315817954,0.14701567523416054,0.14035288556179198,0.13551094247178858,0.13165864254536327,0.12757342075982786,0.12190388883874659,0.11352990795927888,0.1018810376022903,0.08720921139986451,0.07076017620583198,0.05478225781040161,0.04238366060088411,0.037177384811067686,0.042759780254365734,0.06207490866359454,0.09675513424549327,0.1465696901134239,0.2090978272198552,0.2797373903874299,0.352096888981238,0.4187616928254818,0.472298752288092,0.5063676822530873,0.5167150005204941,0.5018574581013949,0.46334771010958953,0.4054966178608591,0.33468554404485046,0.25835750026024706,0.1838621874933095,0.11752170118116397,0.06372376886290909,0.024587973691209616,-2.0345728543164306e-19,-0.012042069286289904,-0.014599097850501105,-0.011297880157867604,-0.00554596971009539,3.563700242470003e-20,0.003643751107921561,0.004965274489498354,0.004242826618336033,0.0022693250513907623,2.4683434953222125e-20,-0.0018580409944450593,-0.0026491239924877463,-0.0023493022282635116,-0.0012950778375941663,-2.194501141566933e-19,0.0009608841910827455,0.001434054839491411,0.0013285140463091885,0.0007634055571703428,1.8194905201962176e-19,-0.0007330737413531246,-0.0010857974741592573,-0.000995625313312612,-0.0005650826915412858,-3.0788655744618016e-19,0.00043361264797154,0.0006620536935833597,0.0006248136833126765,0.000364356654686263,2.620580779430089e-19,-0.00034573791115269457,-0.0005182761013213079,-0.0004798013785947371,-0.00027425972194475116,-2.8956471609587943e-19,9.00231435264589e-05,0.00018353872440424646,0.0002134344545322972,0.00014589062054456135,2.182020858087053e-19,-0.0004275298517935683,-0.0005715059652392595,-0.00046460423565536596,-0.00022874164054091,-3.697234468489315e-19,0.0,0.0,0.0,0.0,0.0,0.0,0.0,0.0,0.0,0.0,0.0,0.0,0.0,0.0,0.0,0.0,0.0,0.0,0.0,0.0,0.0,0.0,0.0,0.0,0.0,0.0,0.0,0.0,0.0,0.0,0.0,0.0,0.0,0.0,0.0,0.0,0.0,0.0,0.0,0.0,0.0,0.0,0.0,0.0,0.0,0.0,0.0,0.0,0.0,0.0,0.0,0.0,0.0,0.0,0.0,0.0,0.0,0.0,0.0,0.0,0.0,0.0,0.0,0.0,0.0,0.0,0.0,0.0,0.0,0.0,0.0,0.0,0.0,0.0,0.0,0.0,0.0,0.0,0.0,0.0,0.0,0.0,0.0,0.0,0.0,0.0,0.0,0.0,0.0,0.0,0.0,0.0,0.0,0.0
0.5167150005204941,0.5613840153047197,0.566562025181857,0.5390368646214665,0.4915586540807171,0.4389655050863433,0.39351268511675674,0.3636161758761807,0.3512191126388385,0.35275160432880887,0.3612160096521925,0.3683211442467354,0.36879523502290945,0.3604884163684562,0.3448222217866514,0.3256894117727393,0.3072322817902957,0.29358447407559013,0.28667821165656676,0.28622094378766805,0.29016281389328613,0.2952954966741792,0.2993359482673879,0.30088594712531586,0.29987005435850345,0.29728081669074563,0.29438372850056277,0.2928531711063716,0.29379280506453337,0.29768047224392624,0.30439881948820513,0.313271519976446,0.3236785547818758,0.33491448060848167,0.3463550479539422,0.35750475639054197,0.3679664398095199,0.3778147315091763,0.3875067809560393,0.3979882068241653,0.41061069329287886,0.4268296257779835,0.44793914484659353,0.4745174489325142,0.5060930510368074,0.5410182556962293,0.5766325173780036,0.6098532365619327,0.6378021881766053,0.6585148611824191,0.6714258180995798,0.6772131896041892,0.678571156001225,0.6782124806847711,0.678597272887064,0.681251487113557,0.6860563987644002,0.6921479960237374,0.6970107139131011,0.6975782122278591,0.6910771561275341,0.6755364489067845,0.6511577388695934,0.6192989727924026,0.5825241969589957,0.5440002572754182,0.5065410862169043,0.47274728726237353,0.44361537688012415,0.41880490188143155,0.39692335842330245,0.37584769687528036,0.35402695403043966,0.33014638354499576,0.30376008820985095,0.2753806886067587,0.2461229346579326,0.21799700292910895,0.1926179277183866,0.17110259971364086,0.15383801879021494,0.14027727103824722,0.12972210998253464,0.12081235443793713,0.11219971761660819,0.10291466410165435,0.09241163032778903,0.08131236976446946,0.07032254782728861,0.06030368024822324,0.05199130941309377,0.04555353461790617,0.04125816012576723,0.03846823399184743,0.036246025475087845,0.03369357322930093,0.029982521153629507,0.025649507900161527,0.021189178288605413,0.017445220703308922,0.015395837045508086,0.015501272391831333,0.018860835157181736,0.025261423889983294,0.033875064926715166,0.04349733682002847,0.052482402734554595,0.06040479393709672,0.06645006453080601,0.07018259938037584,0.07159883659454887,0.07071292094572787,0.06878086783857283,0.06634526665845432,0.06379085173519254,0.0613480158317535,0.05884089818959449,0.05678837158370731,0.05501623944793647,0.05322628494540482,0.05109719506895813,0.04816764730063121,0.04467918608386826,0.040577937654187934,0.03591612672213228,0.03087923229962927,0.025628005401880007,0.02078085594305937,0.016613631665457776,0.013253265439886065,0.010661269530300402,0.008573414850025118,0.006854374482002476,0.00517425204957133,0.0032477978926191958,0.0009291071789612029,-0.0017824580862248777,-0.004532023198551295,-0.006921002602206798,-0.008488664782694038,-0.008803055172378,-0.007579309971026111,-0.004650437635038309,-0.0001414091000308535,0.00558624872607656,0.011986019278081168,0.018390428542744513,0.024172357159238267,0.028749410972453607,0.03169208399286238,0.03277509372854033,0.031987325676413665,0.029546753127581225,0.0258175929872584,0.02126476378882528,0.016387546864270165,0.011633097161559452,0.007428728251746001,0.004032623515254053,0.0015613744482838301,3.6297037022829896e-20,-0.0008089567839007312,-0.0009877862527845525,-0.0007678322480922121,-0.0003774010982515129,-6.487933849585517e-20,0.0002195962314302368,0.00030174484666894443,0.0002604113488206747,0.00014081730755747873,1.64953267003346e-20,-0.00013765579272618361,-0.0001924974799440485,-0.00016675631515543365,-8.945184952267632e-05,-3.825024265138111e-20,5.185382240394381e-05,7.736653034627508e-05,7.169081713673622e-05,4.122402662169809e-05,7.078836883167147e-21,-4.1493606498992607e-05,-6.0930891791755135e-05,-5.539362894414816e-05,-3.117553865816225e-05,-1.541089503131108e-20,2.549771532017999e-05,3.790361998506892e-05,3.487525227066797e-05,1.9859786803098505e-05,1.175951217698206e-20,-1.2402309607893001e-05,-2.0137768628506993e-05,-2.0079694979627092e-05,-1.2298579026708182e-05,-1.0127508535119029e-20,5.7101438197951145e-06,1.1641812002954085e-05,1.3538090137018324e-05,9.253802884852116e-06,1.384049970861968e-20,-2.7118103693851245e-05,-3.625046990752831e-05,-2.9469721906549342e-05,-1.4509020835076485e-05,-2.3451458951078223e-20,0.0,0.0,0.0,0.0,0.0,0.0,0.0,0.0,0.0,0.0,0.0,0.0,0.0,0.0,0.0,0.0,0.0,0.0,0.0,0.0,0.0,0.0,0.0,0.0,0.0,0.0,0.0,0.0,0.0,0.0,0.0,0.0,0.0,0.0,0.0,0.0,0.0,0.0,0.0,0.0,0.0,0.0,0.0,0.0,0.0,0.0,0.0,0.0,0.0,0.0,0.0,0.0,0.0,0.0,0.0,0.0,0.0,0.0,0.0,0.0,0.0,0.0,0.0,0.0,0.0,0.0,0.0,0.0,0.0,0.0,0.0,0.0,0.0,0.0,0.0,0.0,0.0,0.0,0.0,0.0,0.0,0.0,0.0,0.0,0.0,0.0,0.0,0.0,0.0,0.0,0.0,0.0,0.0,0.0
0.6910771561275341,0.7447912990923996,0.7436885852703952,0.6975257139215727,0.6241242077986924,0.5440002572754182,0.4747264702525334,0.42694085730283243,0.40257685113791336,0.39595748197059066,0.39692335842330245,0.3947648726050691,0.3818457825886958,0.3554835328361566,0.31804574301214994,0.2753806886067587,0.2343471673457374,0.20051870622441642,0.17658085742227173,0.1620088813359372,0.15383801879021494,0.14807958915582692,0.14123310094987263,0.13129729443633306,0.11809492949740508,0.10291466410165437,0.08773779787687312,0.0744071588741934,0.06402950099146229,0.05676676771399338,0.05199130941309377,0.048667837276933676,0.045738239268453385,0.0424362801618903,0.03840909454027588,0.03369357322930093,0.02860154899613546,0.023636828780774662,0.019383618500393253,0.0164486700927189,0.015395837045508084,0.01662860698450397,0.020367814007500876,0.026486518288793656,0.03447822366074193,0.04349733682002847,0.05244168837034661,0.06032209773006456,0.06634834058600626,0.07010650214659475,0.07159883659454887,0.07073888842521843,0.06881885763394113,0.06637793522922261,0.06380687520623182,0.0613480158317535,0.058696339857350316,0.05650850569379933,0.05468478055764924,0.05298579923721715,0.05109719506895813,0.04829356412348732,0.044879733521720984,0.04077260039188344,0.03603098672747418,0.03087923229962927,0.025355813954053556,0.0202874140772781,0.016061482721866294,0.012871878285689286,0.010661269530300402,0.008898038102982177,0.007405376919936302,0.00575220142264156,0.003622681890344365,0.0009291071789612026,-0.0023101812605377334,-0.005470986085254278,-0.007957155927702702,-0.009198198476914526,-0.008803055172378,-0.0067700957865302214,-0.0031909237142846445,0.0015010921977494512,0.006741775785113588,0.011986019278081168,0.016433612619002804,0.02034484566007788,0.024049256307786083,0.028046593057311626,0.03277509372854034,0.0376803240357824,0.0432510214398796,0.049386190865829044,0.055857170892467486,0.06237332075566718,0.06812293742851942,0.0734957024941436,0.07884587116429956,0.08477200240727138,0.09197154778279398,0.10068807296495431,0.11166507570277982,0.12508437157219934,0.14072605398957802,0.1579293289535143,0.17542732185321797,0.19207123388027564,0.2064768752112098,0.21738743093920637,0.2238871101242346,0.22554989119948407,0.22263886378668749,0.2159677351272404,0.20683052208238484,0.1967823673613388,0.18733299106830248,0.17969860878951335,0.17445882527410292,0.171432157943601,0.16967762459844296,0.16766184087909422,0.16361103251765532,0.15592993335038643,0.14370525026533262,0.12715749632708395,0.10795264587863886,0.08928545940418164,0.07566161066650161,0.07236395977238538,0.08463736805572498,0.11670468802225203,0.17075679308501698,0.24618503615667153,0.33918599829300766,0.44292435180242173,0.5482849209390591,0.6451649166458594,0.724009361494213,0.7773848719237165,0.8012113355491184,0.7953724492582163,0.7636565778550019,0.7128173046874462,0.6512083289987727,0.5871563155118498,0.527424510724961,0.47627198510630964,0.43487221601623943,0.4016444114000782,0.3731012954745811,0.34497736800923906,0.313615984852617,0.27668989036947256,0.23381194688683865,0.18655064773729055,0.13789644686242108,0.09180339790974822,0.051901426524647645,0.020879708451599456,-2.6704965667745773e-19,-0.011157277280139075,-0.014046155090125377,-0.011263750999974169,-0.0057171779918121,-8.498894271143261e-20,0.003972492634047109,0.0055694243692910785,0.004886208617103557,0.002677729935961628,1.8165140455186736e-19,-0.002248106623641919,-0.0032743417083952765,-0.002963143089747119,-0.0016650224843847063,-4.576133435577138e-19,0.0013273409915355071,0.0019961435438342265,0.0018601260419119827,0.0010734796467272577,4.907401230036356e-19,-0.000983390356088709,-0.0014746368853567828,-0.0013675135396183321,-0.0007840647563303388,-6.009314384342647e-19,0.0004473055981902515,0.0007516708129804788,0.0007693506988251716,0.00048058744614473616,5.145256831327564e-19,-0.0008870207255964902,-0.0012262487543697486,-0.0010390948617709523,-0.0005390487722738306,-7.602803585958348e-19,6.500247029519665e-05,0.00013252670384253818,0.0001541133340520317,0.00010534236371681933,1.5755586891899166e-19,-0.000308703911048755,-0.00041266387812900643,-0.0003354739886230947,-0.0001651661018720697,-2.669639875902782e-19,0.0,0.0,0.0,0.0,0.0,0.0,0.0,0.0,0.0,0.0,0.0,0.0,0.0,0.0,0.0,0.0,0.0,0.0,0.0,0.0,0.0,0.0,0.0,0.0,0.0,0.0,0.0,0.0,0.0,0.0,0.0,0.0,0.0,0.0,0.0,0.0,0.0,0.0,0.0,0.0,0.0,0.0,0.0,0.0,0.0,0.0,0.0,0.0,0.0,0.0,0.0,0.0,0.0,0.0,0.0,0.0,0.0,0.0,0.0,0.0,0.0,0.0,0.0,0.0,0.0,0.0,0.0,0.0,0.0,0.0,0.0,0.0,0.0,0.0,0.0,0.0,0.0,0.0,0.0,0.0,0.0,0.0,0.0,0.0,0.0,0.0,0.0,0.0,0.0,0.0,0.0,0.0,0.0,0.0
0.8012113355491184,0.8602483657677598,0.8530559292751785,0.7906140351411777,0.6937822235912876,0.5871563155118498,0.49201100806359077,0.4228783353790919,0.3841231956600233,0.3710503123957885,0.3731012954745811,0.37756973922900816,0.3753536725170706,0.36205835095108213,0.33869493559240776,0.31018938378798916,0.282391671080621,0.2609689821981469,0.2486560100535606,0.2450492402172884,0.2472774721013972,0.25103615714939476,0.2531193946809097,0.2516906699287451,0.24678500675424858,0.23989828979222638,0.232924985080901,0.22797493140066494,0.22625162339421234,0.22797222394019695,0.23251910748305557,0.23869548099658242,0.245460207411449,0.2519664304676395,0.25774806716573073,0.26271282346692193,0.2670528735292671,0.2713122226835784,0.276300633552544,0.28308927233110465,0.29290653945078826,0.3069579790680721,0.3259805765464982,0.3500129039895563,0.37816956319497946,0.4086744845769539,0.4392333533714736,0.4673854221875396,0.4912657090078422,0.5100970297776486,0.5244424297031195,0.5357447697152234,0.5471668173663475,0.5609629459809181,0.578480535213249,0.5996962979500673,0.622844636567158,0.6455700500614878,0.6641566914435307,0.6748844111522511,0.6749501661970152,0.6630559513017665,0.6402204446572299,0.608803641778109,0.5722553493482078,0.534337772707363,0.4982081602184307,0.46620954102613044,0.4388847379871553,0.41534098773188816,0.3937253792177108,0.3718053940412656,0.34799062824822674,0.3212758563570561,0.29167646416155585,0.26016818747239406,0.2282850641582742,0.19798500326812782,0.17064246731806904,0.14690983049738174,0.12661099572707735,0.10878794645870365,0.09232505228598895,0.07584605333020093,0.05831312376436836,0.03933855437571913,0.019190587552101537,-0.0008720260500239149,-0.019519391490251156,-0.03549098298516746,-0.04793388697563908,-0.056775486673098355,-0.06221023572655435,-0.06530353790582459,-0.06740162996753182,-0.06973135641285402,-0.0732575788275652,-0.07774028071346113,-0.08278804079907173,-0.08766089270672972,-0.09152882585006898,-0.09399876622626936,-0.09435583838311644,-0.09293385939473477,-0.09049668889708894,-0.08794089802408986,-0.08628110236355749,-0.08527809109115007,-0.08489286594122195,-0.0847699175361521,-0.08435297019811072,-0.08341867302252098,-0.08093391234186172,-0.07692562945339408,-0.07181513805268111,-0.06624131501281673,-0.06113076728817887,-0.05648069301985169,-0.05265955750869863,-0.049868286511856263,-0.048129659827522736,-0.04753003910573731,-0.04750602116678519,-0.04792002696151076,-0.048689880461852686,-0.04973078612298232,-0.051031114681007496,-0.05210918160920923,-0.052696624965556174,-0.05252036938157857,-0.0513319124184419,-0.04901505173029176,-0.04538094294663106,-0.04052920830439399,-0.03473073178144456,-0.028393918018248716,-0.022032135638743462,-0.016124323421021648,-0.011154396061190293,-0.007514835506780935,-0.005455923618055529,-0.005028569284972703,-0.006170224793763654,-0.008598122323228066,-0.011898416711008285,-0.015589438639869896,-0.01915245029870555,-0.022227657744434273,-0.02447611741753387,-0.025673282974285568,-0.02572295366168426,-0.02460609029087854,-0.022543520786260388,-0.0197335769091831,-0.016416902938950304,-0.01286147683084213,-0.00929858631773861,-0.006071786145315209,-0.0033811838518921665,-0.001346222980161372,-4.986182132793437e-20,0.0007501908073504291,0.0009420707909432423,0.0007522474337422257,0.00037935949268757673,9.093404985342548e-20,-0.00023078081902741412,-0.0003253733273175868,-0.00028746647933016833,-0.0001587574786465968,-3.91646803013346e-20,0.0001548052472097274,0.00022068380593933388,0.00019490974834532706,0.00010661066908778261,6.189716087420221e-20,-5.8379898760784496e-05,-9.146021814423035e-05,-8.854120602058962e-05,-5.291473628443811e-05,-2.953797854963352e-20,7.554121760437412e-05,0.00010661145305217618,9.266780650993352e-05,4.959731929413328e-05,4.903435004660922e-20,-2.2165660453446153e-05,-3.4140017505878876e-05,-3.247865306729635e-05,-1.9077724960818353e-05,-1.445076065660566e-20,1.996440401092415e-05,2.9480750747552215e-05,2.6877044054172427e-05,1.5126046365607307e-05,1.6795775380591795e-20,-4.4815055631782625e-06,-9.136870611883491e-06,-1.0625131026215255e-05,-7.262683816343494e-06,-1.0862471839382114e-20,2.1283164908305228e-05,2.845054129726691e-05,2.3128790944228085e-05,1.1387148842600896e-05,1.8405463517322534e-20,0.0,0.0,0.0,0.0,0.0,0.0,0.0,0.0,0.0,0.0,0.0,0.0,0.0,0.0,0.0,0.0,0.0,0.0,0.0,0.0,0.0,0.0,0.0,0.0,0.0,0.0,0.0,0.0,0.0,0.0,0.0,0.0,0.0,0.0,0.0,0.0,0.0,0.0,0.0,0.0,0.0,0.0,0.0,0.0,0.0,0.0,0.0,0.0,0.0,0.0,0.0,0.0,0.0,0.0,0.0,0.0,0.0,0.0,0.0,0.0,0.0,0.0,0.0,0.0,0.0,0.0,0.0,0.0,0.0,0.0,0.0,0.0,0.0,0.0,0.0,0.0,0.0,0.0,0.0,0.0,0.0,0.0,0.0,0.0,0.0,0.0,0.0,0.0,0.0,0.0,0.0,0.0,0.0,0.0
0.6749501661970152,0.7273495542578542,0.7264697544679577,0.681961468264433,0.6112655274036496,0.534337772707363,0.46825511329794006,0.42301886107691467,0.40014315265840555,0.3937518068561749,0.3937253792177108,0.3896897742658068,0.37430531497519715,0.3452530755618756,0.3051993179453844,0.26016818747239406,0.21711395795500316,0.1814118990128333,0.15544447247452936,0.13829747939177992,0.12661099572707735,0.11613756320650911,0.10316819849014791,0.0857220640852835,0.0638652363326557,0.039338554375719134,0.014752963610157361,-0.007413300867289632,-0.025466624753106237,-0.0388253032138541,-0.047933886975639085,-0.053902192388127365,-0.058073983601607336,-0.06163747129579728,-0.06540179056173898,-0.06973135641285402,-0.07458344662733818,-0.07965934843658548,-0.08449722500260609,-0.08859711198854592,-0.09152882585006898,-0.0930063891165455,-0.09302926566405417,-0.09185542567458427,-0.08996573657373379,-0.08794089802408986,-0.08626805711345298,-0.08525159447934205,-0.0848602726703372,-0.08474553529498863,-0.08435297019811072,-0.08342699323753915,-0.08094608461549634,-0.07693609675859507,-0.07182027211755763,-0.06624131501281673,-0.06109218571736324,-0.05640673474633187,-0.05257268387354739,-0.04980569211907919,-0.048129659827522736,-0.04756544985613216,-0.047563059854084336,-0.04797619123516077,-0.04872363799067228,-0.04973078612298232,-0.05099735102362202,-0.0520570273182621,-0.052647605884301785,-0.05249242470912673,-0.0513319124184419,-0.04907856756999214,-0.045495140184351746,-0.04065655338671361,-0.03481879812799607,-0.028393918018248716,-0.02199918633937724,-0.01607992083330761,-0.011119272132427933,-0.007498791531659251,-0.005455923618055529,-0.005150808246784611,-0.006412498498108094,-0.008896638594318112,-0.012127210880929513,-0.015589438639869896,-0.018847381229376924,-0.02159460973734001,-0.023644873737816204,-0.024978752221855385,-0.02572295366168426,-0.026045170219272232,-0.026273444776925902,-0.02658092330693864,-0.02703411081225938,-0.027595734219672256,-0.02807147037842597,-0.028480340599981446,-0.0287868140659916,-0.029055919530091737,-0.029468514777660246,-0.03016123540045879,-0.03158571351710529,-0.03399678889607905,-0.03747874428720744,-0.04186412695153541,-0.04661706587900666,-0.0511172505456354,-0.05447873289343119,-0.055783380745066904,-0.05425973912541057,-0.0494278795986624,-0.04131494073005416,-0.030370034066470326,-0.0174546729529784,-0.0036974045939616547,0.009746953003851215,0.021840201863415332,0.032000712029696794,0.04018063338719301,0.04686492993748725,0.05296680351226383,0.059487965883386715,0.06735604766682915,0.07708878790820509,0.08858573996895079,0.10107517182226954,0.11315651521184823,0.12312318982823904,0.12928050786433185,0.1303065500004143,0.12554990255392656,0.11517779280977097,0.10017412101318456,0.08214483977396558,0.06299764881149729,0.04457225611725976,0.028259774662780925,0.014798634136728137,0.004171622441774622,-0.004311252377419725,-0.011768108090069165,-0.019472672557434553,-0.028448436092518223,-0.03921641237028738,-0.05164219351369757,-0.06492109899560161,-0.0777806838546581,-0.08867058742234152,-0.09610609169560533,-0.0989731346499754,-0.09673906528210369,-0.08961286722448532,-0.07843140677626803,-0.06452722496292906,-0.0494865673249877,-0.034856039233643624,-0.021980371174264927,-0.01172283160536198,-0.004436367020249162,9.499318373249471e-20,0.002093305217937166,0.00247047049002214,0.0018556278271982807,0.0008816574730600539,-8.159997573950462e-20,-0.0005480295411221508,-0.0007160577045927895,-0.0005855215982460919,-0.00029932670340540157,1.0552636136839551e-19,0.00018742069991959298,0.00026456415608640694,0.0002341521774089821,0.00012981004827558162,-9.838140054581542e-20,-0.0001537554815376318,-0.0002145841079688464,-0.00018566840410542485,-9.966903891650862e-05,3.2656836618709604e-20,9.404000164316877e-06,3.242488923138674e-05,4.755157119134797e-05,3.747239663843421e-05,-5.425281685699e-20,-8.237963992889941e-05,-0.0001254338798541472,-0.00011807638377751698,-6.869473169375252e-05,-4.855729998921591e-20,6.301411946622442e-05,9.498174208681176e-05,8.841471160115472e-05,5.081531676642912e-05,5.2688502226615995e-20,-1.7243301814120446e-05,-3.51555555105773e-05,-4.088187295915607e-05,-2.794432524076229e-05,-4.17950792949622e-20,8.18903448628846e-05,0.00010946795969521297,8.899168309057757e-05,4.3813857090479083e-05,7.081793338953195e-20,0.0,0.0,0.0,0.0,0.0,0.0,0.0,0.0,0.0,0.0,0.0,0.0,0.0,0.0,0.0,0.0,0.0,0.0,0.0,0.0,0.0,0.0,0.0,0.0,0.0,0.0,0.0,0.0,0.0,0.0,0.0,0.0,0.0,0.0,0.0,0.0,0.0,0.0,0.0,0.0,0.0,0.0,0.0,0.0,0.0,0.0,0.0,0.0,0.0,0.0,0.0,0.0,0.0,0.0,0.0,0.0,0.0,0.0,0.0,0.0,0.0,0.0,0.0,0.0,0.0,0.0,0.0,0.0,0.0,0.0,0.0,0.0,0.0,0.0,0.0,0.0,0.0,0.0,0.0,0.0,0.0,0.0,0.0,0.0,0.0,0.0,0.0,0.0,0.0,0.0,0.0,0.0,0.0,0.0
0.6526309436070821,0.7044595829864452,0.7051918302078847,0.6640420035396076,0.5977290562194837,0.5254099883844785,0.46343778775802397,0.42148241397508324,0.40104150226867524,0.3965100772367898,0.3981890331618748,0.3960833413436115,0.3831317632726404,0.3570679550029026,0.320411112791269,0.27891633954432676,0.23922401960484313,0.20655783620928245,0.18329647966774976,0.1686885321101393,0.1596436459267787,0.15215311734732118,0.14274715434063937,0.12951774737695648,0.11243433308229998,0.09299341728960793,0.07347064652717561,0.05603199740934343,0.0421534821647391,0.032362572310303456,0.026343188652437125,0.023290156509395792,0.02218118230572101,0.022121509141604573,0.0224531017897137,0.022755919483521177,0.02280771759832064,0.022464629186791072,0.02168561171964967,0.020530504352508114,0.01916865031460522,0.01786325217148387,0.016874295843574545,0.016387750818047553,0.01643363887387,0.016860835199326095,0.01737784709019954,0.01763891406548618,0.01734779155719437,0.016330181846958204,0.014553020084046972,0.01174832551770348,0.008666307269589384,0.005324976471240144,0.0016650980952303092,-0.0023361616843730953,-0.006849112053943473,-0.011095428636720328,-0.014761744767028634,-0.01755219805595848,-0.019225343452793163,-0.019854125090899864,-0.01905214634949774,-0.017037955769596186,-0.014207461985186154,-0.01103199042078225,-0.008143398845947513,-0.005613929863182893,-0.003740984258740036,-0.0027604283180821666,-0.0028386373887713348,-0.004214953382745293,-0.0066890974820285635,-0.010166206689537771,-0.014452282583919325,-0.01923852383263207,-0.024261997923854525,-0.02886357025850868,-0.032534672928080446,-0.03486720687189668,-0.0356384102764928,-0.03501571922922818,-0.03308803610478269,-0.030197802196644058,-0.02676168597313808,-0.023189766914723426,-0.019915301639791605,-0.017050490077703685,-0.014631335438229557,-0.012576678542478131,-0.010741123552954049,-0.009015569311793849,-0.007237045489775191,-0.005335633580964751,-0.0033003328828936666,-0.001166283337847122,0.0009786604093647067,0.0030883716790955115,0.005086238232689318,0.006889661697350324,0.008408556877259808,0.009542352088415104,0.010217368629537845,0.010376900923297294,0.010027358009810236,0.009271493224297777,0.008330511410669535,0.007533652567750576,0.0072925590858991755,0.008037019537198216,0.010134429571335755,0.013816783380319416,0.019077628141791186,0.025694105872339088,0.0332311870495377,0.041117634774350306,0.048773149106248165,0.055729516931107226,0.06178852855326818,0.0670888062168346,0.07210083997736486,0.07753036326661478,0.08413386075311333,0.09250259560896987,0.10284554361253821,0.11484178533126527,0.12761633869318326,0.13980263389040634,0.14981472153142872,0.15612731830973053,0.1575827306851657,0.15365461966656113,0.1445027956456352,0.13103972949761664,0.11472399268692811,0.09728096871088249,0.08039769695003642,0.06539366180752827,0.05308960063880974,0.04371781936102109,0.03697920673659927,0.03220612029077467,0.028552937454815002,0.025236882445034695,0.021694495358083512,0.01767111627340871,0.013225655255780453,0.008658527009015898,0.00439732399032336,0.0008642574059381096,-0.0016369741897818508,-0.002995880005613012,-0.0032944873372515093,-0.0027928909296092656,-0.0018470069197422693,-0.0008184870948909254,1.3925728417782607e-06,0.0004620457847660077,0.0005425510832429579,0.00033613441749165743,6.245163261016269e-20,-0.0003094680468018412,-0.0004675266814018677,-0.00043550845542734176,-0.0002505836982642718,-1.0239080027912092e-19,0.0001962775894309257,0.0003037042636600213,0.0002901658125775831,0.00017113766106628862,1.1287272875428558e-19,-0.00019218231958145778,-0.0002808040429185415,-0.00025330171492631394,-0.0001410555199648217,-1.443454714693156e-19,5.509342040043745e-05,9.804199473969547e-05,0.0001046652139250861,6.749545447134978e-05,8.367101798453515e-20,-0.00015069907849084096,-0.00020514359500949905,-0.00017061297526048573,-8.649376800425729e-05,-1.3067897568040683e-19,5.092491374140387e-06,1.1085829988970474e-05,1.3351162205641583e-05,9.324753503818516e-06,1.4842836786207908e-20,-2.9613357339980545e-05,-3.940828409850309e-05,-3.1851622417628394e-05,-1.5561217972323827e-05,-2.563919042882995e-20,-2.8519698922500225e-07,-5.814581623769198e-07,-6.761690543676811e-07,-4.621874343151233e-07,-6.912731046430077e-22,1.3544320022495136e-06,1.810554200014803e-06,1.4718851619655929e-06,7.24662843766186e-07,1.1712989544318022e-21,0.0,0.0,0.0,0.0,0.0,0.0,0.0,0.0,0.0,0.0,0.0,0.0,0.0,0.0,0.0,0.0,0.0,0.0,0.0,0.0,0.0,0.0,0.0,0.0,0.0,0.0,0.0,0.0,0.0,0.0,0.0,0.0,0.0,0.0,0.0,0.0,0.0,0.0,0.0,0.0,0.0,0.0,0.0,0.0,0.0,0.0,0.0,0.0,0.0,0.0,0.0,0.0,0.0,0.0,0.0,0.0,0.0,0.0,0.0,0.0,0.0,0.0,0.0,0.0,0.0,0.0,0.0,0.0,0.0,0.0,0.0,0.0,0.0,0.0,0.0,0.0,0.0,0.0,0.0,0.0,0.0,0.0,0.0,0.0,0.0,0.0,0.0,0.0,0.0,0.0,0.0,0.0,0.0,0.0
0.829947066962181,0.9013761544356272,0.9101332408419575,0.8675466309569021,0.7942744282632458,0.7139629124793291,0.6461145018106655,0.6029198221051566,0.586113287122206,0.5885690754101036,0.597978757996477,0.6009251593674824,0.588827170560483,0.5589262997597086,0.5146657726893101,0.4637219757080894,0.41448255270473716,0.37456990701791726,0.34779463905097224,0.33391678033282796,0.32946519341970176,0.32902560942582115,0.3281870020902702,0.32404827035158806,0.3159409259095603,0.3051043609322067,0.2935709486729022,0.2839642088815628,0.2781669985045147,0.2771019559395499,0.2807435284447117,0.28823773548113746,0.29865780009771403,0.31095262342313607,0.3241643256357692,0.3374741499862878,0.35015328268124796,0.36189189506458264,0.3727280209622723,0.3831783616882838,0.3942047715278638,0.40698838280997696,0.4226596344790551,0.44183809790519823,0.46432970779736893,0.48902735029148814,0.5140806152852886,0.5374070996201616,0.5572325778558871,0.5726359055905824,0.5838499290551125,0.5917760821075188,0.5992740584775793,0.608351064301944,0.6203189571372665,0.6353558790680978,0.6519438399417897,0.6684774564501411,0.6818381365503023,0.688802099244172,0.6868618290810832,0.6745423427734405,0.6529373049212246,0.623990183678986,0.5906114299688056,0.556028949265317,0.5228031539411068,0.49325015210731277,0.4678477027889228,0.44574940611997327,0.4251960694495509,0.4039019570620526,0.38046538419581954,0.35389498344129205,0.32419934143894585,0.2923721730409074,0.25991859409495915,0.2291069668231042,0.20160060988893796,0.1783765989884363,0.1595482766322639,0.14424132580906532,0.13146582975859203,0.11970832123708064,0.10763301684198301,0.0944480761781845,0.07988709274035968,0.06496765836119872,0.05080336832946473,0.03860682062005407,0.029347875724105098,0.023224427274291606,0.02047422636163739,0.020291552052559517,0.02147352186948024,0.022782080656165986,0.02294006332509022,0.022082582708882914,0.020321980344394367,0.018146237028766176,0.016216285588226867,0.014687957422953715,0.014539848128230205,0.015677239687972973,0.017626561653543843,0.019752469539498357,0.021107013082722413,0.022057529140689498,0.02257288550289544,0.022855644879699807,0.023288653490769848,0.02395848313455254,0.025865187952277244,0.029032307085672948,0.03316051103484286,0.0377569172833992,0.04199824142896384,0.04594636350186295,0.04917317590451645,0.05133475345817597,0.05222518107602856,0.051574372230776044,0.049874652942230036,0.047255898528988115,0.043893145415774305,0.04004746365679396,0.035935012549687353,0.03228419237276881,0.029520503298887626,0.02798059078784413,0.02786974623755935,0.029144757395658135,0.03181181742372043,0.03552703894926192,0.03980916230665159,0.044148280024299595,0.04808025665738719,0.05148416996939129,0.054411767698924265,0.05719922816819733,0.06042681381103983,0.06479044606652756,0.07098792201015972,0.07944595869991583,0.09017277397890472,0.1026516060666252,0.11582376175677053,0.12824385846899142,0.13823493686666685,0.14419200968889503,0.14487639832221055,0.13964996173341782,0.12864508142516384,0.1127257772732835,0.09337136677970626,0.07243819916110528,0.05185263739324572,0.03335410219275052,0.01820528006269828,0.007071674360453684,-7.450434028139402e-20,-0.003507233231144165,-0.004279416527823364,-0.0033327706039182597,-0.0016462093274020205,1.834542627785061e-20,0.0010980930917225719,0.001504441162150292,0.0012920445333630733,0.0006943173405180559,1.0904435718345826e-20,-0.0005683001518289547,-0.000814552591204205,-0.0007261689116584346,-0.00040239300895704,-7.214311931007352e-20,0.0003077859633788486,0.0004595055507976716,0.0004256678917604179,0.0002445134733378947,7.006850626772512e-20,-0.00022714903424152656,-0.0003385825983187171,-0.0003123939701983685,-0.00017836896140918873,-1.0412967887257161e-19,0.00013001512477734767,0.0002028316843130922,0.000195192823461384,0.00011583427268952427,9.393044136157486e-20,-0.00013701534797515855,-0.0001988881470667142,-0.00017807944585676577,-9.833953243304256e-05,-1.1584664273939916e-19,2.5240662234731295e-05,5.146053301637287e-05,5.984268894720891e-05,4.0904768842007014e-05,6.1179435987954e-20,-0.00011987069282039164,-0.00016023867273084607,-0.00013026559755221063,-6.413451321231075e-05,-1.0366295017715857e-19,0.0,0.0,0.0,0.0,0.0,0.0,0.0,0.0,0.0,0.0,0.0,0.0,0.0,0.0,0.0,0.0,0.0,0.0,0.0,0.0,0.0,0.0,0.0,0.0,0.0,0.0,0.0,0.0,0.0,0.0,0.0,0.0,0.0,0.0,0.0,0.0,0.0,0.0,0.0,0.0,0.0,0.0,0.0,0.0,0.0,0.0,0.0,0.0,0.0,0.0,0.0,0.0,0.0,0.0,0.0,0.0,0.0,0.0,0.0,0.0,0.0,0.0,0.0,0.0,0.0,0.0,0.0,0.0,0.0,0.0,0.0,0.0,0.0,0.0,0.0,0.0,0.0,0.0,0.0,0.0,0.0,0.0,0.0,0.0,0.0,0.0,0.0,0.0,0.0,0.0,0.0,0.0,0.0,0.0
0.6868618290810832,0.7416620438858793,0.7428622550562887,0.7001781799925787,0.631195189587421,0.556028949265317,0.4917711299765231,0.44851792540309005,0.42773180021786017,0.42339702655496436,0.4251960694495509,0.4224559413513566,0.4077551301980714,0.3787522733016361,0.3382143211713535,0.2923721730409074,0.24837575469929613,0.21197590930706378,0.18588442970728122,0.1694666015506592,0.1595482766322639,0.1518729801980824,0.14272422848335245,0.12996200592542856,0.11339728607555556,0.09444807617818451,0.07531304178744998,0.058214012118780904,0.04465254026427964,0.035152321875840706,0.029347875724105094,0.026258090331147597,0.02483551136070038,0.02415159005016414,0.02357599187540708,0.02278208065616599,0.021582058741797666,0.020111832722182296,0.01856191628538389,0.01717933510092904,0.016216285588226867,0.015739343988238393,0.015945302487292687,0.016819800024972017,0.018189085853379163,0.019752469539498357,0.02108380347000837,0.022010387376953936,0.022514896795261793,0.022812264923779427,0.023288653490769848,0.023973286144592352,0.025886844398466113,0.029050930116885712,0.033169645367759286,0.0377569172833992,0.04185804801783232,0.045669451219360994,0.04883984616478181,0.051089656253658966,0.05222518107602856,0.05168300838077944,0.05004289645417183,0.047413234911754476,0.04398136483024366,0.04004746365679396,0.035647013867432825,0.031752616237901536,0.02891604203310457,0.027557060489421626,0.027869746237559355,0.029462389160751883,0.032343062184163385,0.03607474748354605,0.04015742092355357,0.044148280024299595,0.04757360734477979,0.05059076214746438,0.05343562449882116,0.056538052621485736,0.06042681381103982,0.06553745105207485,0.0723168794075605,0.08091795463711787,0.09118953450934604,0.1026516060666252,0.1143801463689896,0.12550436710354032,0.13496497047163453,0.14172289061787444,0.14487639832221055,0.14357028706020597,0.13773148198004836,0.12766346317419816,0.11419844774888838,0.09865282938159575,0.08273232784152412,0.06834284658981556,0.057402329190584876,0.05164603208376748,0.05242926044098093,0.06077551280751035,0.07653561041190941,0.09880035420333631,0.12583766844376118,0.15529747214485135,0.18464501153171017,0.21127220305205052,0.23308331162941548,0.24880164856370068,0.25816568384872174,0.26189442899380694,0.26156961075528556,0.25911016889079425,0.2563536761095167,0.2546225302791621,0.25440318240124193,0.2553292437906581,0.25620545782113174,0.255362257972606,0.2510793767096025,0.24199367395262217,0.2274781730300486,0.20773304423351488,0.1837995675933938,0.1574001478234189,0.13066202345654274,0.10592232402608963,0.08535713380991466,0.07082385885851543,0.06372091893723535,0.06485246917268045,0.07445637085670426,0.09195782711647911,0.11595039177060014,0.14416303319190907,0.17345216838890615,0.20016659040554113,0.2201865290935173,0.22946995278496862,0.2246051474465828,0.20330373638492383,0.16516863659340944,0.1116150902734552,0.04604632890918457,-0.026406126627570217,-0.09949653640782946,-0.1664691685868734,-0.2212236565290826,-0.259078699958584,-0.2774174007017232,-0.27603556777506316,-0.25697581663295727,-0.2242310911183989,-0.18297685335447889,-0.1387087003508616,-0.09648738726933212,-0.059977001470412725,-0.03147435907445871,-0.011698247414566976,3.74093072319287e-19,0.005089145215204587,0.005864918228472016,0.00431056548571292,0.002009540461515094,-4.673461753088137e-19,-0.00135044074446998,-0.0017310751177872993,-0.0013854153339963263,-0.0006914603604552018,2.5258571876826427e-19,0.00033325020864380817,0.0004711739486950167,0.0004211142664930032,0.00023738047115300174,-2.983662970632935e-19,-0.00028829122360763976,-0.00041226492676213044,-0.00036685235812274845,-0.00020313157734600006,7.597511160344261e-20,0.0001336742283931441,0.0002086400620440812,0.00020222999874243072,0.00012155467499426215,-5.494550231413283e-20,-0.000189670044028133,-0.0002675129330422859,-0.00023319598335071103,-0.00012572086715329747,-3.6153120627819333e-20,-1.921090434137216e-05,4.442440112203527e-06,3.5003350625610174e-05,3.765443549425852e-05,-2.167403193397848e-20,-4.833222657548499e-05,-9.853949624270006e-05,-0.0001145901155122195,-7.832673078479442e-05,-1.1714979323567078e-19,0.0002295350823713131,0.00030683393979756644,0.00024943982520478515,0.0001228083397756716,1.9849959358639567e-19,0.0,0.0,0.0,0.0,0.0,0.0,0.0,0.0,0.0,0.0,0.0,0.0,0.0,0.0,0.0,0.0,0.0,0.0,0.0,0.0,0.0,0.0,0.0,0.0,0.0,0.0,0.0,0.0,0.0,0.0,0.0,0.0,0.0,0.0,0.0,0.0,0.0,0.0,0.0,0.0,0.0,0.0,0.0,0.0,0.0,0.0,0.0,0.0,0.0,0.0,0.0,0.0,0.0,0.0,0.0,0.0,0.0,0.0,0.0,0.0,0.0,0.0,0.0,0.0,0.0,0.0,0.0,0.0,0.0,0.0,0.0,0.0,0.0,0.0,0.0,0.0,0.0,0.0,0.0,0.0,0.0,0.0,0.0,0.0,0.0,0.0,0.0,0.0,0.0,0.0,0.0,0.0,0.0,0.0
1.0006505165814363,1.0956337808250027,1.1200644163359734,1.0874064778064312,1.0215777164928301,0.949409329460901,0.8926894032792319,0.8636225572884481,0.8623077214430163,0.8788674870606705,0.8981681423403656,0.9051977243676562,0.8907973054699448,0.8533616443959626,0.7985984711400993,0.7367698875185175,0.6785030365739771,0.6322257723565893,0.6013312133597543,0.5841457707457036,0.5753716326966694,0.5681202897885401,0.5572446365421412,0.5401362654634362,0.517238394889372,0.4912657335450668,0.46548621268582563,0.4432427227883265,0.4262920417393087,0.4146981230126625,0.40715983439346437,0.40140573783432676,0.3958327916858846,0.3893470500611328,0.3816799816702028,0.3732098706587152,0.3643347286706774,0.3559983292183022,0.3488311101616985,0.34321336835716604,0.33925990692396607,0.33657465837107275,0.3351007633911601,0.3345369505297319,0.334506949825199,0.33459063126620103,0.3341423801507557,0.3331622439179499,0.33180599334047,0.3305208949782172,0.329921355608436,0.3298322597520795,0.33177198896410615,0.33568312326604777,0.3410342985215523,0.3470160129393175,0.35197729552916557,0.35642203296994684,0.35997340738193534,0.3624965308112239,0.364110670270199,0.36427084056475706,0.3645361677534365,0.3652548721878086,0.3665457772614976,0.3683155205078615,0.36956864657113053,0.3709632356013211,0.3721609222052014,0.37278626235962586,0.372520370745524,0.37054048342351004,0.3676540307758666,0.3640595965878786,0.36003550514333876,0.3558994443340247,0.3514166097545396,0.3474969534458491,0.3442520620985779,0.34159301784031004,0.33927851792252545,0.3365658868232963,0.33373544800054283,0.3306274138118395,0.3271965356875749,0.32353595052037737,0.31921317408297506,0.31522838894190053,0.3119374953185698,0.3095048604750344,0.30779338311822935,0.305490200203154,0.3028214615871496,0.29933806033986815,0.29477161956537457,0.289166219547674,0.28230264199061794,0.27571626555840995,0.27067353339700556,0.26854213668879523,0.2705390559771187,0.2770390643876507,0.2888085945055264,0.3054477770605277,0.32585890242613197,0.3483809802994681,0.37070011756088217,0.39120383994084085,0.4080757606928562,0.4199695329958754,0.4262229046218176,0.42675913416449585,0.4227503695745047,0.41549061518859737,0.40648982886368057,0.39721436858380826,0.3886430939743563,0.38178906123123624,0.37663184070346223,0.3724923718621444,0.3682058325457989,0.36218749127627625,0.3534702676391062,0.3410531721131423,0.3245680926549416,0.3045626181137021,0.2824834831615277,0.2613794779487634,0.24478350930230727,0.23667015758228657,0.2409194036816054,0.26046980415495663,0.29727978575967773,0.3508504300856333,0.4182359056514179,0.4941500825717731,0.5713392564862692,0.6421447999084362,0.6988385596405869,0.735162157513827,0.7473807614619408,0.734742789342381,0.7001263959103353,0.6486901465905396,0.5871595990418474,0.5225949049057256,0.4610167589075578,0.4070104520799826,0.3624591854411211,0.3268488538896037,0.29780904834951033,0.27184148969349736,0.24582856767653816,0.21719397637197552,0.18474738706673627,0.14890452417475517,0.11132176416361061,0.07506827235366778,0.04302891943296286,0.01755969833703701,9.558831808685403e-21,-0.00977746270024242,-0.012465945735657305,-0.01010888755791528,-0.00518080345029168,-4.248568956375242e-19,0.0035427917155502215,0.005023614914967025,0.004455482191224358,0.0024667784247313033,3.47312588603708e-19,-0.002216073993939159,-0.0032171552613224057,-0.0028980348730565687,-0.001619102600989509,-6.588341092258946e-19,0.0011786392804762,0.0017899195143196243,0.001683091183593311,0.0009793304858902608,5.158475027541768e-19,-0.000993162362000908,-0.0014671071706253667,-0.0013395507049814804,-0.0007558798265013336,-6.57762946741517e-19,0.0003758295161495251,0.0006382931557060015,0.000658645404704537,0.0004140563584128529,4.562395095334529e-19,-0.0007972579652202081,-0.0010980817722822853,-0.0009263819705178305,-0.0004780137506578359,-6.840279191652399e-19,5.188490110803897e-05,0.00010578267090185589,0.00012301309566246888,8.408416017288066e-05,1.2576092324997514e-19,-0.00024640712612445216,-0.0003293878588051978,-0.00026777497293537227,-0.0001318354029180005,-2.1309036460654088e-19,0.0,0.0,0.0,0.0,0.0,0.0,0.0,0.0,0.0,0.0,0.0,0.0,0.0,0.0,0.0,0.0,0.0,0.0,0.0,0.0,0.0,0.0,0.0,0.0,0.0,0.0,0.0,0.0,0.0,0.0,0.0,0.0,0.0,0.0,0.0,0.0,0.0,0.0,0.0,0.0,0.0,0.0,0.0,0.0,0.0,0.0,0.0,0.0,0.0,0.0,0.0,0.0,0.0,0.0,0.0,0.0,0.0,0.0,0.0,0.0,0.0,0.0,0.0,0.0,0.0,0.0,0.0,0.0,0.0,0.0,0.0,0.0,0.0,0.0,0.0,0.0,0.0,0.0,0.0,0.0,0.0,0.0,0.0,0.0,0.0,0.0,0.0,0.0,0.0,0.0,0.0,0.0,0.0,0.0
0.7473807614619408,0.8006970299187741,0.7907024332205999,0.727382153291537,0.6302288628329905,0.5225949049057256,0.42500406612186054,0.3522478486778357,0.30977076585700386,0.2945466901353625,0.29780904834951033,0.30816725851657234,0.31721316615719886,0.32023230194795216,0.3170005158370418,0.3105547832482551,0.30448466562473314,0.3025729180662778,0.30612730969457297,0.3140089953394588,0.3233005181469999,0.3300675825663074,0.33208496199631227,0.3285818107600809,0.32062282430338546,0.31055354248425826,0.30076664218781124,0.2937908424872849,0.29098659896703,0.2925684330971408,0.29780656682151657,0.3052734376712357,0.3137842105199493,0.3223384112652181,0.3303477286425445,0.3376224299502176,0.3442183053723892,0.35063526683929125,0.35761407950879887,0.3661586494840147,0.37743829307891846,0.3925783289487564,0.41235246291559374,0.43686399601535325,0.46533301585531134,0.49610435578053935,0.5269450498405711,0.5555041145610977,0.5799612791261246,0.5995410507180423,0.6147704184821603,0.6270099751573784,0.6393410240940722,0.6539794253245802,0.6722516049068442,0.6941252298533976,0.7178413263184322,0.7410630957363045,0.7602229533765414,0.771851144979246,0.7734800412246352,0.7641981163672362,0.7452962001081277,0.7193343282950008,0.689724884940969,0.6598748654951888,0.6322588166997136,0.6082551849543718,0.587317278606006,0.567527081531238,0.5462696897657423,0.52096739779817,0.49022165966180153,0.4536206511038447,0.41212538767674806,0.3678524440551137,0.3234899417381044,0.282005692887361,0.24541767775740825,0.21464622870227967,0.18943519834448508,0.16849397730708549,0.150230084682527,0.132696733500156,0.11433860540860868,0.09439144469990048,0.07295714319043779,0.05131398365715498,0.030909625677028523,0.013216389479521083,-0.0006523089446841439,-0.010337310809261042,-0.015832235213793035,-0.01818588729975273,-0.018887601057274394,-0.019439814229098032,-0.02116036856672168,-0.024138379279371014,-0.028338438940660106,-0.03327744952885438,-0.03822731951351192,-0.042749719836444974,-0.045837555912880225,-0.0475339412486963,-0.04830909537583846,-0.04882777973988118,-0.05002721457175202,-0.051618039004093015,-0.0537611779652004,-0.05642595489821691,-0.05942823996625044,-0.06292447321875919,-0.06599015896337229,-0.06868314651905714,-0.07125268706485899,-0.07396680470858367,-0.07729834824349291,-0.08054993143133106,-0.08358735817081868,-0.08627324908357067,-0.08850536945091692,-0.09054199939063799,-0.0919478574304022,-0.09298912621548382,-0.0940172509815517,-0.09530804035201004,-0.09713026949945391,-0.09898364921131404,-0.10060576930583934,-0.10171823832165265,-0.10211071125310316,-0.10180762860096693,-0.1007229769648197,-0.09912440363617187,-0.09736599212260226,-0.09576147676381216,-0.0945241457874221,-0.09352563604603296,-0.09255391758386242,-0.09129184841199527,-0.08941224227452117,-0.08667638973570364,-0.08300830649302449,-0.07851896054296799,-0.07347918443961832,-0.06824755507478283,-0.06316534431545892,-0.05850408565319191,-0.054353558897280926,-0.05062460602420134,-0.04708286787504452,-0.04340038298062989,-0.03932082062798304,-0.03464642767028099,-0.02933788507974497,-0.02354143393752226,-0.017544560730385884,-0.011811496140749151,-0.006769521782832241,-0.0027660234958969674,-3.28965083156925e-20,0.0015445728290048176,0.0019770952951092924,0.0016105384878942258,0.0008294400181906819,1.0081077828995041e-19,-0.000567967146342287,-0.0008109269323136189,-0.0007240511747759156,-0.00040341193810355665,-9.202772830855755e-20,0.00038057977660212704,0.0005503476260830514,0.0004933220985120502,0.00027400259321591505,1.4722655010370416e-19,-0.00017378492430907065,-0.00026973506173848987,-0.00025875934320522195,-0.00015330696264392575,-9.501515013753616e-20,0.00019272183481261257,0.0002765541372422303,0.00024479078577737496,0.0001336392319758655,1.353926944855115e-19,-5.440938435518944e-05,-9.070160894933838e-05,-9.22560372350934e-05,-5.7344835629942275e-05,-5.999092876477611e-20,0.00010225940792781205,0.0001418089707719698,0.00012061100421669049,6.284702705067214e-05,8.757400700313121e-20,-8.202873475867523e-06,-1.6723976471313227e-05,-1.944806365714899e-05,-1.3293496036284323e-05,-1.9882488346267645e-20,3.895635215613519e-05,5.2075399057613795e-05,4.233455545032128e-05,2.084284843339174e-05,3.3689055244688726e-20,0.0,0.0,0.0,0.0,0.0,0.0,0.0,0.0,0.0,0.0,0.0,0.0,0.0,0.0,0.0,0.0,0.0,0.0,0.0,0.0,0.0,0.0,0.0,0.0,0.0,0.0,0.0,0.0,0.0,0.0,0.0,0.0,0.0,0.0,0.0,0.0,0.0,0.0,0.0,0.0,0.0,0.0,0.0,0.0,0.0,0.0,0.0,0.0,0.0,0.0,0.0,0.0,0.0,0.0,0.0,0.0,0.0,0.0,0.0,0.0,0.0,0.0,0.0,0.0,0.0,0.0,0.0,0.0,0.0,0.0,0.0,0.0,0.0,0.0,0.0,0.0,0.0,0.0,0.0,0.0,0.0,0.0,0.0,0.0,0.0,0.0,0.0,0.0,0.0,0.0,0.0,0.0,0.0,0.0
0.7734800412246352,0.838264755955338,0.8446346235235558,0.8035849924074593,0.7346488646428658,0.6598748654951888,0.597736129542805,0.5584751596334689,0.5426638615830957,0.5426422603505967,0.5462696897657423,0.5416044619047536,0.5205828707582897,0.4812816729185366,0.42772408668509415,0.3678524440551137,0.31062409887906534,0.26291426073689605,0.22790641979418577,0.2047207329858473,0.18943519834448508,0.1769834703139773,0.1627528825022283,0.14410072085016415,0.12074868013604903,0.09439144469990049,0.06785307650570332,0.04378573174627991,0.02406077550206836,0.009374140058646665,-0.0006523089446841487,-0.007001736903469827,-0.011033415867091159,-0.013935323428394522,-0.016570526898396897,-0.01943981422909803,-0.02268218675348394,-0.02634248528072136,-0.030302819083088683,-0.034354226683742835,-0.03822731951351192,-0.04160108178124445,-0.044302099388162756,-0.04628569600116026,-0.047694538633117366,-0.04882777973988118,-0.05004081289498378,-0.05164565897987156,-0.053795153077146884,-0.0564513708614065,-0.05942823996625044,-0.06291580025562946,-0.06597747062776947,-0.06867223543660582,-0.07124733533352964,-0.07396680470858367,-0.07737283397729695,-0.08069662896614782,-0.08376353388719686,-0.0864025467293165,-0.08850536945091692,-0.09048323105707061,-0.09185642527600132,-0.09290308431159137,-0.09396857562678564,-0.09530804035201004,-0.09721743141422208,-0.09913199208382201,-0.1007616923996572,-0.1018194974491739,-0.10211071125310316,-0.10167989590697223,-0.10050018189939303,-0.09888374613948542,-0.09720494973627541,-0.09576147676381216,-0.09472340736222125,-0.09388042016039856,-0.09294578106308087,-0.09156046769287457,-0.08941224227452117,-0.08637440189730684,-0.08246429932934463,-0.07790752850465953,-0.0730496614984544,-0.06824755507478283,-0.0636533994980863,-0.059437311281593914,-0.05549246969942607,-0.05151774529432326,-0.04708286787504453,-0.04150077166974128,-0.034672984466897504,-0.026607629052384965,-0.01760327475435452,-0.008182495400665745,0.0012002071887645775,0.009882106484146216,0.01757094305838664,0.024353002261778597,0.030717877073713044,0.03752398757554329,0.04559199636056305,0.05565451152887605,0.06801375551684158,0.08234429545987809,0.09768663372253637,0.1123661879711845,0.12447787965951476,0.13216226117737037,0.13397071384604317,0.12920797321431318,0.11791779495889984,0.10110079103088287,0.08045029686683766,0.05805014042329299,0.03608264089534915,0.01633795209302595,0.0002532264837823131,-0.011272291012262313,-0.017870432999457175,-0.019569376522120242,-0.01688574347691893,-0.010470504084006156,-0.0011710707901223633,0.009945284032525913,0.02159604369257971,0.032072337589523596,0.039530079492418255,0.04203034338863264,0.03776100106450899,0.025379911677153876,0.004158777384549028,-0.02551533322542381,-0.06208652610010139,-0.10288300171352327,-0.14433866087444394,-0.18256528002598582,-0.2137298067515185,-0.2346976047973698,-0.2435270044915555,-0.23974915993481918,-0.22450967864893132,-0.20022872645035827,-0.17020912878928532,-0.13807323924256606,-0.10717943475753142,-0.08015558947878847,-0.05857828096070351,-0.042905984402611855,-0.03261947399357663,-0.026536649565709322,-0.023125869477598593,-0.020945411916809382,-0.018885680001773753,-0.016309736996788313,-0.01310292231825294,-0.009409569383036371,-0.005681511447536368,-0.002416634126345446,1.40007549457769e-19,0.001322841210790689,0.001731786498189906,0.0014428929901698206,0.0007605743684550525,-1.1972277437218208e-19,-0.0006136495765732249,-0.0008792540463476513,-0.0007862808649885132,-0.0004382095441120223,-3.1479143368178177e-20,0.00037285606473738133,0.0005510274407403777,0.0005054756002069412,0.00028765352987800206,8.409176608835708e-20,-0.000251256052009267,-0.00037565211573564793,-0.0003478141841440906,-0.0001993749320114983,-1.0575309588557269e-19,0.00015280772757412863,0.00023709977498566272,0.0002271301525870428,0.00013428039390974875,1.071691810365824e-19,-6.933082600743139e-05,-0.00012733719986545951,-0.00013891992654084057,-9.099719648843958e-05,-1.1824175843940208e-19,0.00022108666171317663,0.0002990823319509665,0.00024682931711926564,0.00012392424745359673,1.9059844247329756e-19,-5.683031431491937e-06,-1.158653540440635e-05,-1.347380980218581e-05,-9.209864815161923e-06,-1.3774783500017513e-20,2.698934396719696e-05,3.607834870579985e-05,2.9329796439042358e-05,1.4440130414941049e-05,2.3340108855279686e-20,0.0,0.0,0.0,0.0,0.0,0.0,0.0,0.0,0.0,0.0,0.0,0.0,0.0,0.0,0.0,0.0,0.0,0.0,0.0,0.0,0.0,0.0,0.0,0.0,0.0,0.0,0.0,0.0,0.0,0.0,0.0,0.0,0.0,0.0,0.0,0.0,0.0,0.0,0.0,0.0,0.0,0.0,0.0,0.0,0.0,0.0,0.0,0.0,0.0,0.0,0.0,0.0,0.0,0.0,0.0,0.0,0.0,0.0,0.0,0.0,0.0,0.0,0.0,0.0,0.0,0.0,0.0,0.0,0.0,0.0,0.0,0.0,0.0,0.0,0.0,0.0,0.0,0.0,0.0,0.0,0.0,0.0,0.0,0.0,0.0,0.0,0.0,0.0,0.0,0.0,0.0,0.0,0.0,0.0
0.7729843454993893,0.8442069399256977,0.8606804732229825,0.833320620610494,0.7810406167553858,0.7247561722252287,0.6812797620022605,0.6592741390644825,0.657747819305709,0.667797206222109,0.6765279989510681,0.6716707203657767,0.6457273400628846,0.5977922068152188,0.5332645274384983,0.4615826696716935,0.39293087992520603,0.3353775737941111,0.29281054711537513,0.2645977781581564,0.2466373403923189,0.23322002539618616,0.21918218908191994,0.20127446837077173,0.17875253236867264,0.15304330711297573,0.1267412471481654,0.10271904042678724,0.08308046431425051,0.06874492489128291,0.05944927383363255,0.05398499740240436,0.05095793734278378,0.04899679767851059,0.04707877147001261,0.04463069703405907,0.04140609346812481,0.037715685341252234,0.03409255318412041,0.031226144143523635,0.029812120234485574,0.030276134593584206,0.03294953460399317,0.03771961866729551,0.04407467168718062,0.051193011771235544,0.05794667812535419,0.06367303431016064,0.06795734034748703,0.07080592845709412,0.07257390330798551,0.07313882970851733,0.07397726041064394,0.07543020556108511,0.07752681648617683,0.08006357153158121,0.08208708563918864,0.08416583787164598,0.0859901867232652,0.08722523415937948,0.08755323975517691,0.08609923036974837,0.08354085441342449,0.07983036304975696,0.07504366645139159,0.06946891523511771,0.06324200700606823,0.05764266599592736,0.05343056783138053,0.051221328892514816,0.05138459071505853,0.05380613970267993,0.058513548711143296,0.06498264962215661,0.07251210675567013,0.08037412142094567,0.08781050234036929,0.09458112498754798,0.10045964066386782,0.10537699125158875,0.1093636521268328,0.11238859890369961,0.11461325149107032,0.11608003491954859,0.11682999635266775,0.11696672457806757,0.11676500983129884,0.11667466687106029,0.11735441979940955,0.11966366353517255,0.12456979702930236,0.13312771768035433,0.1458182084458069,0.16262713110016305,0.18285523967620274,0.20514278547699,0.2277142079866092,0.24854835231046798,0.26583128466420936,0.27834036172801074,0.2857157739246777,0.28849815997764555,0.2881001542648932,0.286262205963429,0.28464655207865347,0.28437954683369204,0.28568539844156826,0.28793267889795787,0.28957735656383476,0.2886073657838269,0.2830433197427064,0.27139110191469035,0.25318663832288885,0.2289315494546788,0.2001073962491053,0.16890940938804497,0.13781496393928847,0.10929394711017103,0.08526698189135996,0.06694645097845867,0.05477549903338354,0.04847919767471907,0.04733214342170646,0.050219012064562786,0.055853041316803874,0.06288909994510715,0.06992713619748912,0.07566794652020614,0.07869491467749315,0.07758224030902991,0.07100270085683076,0.0578532106800354,0.03770256006360295,0.010740940839507782,-0.021941844567651688,-0.05830420360935944,-0.09554142805891595,-0.13017342269329107,-0.15881533845254336,-0.17859213183490083,-0.18761110807554962,-0.18535206867673518,-0.1725246058649649,-0.15124067638259905,-0.12451340330711914,-0.09571973912307476,-0.06814208309038874,-0.044090504910614364,-0.025138961139043625,-0.011840773302699236,-0.003828370170599871,-0.00021759522376931515,0.00062031163166933,-7.18671034241245e-06,-0.0010715015003761156,-0.001914185085299936,-0.002382316206124946,-0.0021879038159644806,-0.0015334145113026763,-0.0007151889664447096,2.101635780249462e-19,0.00030400032570350693,0.0004267899848951691,0.0003836027670063507,0.00021911557468803778,-2.6043768161930655e-19,-0.0002850259154941816,-0.0004101448795289445,-0.00036724386692887966,-0.00020452697194578326,1.9085238994409447e-20,0.0001409057452646949,0.00021845240772240055,0.00021007512676517114,0.00012516307503269205,-5.019754048922838e-21,-0.00014905085105766736,-0.0002195281587619517,-0.00020018656771235346,-0.00011302632475909242,-5.939601285315097e-20,5.8372674312611976e-05,9.91516852928683e-05,0.00010263556318131862,6.487311991214074e-05,4.4647619564734983e-20,-3.584345572070811e-05,-7.143269153591243e-05,-8.199311895158713e-05,-5.5580684806735617e-05,-8.103357145836388e-20,0.0001575288433612554,0.00021099438084178976,0.00017196052289331253,8.494425900917262e-05,1.3615949694142283e-19,-6.669864760906183e-07,-1.3598486147128956e-06,-1.5813477415724705e-06,-1.0809117198078153e-06,-1.6166713868017247e-21,3.1675924445753802e-06,4.23431947483222e-06,3.442278616114629e-06,1.6947595338606112e-06,2.7393015760371306e-21,0.0,0.0,0.0,0.0,0.0,0.0,0.0,0.0,0.0,0.0,0.0,0.0,0.0,0.0,0.0,0.0,0.0,0.0,0.0,0.0,0.0,0.0,0.0,0.0,0.0,0.0,0.0,0.0,0.0,0.0,0.0,0.0,0.0,0.0,0.0,0.0,0.0,0.0,0.0,0.0,0.0,0.0,0.0,0.0,0.0,0.0,0.0,0.0,0.0,0.0,0.0,0.0,0.0,0.0,0.0,0.0,0.0,0.0,0.0,0.0,0.0,0.0,0.0,0.0,0.0,0.0,0.0,0.0,0.0,0.0,0.0,0.0,0.0,0.0,0.0,0.0,0.0,0.0,0.0,0.0,0.0,0.0,0.0,0.0,0.0,0.0,0.0,0.0,0.0,0.0,0.0,0.0,0.0,0.0
0.7814326101964585,0.8570776958553765,0.8787462224513665,0.8570338505392854,0.8104717961692035,0.7596285737569555,0.7210812945820246,0.7035979404653875,0.7066136260332796,0.7219882027544899,0.7378245373174525,0.7428624581231362,0.7304484848603975,0.7000316021634663,0.6566811561717177,0.6087311391561654,0.5645599247105829,0.5299714419795678,0.506503826355587,0.49151889525298326,0.4796377409948783,0.4648788496855941,0.4427818319965341,0.4116721838254819,0.372902933495717,0.3300970999391784,0.28775250951759906,0.2499789246296266,0.21935839249222203,0.19656274135958327,0.1805564588834785,0.1691410104552614,0.1599624832376786,0.1509943225716734,0.14098236274263035,0.12955540750701067,0.11706142450802703,0.1044882883985835,0.0930762069991312,0.0840841082016427,0.07855435613054287,0.07709242985110129,0.07979791519590512,0.0861559118471816,0.09510688132829423,0.10522368078970355,0.11492118769592405,0.12294802511375942,0.12849718480689873,0.1313619075215247,0.1318930054488642,0.13031390280417665,0.1283154549807584,0.12656557764368337,0.1253840465218343,0.12477026901784904,0.12392189485222396,0.12332967247540316,0.12249120892285678,0.12079890578944569,0.11764753258683387,0.11190386403882072,0.10415634863860625,0.09433832852800418,0.08264790730688892,0.06963981509247509,0.055743644903192065,0.04287219546079582,0.03226699010590158,0.024962489761891343,0.021632097598116313,0.022132208375418207,0.02672402985032779,0.03465135477414302,0.044797700292996116,0.05589975386108212,0.06649763580864623,0.0759315070152273,0.08338466162049707,0.08825505671697706,0.09016741012404791,0.08884055437048347,0.08456834593444539,0.07767190552204306,0.06871319368564949,0.058509138983371956,0.04806720618234567,0.038657933709591204,0.031412921772027196,0.02727353180831643,0.026850867842695973,0.030382909166596504,0.03753090543842699,0.047451988152482825,0.058965161687022156,0.07079583767206347,0.08181684970315142,0.09147534540540404,0.09971595335150132,0.10710981558087274,0.11474080750143095,0.12379823813504424,0.13571872583401437,0.1512926584720111,0.17053508357453517,0.19254466841703377,0.21545542454041464,0.23705776596669237,0.2547980641647097,0.26640577064524346,0.2703485293326366,0.26607955726405647,0.254358366273261,0.23679810186425876,0.2156399075786,0.1933139001843563,0.17195692760074333,0.15319724787554667,0.13778933594060766,0.12569546681274923,0.11627927103607602,0.10859191007081606,0.10172619597002623,0.09500187115395127,0.08810130291833974,0.08104156950244552,0.07399672058926067,0.06719520439579366,0.060572018684128655,0.05370104889202339,0.04580386796881505,0.03584655849225665,0.022968408781860176,0.006550130924850579,-0.013417059147983173,-0.03614020066004086,-0.060024146955582246,-0.08271230469332301,-0.10156283448217238,-0.11402400115726596,-0.11808426928889675,-0.1126685268021037,-0.0978204057708234,-0.07481000097135684,-0.045938900061450065,-0.014196465213801124,0.017150500533020294,0.045161292837229444,0.0674357712801502,0.08245396515258002,0.08969133886129449,0.0895107809374103,0.08320575528742875,0.07243674786037638,0.05905438267804447,0.044845669430647245,0.031234248700246468,0.019528907607558432,0.010367843787301333,0.003924514648682972,1.4687463156275865e-19,-0.0019960444183076487,-0.0023868458525572577,-0.001813641864851048,-0.0008694330060782878,-2.2626196285908887e-19,0.0004463478519802031,0.0005955770266028578,0.0004998107702683403,0.0002632399193842937,2.37361268567205e-20,-0.0002583423091126599,-0.0003519553631547421,-0.0002964340214960913,-0.0001542353149570114,-6.118472347167611e-20,6.727663908305775e-05,9.99560955448806e-05,9.261044362634282e-05,5.34244926647477e-05,-1.7991771183487002e-20,-7.085223319861606e-05,-9.945847929832777e-05,-8.625472660371515e-05,-4.622880797525413e-05,-6.962899791262676e-21,5.340044039170444e-05,7.033892533714434e-05,5.661334148980243e-05,2.7809167281993654e-05,-7.511765471131216e-21,4.3830898038800243e-05,4.88525403594159e-05,2.956528656038426e-05,7.953790418002341e-06,3.9540658866171633e-20,1.5626208380359032e-05,3.1858633691936116e-05,3.704793158094616e-05,2.5323679534687324e-05,3.787549654799237e-20,-7.421058953564301e-05,-9.92019491168083e-05,-8.064595743220616e-05,-3.9704951419596845e-05,-6.417655946293373e-20,0.0,0.0,0.0,0.0,0.0,0.0,0.0,0.0,0.0,0.0,0.0,0.0,0.0,0.0,0.0,0.0,0.0,0.0,0.0,0.0,0.0,0.0,0.0,0.0,0.0,0.0,0.0,0.0,0.0,0.0,0.0,0.0,0.0,0.0,0.0,0.0,0.0,0.0,0.0,0.0,0.0,0.0,0.0,0.0,0.0,0.0,0.0,0.0,0.0,0.0,0.0,0.0,0.0,0.0,0.0,0.0,0.0,0.0,0.0,0.0,0.0,0.0,0.0,0.0,0.0,0.0,0.0,0.0,0.0,0.0,0.0,0.0,0.0,0.0,0.0,0.0,0.0,0.0,0.0,0.0,0.0,0.0,0.0,0.0,0.0,0.0,0.0,0.0,0.0,0.0,0.0,0.0,0.0,0.0
0.5998723003085886,0.6586996489359389,0.6766024666819728,0.6617398016930286,0.6282729415340793,0.5918333878795909,0.5649615632048095,0.5540575838081427,0.5583733139520075,0.5713886170567792,0.5837944754505935,0.5869384219896162,0.575764650280222,0.5500297833304574,0.5138759304460536,0.47398097736149375,0.43706766082876297,0.40780523893898113,0.3875402837721672,0.3743530405313242,0.36416747927239407,0.3524036131521567,0.33561001020977976,0.31243631655068865,0.2838120583651152,0.25235894822413796,0.22133316117860471,0.19362814808900908,0.17095612064118523,0.15358705339435597,0.1405504171758818,0.1301182761233679,0.12052514223584052,0.11039208876268206,0.09902488047693625,0.08644747424681903,0.07321214411267427,0.06026999697087267,0.04862530742449625,0.03913469678282017,0.03234453131775627,0.028356492979580934,0.026932552454578495,0.027458010717367285,0.029090472151303576,0.030938141141400654,0.03223478989077473,0.03257477257547128,0.03194882685164328,0.030729279435978793,0.029531750965045036,0.0286958917454143,0.0292732290921338,0.03132802430834559,0.03451569951400318,0.03823965243492792,0.0415146377202697,0.04437909319698152,0.046397819650954894,0.047287777968523535,0.046947553904810806,0.04508134418912482,0.042443582529418884,0.03916531026084275,0.035343922820221294,0.03111952044835752,0.026455253382525398,0.02219570710233256,0.01871610395260896,0.016337482213986863,0.015291486991904234,0.015468444779041938,0.017175748717156172,0.020136524881264533,0.023899638724479044,0.02794784605118152,0.031700239750019205,0.03501762470206442,0.037650763476059765,0.03949402895377134,0.040604205110458806,0.041184870956608305,0.04159328088420347,0.042070516901473315,0.04277510813766582,0.043754739414964904,0.044773046391615445,0.04584432652810601,0.04675317360181488,0.047216713386610695,0.04690527371947101,0.045148785226100656,0.041992446703459085,0.03746963306075916,0.031831443922988714,0.025521030802924373,0.018937116949353697,0.012882591228959723,0.008038666560898265,0.004988917348092498,0.004136787886377728,0.005630974743396827,0.009407976148364963,0.015122801475680325,0.022224097708006617,0.03002441062775746,0.03776012353649292,0.04475201719242227,0.050378680434491216,0.05418010296737045,0.055912033369137186,0.05555395884752166,0.053404091265161505,0.0499239227355903,0.04571218671243972,0.041401028264943164,0.03750904690518721,0.034365521384803095,0.03191680674464483,0.029702453586477846,0.026890023160749146,0.022400674955899567,0.015164518963678823,0.004369076609453946,-0.010223288122818868,-0.028019571689076067,-0.047468065917777386,-0.06602744275474316,-0.08045828822075644,-0.08720240459385843,-0.08292916653890128,-0.06516483844024198,-0.03277667410163787,0.013515579219774811,0.0710297176646657,0.1352896397835182,0.20048642870559719,0.2603035143087891,0.30868384811305694,0.3407474994866392,0.35350844610593773,0.34627242381347706,0.32077911088177974,0.280752558787762,0.23131010662380144,0.17814498170855764,0.12666353912521983,0.08130520243115794,0.04498428930630932,0.01892593244919733,0.002781517311177504,-0.0050162208856625,-0.006745570318462607,-0.00487843883435237,-0.001621913443139921,0.0013907586555887523,0.0032165989921820806,0.0036266243844248454,0.002867293655932738,0.0014647708576623194,-7.224878920650108e-20,-0.001098235820027467,-0.0015439948295752825,-0.001355041855005506,-0.0007412933923329889,-1.7178920516571474e-20,0.0005722933108118747,0.000843083407082991,0.0007719966478156395,0.00043907497311095983,4.411827629250567e-20,-0.00039028607402644827,-0.0005827248969968764,-0.0005392154450769507,-0.00030912109850654286,-1.0917322146820783e-19,0.00028196874209473246,0.0004202732732137347,0.0003877136149032658,0.0002213514875757814,1.324839475234758e-19,-0.000146936447247971,-0.00023534904684574615,-0.00023191039327980043,-0.00014058636316574734,-1.18869398427425e-19,6.388303257264885e-05,0.0001290493912538919,0.0001492886488376507,0.00010170684006982476,1.505955385498057e-19,-0.00029416347678040824,-0.0003935287937122919,-0.00032023292302742846,-0.00015786711903325196,-2.5433882828749534e-19,4.846016312149449e-07,9.880033261809678e-07,1.1489343825615648e-06,7.853406349232373e-07,1.1745989150703606e-21,-2.3014266715908847e-06,-3.076461364877988e-06,-2.501000983172613e-06,-1.2313341635346003e-06,-1.990250267018773e-21,0.0,0.0,0.0,0.0,0.0,0.0,0.0,0.0,0.0,0.0,0.0,0.0,0.0,0.0,0.0,0.0,0.0,0.0,0.0,0.0,0.0,0.0,0.0,0.0,0.0,0.0,0.0,0.0,0.0,0.0,0.0,0.0,0.0,0.0,0.0,0.0,0.0,0.0,0.0,0.0,0.0,0.0,0.0,0.0,0.0,0.0,0.0,0.0,0.0,0.0,0.0,0.0,0.0,0.0,0.0,0.0,0.0,0.0,0.0,0.0,0.0,0.0,0.0,0.0,0.0,0.0,0.0,0.0,0.0,0.0,0.0,0.0,0.0,0.0,0.0,0.0,0.0,0.0,0.0,0.0,0.0,0.0,0.0,0.0,0.0,0.0,0.0,0.0,0.0,0.0,0.0,0.0,0.0,0.0
0.6136676813449595,0.6682389781243965,0.6779884856338514,0.6514796209318107,0.6038567606020625,0.5521178868542191,0.5102003045789373,0.48584580990353354,0.4791773472776732,0.48396104093094144,0.4905680923634786,0.4894578355977319,0.474597719091476,0.4447817297298492,0.4035140102234258,0.35733389918513003,0.3132867217457625,0.27698524419648024,0.2509411227139803,0.23438648323777864,0.22409970600678142,0.21576054211415083,0.20575628668812415,0.19201858782090173,0.17442386321029701,0.1544441154022171,0.13429238306402044,0.11624010542086582,0.10179991236821666,0.09146545000340245,0.0847885247976528,0.08068007247448535,0.07792467938798063,0.0754615106323508,0.07260744685137434,0.06910863030241178,0.06505638636449197,0.060871614370237526,0.057127414929898035,0.05445484788504164,0.05342873580717076,0.05442287223799056,0.05757985175333022,0.06268417401146356,0.06918177095820678,0.07627670755991156,0.08308259390854375,0.08891622482088712,0.09342112860563527,0.09667027388631044,0.09912467931265237,0.101131576095544,0.10399271130681606,0.10810056361954859,0.11343040811620324,0.1195863112402173,0.12559963101656238,0.1313002561626978,0.1359543645954251,0.13897075552358854,0.14004794316778224,0.1389274805157765,0.1364907523667576,0.13325532310881355,0.12974489095627037,0.12639332791120853,0.1231361492043983,0.12046469135693047,0.11816825502967304,0.11578999317306052,0.1127387126546348,0.1080938900621031,0.1018503780313285,0.0939510312462852,0.08466701351922752,0.07456805210162122,0.06414586750968246,0.05451842101692677,0.04643086314795527,0.04035401939606064,0.03639739154860765,0.03410695823619149,0.033176402550472675,0.03301935394433542,0.033087373813253516,0.03299065285740286,0.03240793494477665,0.031545862009241435,0.030629787884125355,0.029917071342612324,0.029583914166198082,0.02955253099990856,0.02979629278936333,0.03009567980195969,0.03022315463928621,0.03004542579280203,0.029124309601256185,0.02815823463590615,0.027726710837008013,0.028403228515040554,0.030506937419405966,0.033072163462045244,0.036358095611843985,0.03991486816457545,0.043274993079927236,0.0461063720016338,0.047880712334686944,0.04936046110417257,0.051388592624090484,0.05509990044371304,0.06170580658386164,0.07215971803577456,0.08718087542303572,0.10670571045589344,0.12995098544006867,0.1554802045472195,0.1813175061173335,0.2054581826843873,0.2258444674470781,0.24079202476538789,0.24925460251057735,0.25093163442811,0.2465254489215352,0.2373444846789536,0.22518792338147184,0.21204428933958333,0.19971168732843916,0.18962136056279782,0.18239792739282537,0.17781376342425245,0.1748339761685892,0.1718018517434477,0.16685579573855702,0.1582834227693963,0.14505331376266667,0.12728737036832952,0.10659866991650957,0.08629996836317348,0.07116874014376139,0.06699030960928733,0.07974076456806983,0.1145053132861036,0.17438091841034853,0.2593746241342314,0.365778388117763,0.48609138350460507,0.6096092337861799,0.723745456126593,0.8157017598877536,0.8744374095682177,0.8924420024411402,0.8669721084669726,0.8005870122629404,0.7006669116435735,0.5782400621230248,0.4462210012205701,0.3174059366450175,0.20273593585597305,0.10982364606632125,0.0423244145295011,-4.528936074655976e-19,-0.020612124392194266,-0.024946528408359606,-0.019274983740389995,-0.009448417123990978,2.032597127490901e-19,0.006243290966325553,0.008490624621405825,0.0072400155064770225,0.003864119097776085,-2.202676348006208e-20,-0.0031039294566395266,-0.004430271243766073,-0.0039348706464038714,-0.0021733189339600365,-2.853175107416072e-19,0.001655286267004551,0.0024655236268520987,0.002279745784265961,0.001307687236076183,2.9483782291338485e-19,-0.0012261739815300644,-0.0018225645556513778,-0.001677360394068501,-0.0009556224123474155,-4.971082128209444e-19,0.0007499380351767664,0.0011455546541050505,0.0010815764238488205,0.0006309595128942409,4.550990334102327e-19,-0.0006020117487962203,-0.0009016510410794982,-0.0008339813608034419,-0.0004762931553593838,-5.043337136310665e-19,0.00015548306976548212,0.0003169980870844132,0.0003686323636837808,0.00025197433286244385,3.7686675672236656e-19,-0.0007384062716462265,-0.0009870739721343784,-0.0008024391279394742,-0.0003950701015460545,-6.385661978516802e-19,0.0,0.0,0.0,0.0,0.0,0.0,0.0,0.0,0.0,0.0,0.0,0.0,0.0,0.0,0.0,0.0,0.0,0.0,0.0,0.0,0.0,0.0,0.0,0.0,0.0,0.0,0.0,0.0,0.0,0.0,0.0,0.0,0.0,0.0,0.0,0.0,0.0,0.0,0.0,0.0,0.0,0.0,0.0,0.0,0.0,0.0,0.0,0.0,0.0,0.0,0.0,0.0,0.0,0.0,0.0,0.0,0.0,0.0,0.0,0.0,0.0,0.0,0.0,0.0,0.0,0.0,0.0,0.0,0.0,0.0,0.0,0.0,0.0,0.0,0.0,0.0,0.0,0.0,0.0,0.0,0.0,0.0,0.0,0.0,0.0,0.0,0.0,0.0,0.0,0.0,0.0,0.0,0.0,0.0
0.8924420024411402,0.9634530029230769,0.9638853064194298,0.9060276475773521,0.8126689539368317,0.7102400544945907,0.6210793867345261,0.5596675388416694,0.5291569606987429,0.5228555237325772,0.5280381065480411,0.5303237388723765,0.5199316202975951,0.4929877718208566,0.45208415469564844,0.4043706503703329,0.35799983976702976,0.32053544350991664,0.295824181683627,0.2836854109364493,0.2807031941926246,0.2815205071307084,0.2817879808043961,0.2786832545126113,0.27162068220270774,0.26190312966949264,0.25158213629220366,0.24324259334033915,0.23867504446788035,0.23867820289031233,0.2431030651463606,0.2510005784809248,0.26141053050524726,0.2733096574754824,0.28582573488236884,0.2982689037105431,0.31008270013026223,0.32110137687502127,0.3315056150332859,0.341932781722143,0.3534347422747256,0.36728247401379316,0.38456593340259215,0.40581907281284063,0.43070240655987757,0.45792657841440704,0.4854967322504814,0.5111351521640699,0.5329451494101259,0.5499536380876102,0.5624184145540885,0.5713416590169161,0.5797279230930459,0.589675608190713,0.6025485974790864,0.6185365663509924,0.6361364938671165,0.6536761375174386,0.6679885156958244,0.675817759530441,0.6746547181478961,0.6631136363500383,0.6422596743126147,0.6140978429526148,0.5815859356447299,0.5479599115341368,0.5157974123812779,0.48725703641859497,0.46272859300686076,0.44131357826979134,0.42126510492037733,0.40044285976397,0.37751609349053417,0.3516500232134971,0.322975060435966,0.2925133167844272,0.26173374668261834,0.2325684971408161,0.20629436880876856,0.18345257648583574,0.1637615286484771,0.14616677423990201,0.1295233606931751,0.11245859671087494,0.09399256112740642,0.07385208788994521,0.05245558917790441,0.031298932101562524,0.011927759821236162,-0.004195660989260296,-0.0160573528685867,-0.023511772044411336,-0.026708392123903028,-0.02683691553708244,-0.02547322540274607,-0.024138129816210042,-0.02411585352925044,-0.025371851997763657,-0.027663974742320217,-0.030266148510523495,-0.03221890676383339,-0.032905061677658026,-0.03128771934078751,-0.02746094432619292,-0.022076491767836624,-0.016096473140081398,-0.010793498523560662,-0.0063009585978216955,-0.003028724409066013,-0.0010217211471912075,2.596048367059564e-05,0.000303017928817138,0.001032498181429661,0.0025518823558221895,0.004880284999375639,0.0077764450897720785,0.010554931942266357,0.013265177267327163,0.015349833997855607,0.016251959519393278,0.015526929695873562,0.012704946158406229,0.008163107159683946,0.002042752172089628,-0.005343152392617984,-0.01349490049419645,-0.021905473863588633,-0.02956221050437205,-0.03581717482755477,-0.04020948282493858,-0.042516730684266466,-0.04285460826697076,-0.04133054808197954,-0.03840932080352579,-0.03466529034511515,-0.030671515831040646,-0.026947271669004298,-0.023760351334023117,-0.021308506347204437,-0.01966839973784039,-0.01882630097781483,-0.018704120214421523,-0.019218168249719756,-0.020251423919506913,-0.021670218331873672,-0.023318503872732443,-0.024998566600321365,-0.026518430742850152,-0.027641329634097475,-0.02813528191693751,-0.027810706767650052,-0.026541495681343397,-0.024356438466806407,-0.021366228050310056,-0.017785291456132085,-0.013905353383825026,-0.010044695643152895,-0.0065296557790965,-0.0036054666179200726,-0.0014178239495047842,2.2462875010941012e-20,0.0007190988269278964,0.0008892681496445757,0.0007021562518681745,0.00035172460201713957,-5.8004744331889365e-21,-0.00024961815939786476,-0.0003449008266907549,-0.0002982572169538879,-0.0001611564656142457,-1.0338378073142086e-20,0.00011864363699611263,0.00017458252672794452,0.00015992564880823945,9.109063864591729e-05,1.6881619822152606e-20,-7.151859641021713e-05,-0.00011045611659563537,-0.00010555552426425138,-6.235794108966358e-05,-3.2558079451264406e-20,7.86963139763609e-05,0.00011268979387518994,9.955886975776388e-05,5.426416081278241e-05,5.020463794961339e-20,-2.6216958410582065e-05,-4.1502832639376673e-05,-4.0454580298599743e-05,-2.4276130543729007e-05,-2.1082769467905436e-20,3.228103373197244e-05,4.61718569778761e-05,4.068227900610392e-05,2.2076549792358622e-05,2.7408986181581597e-20,-4.8452381765470395e-06,-9.878446802924942e-06,-1.1487498956159355e-05,-7.8521453103322e-06,-1.1744103071137441e-20,2.3010571263986817e-05,3.075967370643706e-05,2.500599391889938e-05,1.2311364454731271e-05,1.9899306881129853e-20,0.0,0.0,0.0,0.0,0.0,0.0,0.0,0.0,0.0,0.0,0.0,0.0,0.0,0.0,0.0,0.0,0.0,0.0,0.0,0.0,0.0,0.0,0.0,0.0,0.0,0.0,0.0,0.0,0.0,0.0,0.0,0.0,0.0,0.0,0.0,0.0,0.0,0.0,0.0,0.0,0.0,0.0,0.0,0.0,0.0,0.0,0.0,0.0,0.0,0.0,0.0,0.0,0.0,0.0,0.0,0.0,0.0,0.0,0.0,0.0,0.0,0.0,0.0,0.0,0.0,0.0,0.0,0.0,0.0,0.0,0.0,0.0,0.0,0.0,0.0,0.0,0.0,0.0,0.0,0.0,0.0,0.0,0.0,0.0,0.0,0.0,0.0,0.0,0.0,0.0,0.0,0.0,0.0,0.0
0.6746547181478961,0.7285782911638192,0.7299815812636264,0.6884307437707372,0.621187297043871,0.5479599115341368,0.48548357678364895,0.4435618928279432,0.42354523027677526,0.4194825626638066,0.42126510492037733,0.41853942897724833,0.40413696435396185,0.3759016276024491,0.3366505413836076,0.2925133167844272,0.2504488985668465,0.21582430007291595,0.19093684678061312,0.1747480825543573,0.1637615286484771,0.153602697167009,0.14049550154714244,0.12245386471542166,0.09961285676069599,0.07385208788994523,0.04797782985125371,0.024691146501383536,0.005913182751727982,-0.007571695179415689,-0.016057352868586703,-0.020566600699966117,-0.022472038225883926,-0.023085281069691228,-0.023428530775351068,-0.02413812981621004,-0.025447797201889888,-0.027303650408032502,-0.02938819197563092,-0.031212745029981663,-0.03221890676383339,-0.031881507701967106,-0.029919470549743636,-0.026348630155538223,-0.02152885886080219,-0.016096473140081398,-0.010847011476461903,-0.006409650415024501,-0.003162425346631671,-0.0011217395993138842,2.596048367059569e-05,0.00033714830353803445,0.0010824300953823636,0.0025948203145225494,0.00490134545967557,0.007776445089772079,0.01041843193371814,0.013006001530853106,0.015047850189326011,0.016035871832014915,0.015526929695873562,0.012836322694401298,0.008376776682744511,0.002255679441666416,-0.005213241559535627,-0.01349490049419645,-0.02210530492142469,-0.029908071312415484,-0.03618737188362407,-0.04045461993965197,-0.042516730684266466,-0.04257296967794322,-0.0408399771000121,-0.0378797857784998,-0.03431088574316141,-0.030671515831040642,-0.02741127197126087,-0.024595358507382595,-0.02224139870355447,-0.02031579675398498,-0.018826300977814833,-0.017958895175977093,-0.017852747138866417,-0.01868740493104966,-0.02054805966035666,-0.02331850387273244,-0.02648448832731989,-0.029466341775162344,-0.03136550990520978,-0.031149998615260566,-0.02781070676765005,-0.02024194053230706,-0.008371595611023344,0.007448423914174896,0.0262394113260483,0.04653608049946546,0.06682433348727643,0.08534043267517377,0.10081426436557049,0.11261721523667956,0.12088286776658097,0.1264893191497279,0.13070464968400294,0.13492065947520235,0.1402392224269309,0.14714733994287796,0.15535809131339678,0.16378724579004642,0.17079520491708405,0.17454367030427734,0.17341181211917492,0.16635790810617268,0.1531881217879986,0.13457597993692766,0.1119600188254205,0.08729426987572239,0.06274260138740438,0.04035173675828763,0.021856844964881505,0.008537356702045975,0.0011767276322698984,0.00010340811464810648,0.0051409081215117464,0.01572885820289849,0.030852187922062343,0.04898170244081366,0.06804535559979427,0.08539095054982843,0.09800353555798141,0.10275138340224785,0.09678667724935743,0.07803443943629386,0.04562906553469092,0.00032761703139436616,-0.055353507240162546,-0.11726460039762002,-0.1800342530055543,-0.2377928596214947,-0.2849403906277115,-0.317003054761239,-0.33131587804459744,-0.3274000063954783,-0.3070366528649884,-0.2738367135204009,-0.23260728649290163,-0.1885275078976465,-0.14634825015355576,-0.10963464637282602,-0.08049523327179683,-0.05946686149732651,-0.04573913775069556,-0.03765580282535403,-0.03300845196688772,-0.029848229943759103,-0.026728975523273628,-0.02286956887534778,-0.018209913040316716,-0.012962456223310633,-0.007761187805308191,-0.0032750616477967313,2.0904015533986685e-19,0.0017695741318678603,0.0023000260638836294,0.0019034179439788015,0.0009970594974504179,-1.8688320825142558e-19,-0.0008019887058852225,-0.0011424729083092558,-0.0010161171161353517,-0.0005634595464262572,-1.0273461514855854e-20,0.00046301712112806355,0.0006859604137389292,0.0006312178159771282,0.0003605246474103806,7.339159752402646e-20,-0.000336296252294509,-0.000498452014495889,-0.0004576619888991463,-0.0002602610261177743,-1.2497808208021188e-19,0.0001718943188293121,0.0002747161579352988,0.0002703887425122408,0.00016386224638027374,1.1381439387908046e-19,-9.544608293200518e-05,-0.00017494431975979255,-0.000190597914258316,-0.00012472839757805498,-1.6150918565552997e-19,0.00030160331589587815,0.00040813856784211106,0.000336970879814495,0.0001692699855001905,2.5998909376933676e-19,-7.968766067096262e-06,-1.6246679484157572e-05,-1.889302208521835e-05,-1.2914103873315912e-05,-1.9315048431417907e-20,3.7844550214378554e-05,5.0589183675897455e-05,4.1126340657405705e-05,2.0248000146080152e-05,3.2727580287103594e-20,0.0,0.0,0.0,0.0,0.0,0.0,0.0,0.0,0.0,0.0,0.0,0.0,0.0,0.0,0.0,0.0,0.0,0.0,0.0,0.0,0.0,0.0,0.0,0.0,0.0,0.0,0.0,0.0,0.0,0.0,0.0,0.0,0.0,0.0,0.0,0.0,0.0,0.0,0.0,0.0,0.0,0.0,0.0,0.0,0.0,0.0,0.0,0.0,0.0,0.0,0.0,0.0,0.0,0.0,0.0,0.0,0.0,0.0,0.0,0.0,0.0,0.0,0.0,0.0,0.0,0.0,0.0,0.0,0.0,0.0,0.0,0.0,0.0,0.0,0.0,0.0,0.0,0.0,0.0,0.0,0.0,0.0,0.0,0.0,0.0,0.0,0.0,0.0,0.0,0.0,0.0,0.0,0.0,0.0
0.73993201775278,0.8106032510033738,0.8297288520869677,0.807415583164844,0.7613431449792681,0.7111512027659259,0.672688507250266,0.6543655202988242,0.6556699773296911,0.6688163545533755,0.682370387779072,0.685413345940282,0.6714597355391405,0.6398648812047214,0.5954391068426909,0.5462376988467368,0.5004472757877407,0.4639831348668864,0.438698871052076,0.4223972728204825,0.4101050099144015,0.39599802675022844,0.3756006878438336,0.3469304711183002,0.31087110354501757,0.27057611282252275,0.23018699604287604,0.19387414195635078,0.16460648709897585,0.14373658437358822,0.13104721573064404,0.12503076572265848,0.12388126322457677,0.12568904269173234,0.12884394070314845,0.13215477220653232,0.13466011294028854,0.13605242746297422,0.13621318336834873,0.13522115478150015,0.13326232868242058,0.13034443682084315,0.12680444659973525,0.12281658788894957,0.11848330936796805,0.11386124054316775,0.10892568418583214,0.10398324737526816,0.09948770895818129,0.09607777646120916,0.09446015240391495,0.09482918540773924,0.09820569664752768,0.10436054759799446,0.11256160160371084,0.1217662132954999,0.13051825687945218,0.13843884988596256,0.1445982676600416,0.14827755094726622,0.14907227418708485,0.1466668195913678,0.14187571372400473,0.1350276636775325,0.12655339695553347,0.11704709577575606,0.10678611954682475,0.09747409698300245,0.09018366806548611,0.08583371648078428,0.08502191736442728,0.08710853594977941,0.09262495221689376,0.10097304066130688,0.11121929270790473,0.12225015443356543,0.1324521861557247,0.14148914481080518,0.1489342076486472,0.1547913833810326,0.15947839150270354,0.16349342468063596,0.16795607755463912,0.17368644075938522,0.1811773674918724,0.1903970657735421,0.2004975833857155,0.21041641631289928,0.21843586134523585,0.22264733354158212,0.22131574004438062,0.2131212839215757,0.19792174976645444,0.17642053664767748,0.15029166889888695,0.12193386558746448,0.09388835006092011,0.06880273867119718,0.048398732702279644,0.03323456825212079,0.022551991130548347,0.014257041071852302,0.005916508724253408,-0.005076150752203638,-0.020572797951443917,-0.040973796932210024,-0.06489850802091225,-0.0886854965462813,-0.10719429343992373,-0.11441203756160256,-0.10449958499496839,-0.07303311548192383,-0.01777138992574321,0.06022325077073276,0.1565016170792274,0.263600955225696,0.3719107942399313,0.47123925182952403,0.5520263383417289,0.6068875138917298,0.6317014954463603,0.6260974999923284,0.593504567350032,0.5402028809625126,0.4742315248550389,0.40401633744409154,0.3369974745098093,0.27886284534977573,0.23268617538649888,0.19901914109885327,0.17633117944182264,0.16167000475937482,0.1518293665467931,0.14371514801340285,0.13507176906769014,0.1247828777565155,0.11277902065817307,0.10017862756359164,0.0884154399947238,0.07901166113328265,0.07323457607120835,0.07173904325761113,0.07488109721888012,0.08213996227609982,0.09243418057235409,0.10431047404314378,0.11609182835899073,0.1263164601073911,0.1335889101900594,0.1368310555780148,0.1353863720150792,0.129067039866744,0.11820826573153118,0.10357068884590873,0.08627774953809261,0.0676931860075396,0.049288510164594644,0.032391927232209336,0.018128161173595794,0.007239962961229352,1.7893695463444043e-19,-0.003747926326826195,-0.004725311741521377,-0.0038078085550138033,-0.0019474979940327262,-2.403726811485785e-19,0.0012809561918193583,0.001844358837143273,0.00166448407683708,0.0009384936424262471,3.3075270297186893e-19,-0.001123049409582548,-0.0015721290743064041,-0.0013583610282376646,-0.0007240958417747525,-5.660554426568518e-19,0.00032763578651430806,0.000503777362726963,0.00047956280652348233,0.0002823598455726022,1.3686015631615075e-19,-0.0003466875153051987,-0.0004979090811188702,-0.0004413821009487467,-0.0002414995153175812,-2.1324596253754068e-19,0.0001244195786847471,0.00019550066377785672,0.0001893322151917871,0.00011298037901302078,9.485765052139398e-20,-0.00014191241996555675,-0.00020440391317530135,-0.00018148960468033148,-9.931990670338599e-05,-1.2025469726914995e-19,2.358729045443423e-05,4.808964709043871e-05,5.5922735808013393e-05,3.822533080452607e-05,5.717192017651119e-20,-0.00011201864761845635,-0.00014974235147185454,-0.0001217326414461701,-5.993342715116876e-05,-9.687258172757748e-20,0.0,0.0,0.0,0.0,0.0,0.0,0.0,0.0,0.0,0.0,0.0,0.0,0.0,0.0,0.0,0.0,0.0,0.0,0.0,0.0,0.0,0.0,0.0,0.0,0.0,0.0,0.0,0.0,0.0,0.0,0.0,0.0,0.0,0.0,0.0,0.0,0.0,0.0,0.0,0.0,0.0,0.0,0.0,0.0,0.0,0.0,0.0,0.0,0.0,0.0,0.0,0.0,0.0,0.0,0.0,0.0,0.0,0.0,0.0,0.0,0.0,0.0,0.0,0.0,0.0,0.0,0.0,0.0,0.0,0.0,0.0,0.0,0.0,0.0,0.0,0.0,0.0,0.0,0.0,0.0,0.0,0.0,0.0,0.0,0.0,0.0,0.0,0.0,0.0,0.0,0.0,0.0,0.0,0.0
0.6317014954463603,0.6722366301914358,0.6572650150037074,0.5956044316769188,0.5043613729956725,0.40401633744409154,0.3125848077716445,0.24300045635362882,0.19991699684774933,0.18040682906936611,0.17633117944182264,0.17711501439529512,0.1748070063835158,0.16488206139486095,0.14714236676125386,0.12478287775651552,0.1020983452337393,0.08388625838803813,0.07298021925876705,0.0699222404615882,0.07323457607120835,0.07997467681410637,0.0877031696785138,0.09460897767068013,0.10002989232914906,0.1043104740431438,0.10813976572543173,0.11265830788912555,0.11859912178078104,0.12623133763202754,0.1353863720150792,0.14549866826502406,0.15610928988075337,0.1667514671558495,0.17707682598819016,0.18688458396364285,0.19611816868000576,0.20507636546435373,0.21439052222744656,0.22506789586550072,0.2383827959122064,0.2556359432186036,0.2777317071474182,0.3048482185077988,0.3361905482068124,0.37000507885270933,0.4039131062493858,0.4353956659612687,0.4625005487264316,0.48439096876096555,0.5016273617932122,0.5157564227767748,0.5299662684852691,0.5467377995083037,0.5676331894567753,0.5927237813664363,0.6201575899684401,0.6471234951710001,0.6694273676710467,0.6827822694180735,0.6838202009396604,0.6708081218988579,0.6444376213719512,0.6072419029923235,0.5632030943460625,0.5168843508085638,0.4723799174345428,0.43285380318071537,0.39968647705206706,0.3725830046928008,0.34994850067746697,0.329434108058268,0.3089414276594594,0.2869067847886765,0.2627363396851105,0.23683612835598683,0.21024509900007793,0.1845954935779952,0.16122462193178339,0.1409204041750692,0.12372375603450671,0.10881362120182639,0.09522687961468425,0.08170718892984936,0.06726557327147142,0.05149077065874154,0.034439344587794164,0.017368821092613885,0.0016482146281427078,-0.011370852766260669,-0.02074221471702363,-0.026550688833976904,-0.028859384227821458,-0.028695452484395437,-0.027394404756450257,-0.02621463027908979,-0.026435738472149896,-0.027709886677300847,-0.0295845545771109,-0.031217838663802146,-0.03168704584115594,-0.03084060825811567,-0.027750201766413685,-0.022678735408439763,-0.01634139213726503,-0.009643507922673602,-0.003836400936809138,0.0012611760100573312,0.005516733861932481,0.009100410005557212,0.012400029995808743,0.015517152833004847,0.01945742449549114,0.024255717175692203,0.02965039824760222,0.03524079182258461,0.04038915038357518,0.045356024863785704,0.04999642458509093,0.05424117566781861,0.0580815536493605,0.061345962963894114,0.06434688529079038,0.06696196857273318,0.06902359091726037,0.07044751615110223,0.07124304553919654,0.07207050939723045,0.0736427769104582,0.07688731849770519,0.08281347865284394,0.09224338239445458,0.10581904545877979,0.12347549656045156,0.14445589485624424,0.16736533558897485,0.19035552138573736,0.2115645130641066,0.2293798266072836,0.24285020961858542,0.25191719252510575,0.25744521451329816,0.26096120659301036,0.2642870890660138,0.26899275598770456,0.2758960666504025,0.2847413629578066,0.2940769835016565,0.3015497095415024,0.30435853206188374,0.2998749407756992,0.2862763383456932,0.2629504199605241,0.23078405893227685,0.19203240470054495,0.1499374703878496,0.1081653774672476,0.07016191093769832,0.03862680956890781,0.015134085503889897,-2.199438934778332e-19,-0.007612737072048513,-0.009364526878722284,-0.007352099628822443,-0.003660763468720787,8.077809913315046e-20,0.0025065036782874524,0.00345509043774145,0.0029836614763877733,0.001611270801978094,3.937392043036491e-20,-0.0012969208066623931,-0.0018748220884686854,-0.001685939931012687,-0.0009423952460890341,-1.7332401945501274e-19,0.0007460670321784045,0.001118831308805364,0.0010404967370184611,0.0005996824345346394,2.1553994276394188e-19,-0.0005671441961197583,-0.0008442276117035267,-0.0007775491476264399,-0.00044300117013206745,-2.970844756228595e-19,0.0002912126942644644,0.0004648892536786853,0.0004564165412748295,0.0002755743961589175,2.4798717720530254e-19,-0.0003885523949355691,-0.0005519637258408267,-0.00048265054647330947,-0.00025970063057292924,-3.3054583266266215e-19,5.224482510909499e-05,0.0001065164821136014,0.00012386643381340678,8.466744946723331e-05,1.266333229983795e-19,-0.000248116444959594,-0.00033167281249131157,-0.00026963251988223634,-0.00013274994114946556,-2.145685660674241e-19,0.0,0.0,0.0,0.0,0.0,0.0,0.0,0.0,0.0,0.0,0.0,0.0,0.0,0.0,0.0,0.0,0.0,0.0,0.0,0.0,0.0,0.0,0.0,0.0,0.0,0.0,0.0,0.0,0.0,0.0,0.0,0.0,0.0,0.0,0.0,0.0,0.0,0.0,0.0,0.0,0.0,0.0,0.0,0.0,0.0,0.0,0.0,0.0,0.0,0.0,0.0,0.0,0.0,0.0,0.0,0.0,0.0,0.0,0.0,0.0,0.0,0.0,0.0,0.0,0.0,0.0,0.0,0.0,0.0,0.0,0.0,0.0,0.0,0.0,0.0,0.0,0.0,0.0,0.0,0.0,0.0,0.0,0.0,0.0,0.0,0.0,0.0,0.0,0.0,0.0,0.0,0.0,0.0,0.0
0.6838202009396604,0.7347159705115435,0.7302098237608954,0.680027904807277,0.6020321190968144,0.5168843508085638,0.44244567022116243,0.38970014184804475,0.3609894264635731,0.3510259515930323,0.34994850067746697,0.3471891572531188,0.33508435242544743,0.31074491022381395,0.27619074902608926,0.23683612835598686,0.19904468044521761,0.167989933795326,0.146007236298577,0.13230303317064573,0.12372375603450671,0.11610746125619767,0.1059966928103709,0.09152470885680768,0.0727895316261079,0.051490770658741546,0.02997807343317037,0.01079950649272519,-0.004318157607947627,-0.014712257019385026,-0.020742214717023633,-0.023705775487329668,-0.024760415100272777,-0.025059067900506344,-0.025408804333643894,-0.026214630279089785,-0.02777385486843967,-0.029643622257808217,-0.03130392962254242,-0.032157973920678186,-0.03168704584115594,-0.029859769265065898,-0.02643905277151759,-0.0216128403633216,-0.0158166130617561,-0.0096435079226736,-0.003897940226384462,0.001136181651669821,0.005362979298462025,0.008985389918749214,0.012400029995808743,0.01555640237726266,0.019514845630846094,0.024305095341743164,0.02967461753834813,0.03524079182258461,0.04025032711001144,0.04509484111620072,0.04969449447719088,0.05402660091063096,0.0580815536493605,0.06148546836412474,0.06457566722624171,0.06719226909123736,0.0691658437478568,0.07044751615110223,0.07112803166347346,0.07189979594175779,0.07349060612006615,0.07680672058998898,0.08281347865284394,0.09247901992148898,0.10624681652557023,0.12395727929877075,0.14479243806029754,0.16736533558897485,0.18999569886277623,0.21091372829174457,0.22864740681250673,0.24233699943206638,0.25191719252510575,0.2580823644751643,0.2621556723048865,0.2656886938374478,0.27002378839668373,0.2758960666504025,0.2830813419774827,0.29069592567649005,0.29719695687606174,0.3007940744149402,0.2998749407756992,0.2931968212986492,0.2806926099786851,0.2631374864855307,0.24206733233458996,0.21944443459810495,0.1970056993937901,0.17668846413272443,0.15983010087335364,0.1472007749172206,0.13901392842051066,0.1347041405827469,0.1340600485397433,0.1365885335942644,0.14172149789599015,0.14871762504629985,0.15632553229794802,0.16319465255420726,0.16738227362237862,0.1665856400803381,0.158421321672089,0.1408195738512331,0.11263189568148786,0.07393048718515854,0.026351190935749027,-0.026881359611435514,-0.08128475105759078,-0.13157440962483247,-0.17264427989439163,-0.2003432369268754,-0.21218404089496004,-0.2078090651091775,-0.18886352862507483,-0.1588424110707333,-0.12230897601644322,-0.08400576113911727,-0.04806739896603321,-0.017021076835774737,0.008109501594117264,0.027908767112525754,0.04417251861672548,0.05913878881379241,0.07527099373999305,0.09399947947397952,0.11562483261742806,0.13933139141940842,0.1633645976984699,0.1861013829580173,0.20592266951900629,0.2219804112832922,0.23449026422209138,0.2445483435388404,0.25437192528707214,0.2659400469388543,0.28063560641423535,0.29872454024419265,0.31896223615015107,0.33907384667749757,0.3555742383089302,0.36464705191775326,0.36295881626629395,0.34833905383919844,0.32056856231311076,0.2811798442793241,0.2333726455111238,0.18147940813314697,0.13014704406041883,0.08384478544560535,0.045815084652830726,0.017808603738351858,-3.327117395154822e-19,-0.008885184690676621,-0.010833589793637785,-0.008424398117736393,-0.004152016825003071,1.5677590028247262e-19,0.002815313067542338,0.0038296306675514175,0.003261967779924501,0.001737246672745666,-1.1257421024360318e-19,-0.001220787787978378,-0.0017828619934344408,-0.0016241450891219568,-0.0009216993964337519,4.663811785429481e-20,0.000835166948336013,0.0012461233552479665,0.001153478684264529,0.0006619951980001617,2.0395371081401215e-19,-0.0005977687815974836,-0.0008956293674309444,-0.0008305604684759309,-0.0004765777540291106,-2.841729516617427e-19,0.0003402052408088697,0.0005376726124714072,0.0005233430888337571,0.00031366308881821845,2.7041723545815866e-19,-0.0004120239095153818,-0.0005901894185546233,-0.0005208644389439814,-0.00028315840113040845,-3.4969298484046355e-19,6.323542683688401e-05,0.00012892406468108459,0.00014992387851997763,0.00010247871047650925,1.5327283065555753e-19,-0.0003003120264927223,-0.00040144591974960504,-0.0003263543795630326,-0.00016067618512701935,-2.5970677158396095e-19,0.0,0.0,0.0,0.0,0.0,0.0,0.0,0.0,0.0,0.0,0.0,0.0,0.0,0.0,0.0,0.0,0.0,0.0,0.0,0.0,0.0,0.0,0.0,0.0,0.0,0.0,0.0,0.0,0.0,0.0,0.0,0.0,0.0,0.0,0.0,0.0,0.0,0.0,0.0,0.0,0.0,0.0,0.0,0.0,0.0,0.0,0.0,0.0,0.0,0.0,0.0,0.0,0.0,0.0,0.0,0.0,0.0,0.0,0.0,0.0,0.0,0.0,0.0,0.0,0.0,0.0,0.0,0.0,0.0,0.0,0.0,0.0,0.0,0.0,0.0,0.0,0.0,0.0,0.0,0.0,0.0,0.0,0.0,0.0,0.0,0.0,0.0,0.0,0.0,0.0,0.0,0.0,0.0,0.0
