0.7358473610259796,0.810470092461557,0.8345700116609506,0.8173437449200105,0.7756429612858021,0.7286537083754754,0.6918467280838517,0.6748665697188562,0.6787701631850559,0.6975886023703197,0.7214600557249712,0.7398139235038993,0.7465651451731157,0.7402963221785452,0.7243178867624431,0.7047665151203317,0.6872334110908982,0.6767654583099127,0.6748614567934876,0.6798813773108486,0.6880729745156922,0.6942671643663328,0.6960302497010529,0.6925570454793992,0.685132799623297,0.6763061712642737,0.6680297213421074,0.662659608523814,0.6608649691844144,0.6620006269601817,0.6645393680128553,0.6662518359556131,0.6662459256219907,0.6642329303032628,0.6607487215298501,0.6567926499763873,0.6528957875313326,0.6500918064892748,0.648692168098248,0.64852449229947,0.6490459319399196,0.6490946287896966,0.6483793637733113,0.6466358765936313,0.6438990962993947,0.6404488977996625,0.636318988903516,0.6324800314032143,0.62984087972787,0.6293600032006387,0.6318518636594055,0.6369905266775902,0.6457715088041363,0.6576306692874496,0.671444583821569,0.685795243318864,0.6985897878755223,0.7099696205883381,0.7199097331403262,0.7292687209926247,0.7397386229783224,0.7528107928429759,0.7716250197440301,0.7976763249770054,0.8310750915690355,0.8701945697798794,0.9109903644644228,0.9496305842925161,0.9807134915513581,0.9990457985494153,1.0006505165814363,0.9829543903129552,0.9473290471462217,0.8966704451791264,0.8357078696580578,0.7702213981048094,0.7054955109810499,0.6474658572576615,0.59971106376622,0.5638870271738032,0.5397922796281822,0.5251579757385051,0.518206048503544,0.5160083150055115,0.5158077653096429,0.515461485098418,0.5130762229286828,0.5090470071804551,0.5036221988702577,0.49740927655714007,0.49113069056865377,0.4848033084960224,0.4796479349279017,0.4757418515822736,0.47281530536136596,0.4703853811807985,0.46729097175388046,0.4639125975361768,0.45994949413722874,0.45521251309916094,0.4496400717929432,0.4426474809948561,0.435211993022495,0.42751750436082886,0.41969906451376904,0.41186620750095704,0.40345492668985156,0.39546995022804327,0.38798443731538235,0.3809265638048782,0.3740923432089709,0.3664806066984655,0.35872637634379373,0.3505637727006984,0.3418067253271375,0.33247309172103684,0.3220840214600469,0.31222680968914085,0.3034901371844529,0.29630549257209154,0.29085384023310273,0.28620041297083754,0.28314372859784454,0.2810578838970569,0.2791956030651329,0.27695781842984546,0.2733979167959958,0.269673945023433,0.2663110324426691,0.2639268330196419,0.2630617966265882,0.263441184102913,0.26581011889144784,0.2698550600522463,0.2749657055376154,0.28041220299057384,0.28497640757301673,0.2889655179512222,0.2922945036210841,0.2951182548115785,0.2977626093545596,0.30006727048617693,0.3030501703557136,0.30689641486009467,0.3115332870416582,0.316669352799913,0.3213562171936307,0.32583908930483446,0.32980805757586223,0.33306648466869765,0.33557609624526635,0.336940339523695,0.33804679622039446,0.33920163542604237,0.340623070656183,0.3423919259212745,0.34394783917446375,0.3456929454508978,0.3473652941275576,0.34863844220088597,0.3492077555972826,0.3484102481900021,0.34676013940061906,0.3444039371557778,0.3415829267427243,0.33858773969153266,0.33527542454099385,0.3324100872739853,0.33019799501340535,0.3287241297650724,0.32796772378578265,0.3274318407490762,0.32746736036304225,0.32798577951592717,0.32887198309199844,0.32998367739134016,0.3308782947766366,0.3317209900209822,0.3323091088933479,0.3324450421060604,0.33199963099689767,0.3308190501560586,0.32924899619067594,0.32742222550264527,0.32547042780137114,0.3235042448997773,0.32145455736262135,0.31962409427344374,0.31797665982645923,0.31644779318101396,0.31500885880265694,0.31354763661996415,0.3124449570528633,0.3117557232342766,0.3114478333625814,0.3113953467300859,0.3112319661383591,0.3110184520793709,0.31048656675141434,0.3094273141124796,0.3077818346575149,0.3055014988131901,0.3031696947433985,0.3010355248201918,0.2992363506157609,0.29775308043275184,0.29623604789620406,0.29473816837296885,0.2929342450961408,0.29059270443911245,0.2877243262079888,0.2844669678812666,0.2817201039260909,0.2800734853196739,0.27992259131560016,0.2812743596799393,0.2834291307675726,0.28560699735061135,0.2861665995933902,0.28318175399282897,0.27482439315188983,0.2595969712990015,0.2373097956994577,0.20841953659640972,0.17436300405810476,0.13741219657594492,0.10018335732933388,0.06584916391380063,0.036818872791026844,0.014678894946132531,9.067596345692914e-20,-0.007839911786973373,-0.009825572733426657,-0.007845728352368377,-0.0039653466031774765,-3.7221129674614824e-19,0.0026332928952260085,0.0036964889835053756,0.00324967639065029,0.0017853726028690155,2.678113911960176e-19,-0.0016103011326944845,-0.002318260731455684,-0.0020710475897994466,-0.001147576809321859,-4.835250896508185e-19,0.0007710312834399587,0.0011789058168089313,0.0011161618455167261,0.0006538182832461193,3.2230323566095136e-19,-0.0007457766681907877,-0.0010819982475940488,-0.0009696557199429896,-0.0005367394745054849,-4.666809153454469e-19,0.0002767905378074677,0.00044624777022200064,0.00044177211080325546,0.000268605417314509,2.51278794887195e-19,-0.0004031329057629029,-0.0005687343412057694,-0.0004934495138060411,-0.0002631733577533795,-3.4361188060870525e-19,4.7880467500194626e-05,9.761845215149382e-05,0.00011351904702874339,7.759461447282186e-05,1.1605479956348895e-19,-0.00022738962862531542,-0.00030396597722410243,-0.0002471083227527073,-0.000121660455931993,-1.9664422711152268e-19,0.0,0.0,0.0,0.0,0.0,0.0,0.0,0.0,0.0,0.0,0.0,0.0,0.0,0.0,0.0,0.0,0.0,0.0,0.0,0.0,0.0,0.0,0.0,0.0
1.0006505165814363,1.0786689263510494,1.0759877995157192,1.0059822041981954,0.8940772178741596,0.7702213981048094,0.6606908120014423,0.5827741256595894,0.541611266665222,0.5314726939622038,0.5397922796281822,0.5522164081116033,0.5580073399169732,0.5522599318964924,0.5362436423159846,0.515461485098418,0.4963644474456883,0.48421851190891124,0.4808219260355885,0.4844713136303144,0.49113069056865377,0.4960262496465351,0.49617431288826225,0.490764528970338,0.481243472160086,0.4703853811807985,0.4607086809524054,0.45419190221831257,0.4510951617799447,0.45023916439578165,0.4496400717929432,0.4470481029460558,0.44152833542474434,0.43309805578656735,0.4227327443360418,0.41186620750095704,0.4014958366026948,0.39263824555552557,0.3854660820475964,0.37954923329892354,0.3740923432089709,0.3679206042022144,0.3606513113158656,0.3521286434033363,0.34257716835000596,0.33247309172103684,0.3220840214600469,0.31222680968914085,0.3034901371844529,0.29630549257209154,0.29085384023310273,0.28620041297083754,0.28314372859784454,0.2810578838970569,0.2791956030651329,0.27695781842984546,0.2733979167959958,0.269673945023433,0.2663110324426691,0.2639268330196419,0.2630617966265882,0.263441184102913,0.26581011889144784,0.2698550600522463,0.2749657055376154,0.28041220299057384,0.28497640757301673,0.2889655179512222,0.2922945036210841,0.2951182548115785,0.2977626093545596,0.30006727048617693,0.3030501703557136,0.30689641486009467,0.3115332870416582,0.316669352799913,0.3213562171936307,0.32583908930483446,0.32980805757586223,0.33306648466869765,0.33557609624526635,0.336940339523695,0.33804679622039446,0.33920163542604237,0.340623070656183,0.3423919259212745,0.34394783917446375,0.3456929454508978,0.3473652941275576,0.34863844220088597,0.3492077555972826,0.3484102481900021,0.34676013940061906,0.3444039371557778,0.3415829267427243,0.33858773969153266,0.33527542454099385,0.3324100872739853,0.33019799501340535,0.3287241297650724,0.32796772378578265,0.3274318407490762,0.32746736036304225,0.32798577951592717,0.32887198309199844,0.32998367739134016,0.3307624995256237,0.3314857946977252,0.33201979700180184,0.33222861484608773,0.33199963099689767,0.33089290396329035,0.32935704252705317,0.3275151378058565,0.32551599996950353,0.3235042448997773,0.32121156001013135,0.31916964393337627,0.3174540538482979,0.3160780915824703,0.31500885880265694,0.31379851652124235,0.3128584441043741,0.3121744488981813,0.3117083327655439,0.3113953467300859,0.31077034272947296,0.3101930269045734,0.3095742906555471,0.3088040603577305,0.3077818346575149,0.3060861899332454,0.30417402464982213,0.30210361669610436,0.2999401700179726,0.29775308043275184,0.29524678375537244,0.2929575696916841,0.29094500069603957,0.2892125777517481,0.2877243262079888,0.28605404651677463,0.2846258547542332,0.28339923144959717,0.2823069026351803,0.2812743596799393,0.2798663015119635,0.27852057347843223,0.2772397399146151,0.2760131203798662,0.27482439315188983,0.2732852277181743,0.27185766120624366,0.27055343674961574,0.26934923198405175,0.268199802728241,0.2666821725800952,0.26524002141874115,0.2638921076933259,0.2626591185372388,0.26157521230459224,0.26031561231803374,0.25941975104148957,0.2589591373208309,0.2589330749886245,0.2592561514352373,0.25939504321705104,0.2595549668059463,0.2594369643171052,0.25868227560054186,0.2569370905658824,0.25358302094995894,0.24893134488996554,0.24305493472661632,0.23619738125059028,0.22876637209171663,0.22103736408625102,0.21394394018432417,0.2079827532332309,0.20348591089833012,0.2005956536175509,0.1991042650517314,0.19908183993484788,0.20012276967599937,0.2017206180703252,0.20338614702867666,0.2045963805826602,0.2054473637864688,0.20590283715581303,0.2060698210051993,0.2061766404398024,0.20636498806527004,0.20717253637207397,0.20870337003340056,0.21086255705065085,0.21338757320066434,0.2157750476141401,0.21793046128553148,0.21953718129556132,0.22041660716964898,0.22059850596152622,0.22017916829382145,0.21978931187290796,0.2197586873134756,0.22026204902441487,0.221261317921852,0.22236632326998604,0.22342573762001755,0.22394775122804844,0.22351099383121256,0.22192412988217775,0.2191790164550788,0.21594927886454504,0.2127908555264097,0.2102114524889782,0.208492034537356,0.20740368110044766,0.20664506368593025,0.20520669154224824,0.20178480652068317,0.1950599391925343,0.1838706086686246,0.1679835509516348,0.14759115443218995,0.12359679793402847,0.09752996959626715,0.07120703586762996,0.046866836803058864,0.0262365916445458,0.010470436171680437,3.7292611431716965e-20,-0.005581089611832882,-0.006999453416185807,-0.005593809360086391,-0.0028300893297360926,-2.3097665010057507e-19,0.001898685346380045,0.0026658420807063165,0.0023437740516599626,0.0012876288286506905,1.8738444566092866e-19,-0.0011503290665430088,-0.0016590050568419182,-0.0014849474935720967,-0.0008245068421278579,-3.383987139727239e-19,0.0005622277778074098,0.0008596738382491919,0.0008139037079472164,0.000476734616878726,2.380272626341297e-19,-0.0005417364080359667,-0.0007864765981155778,-0.0007052806318380419,-0.0003906580349254188,-3.4164350309662545e-19,0.0001995406116115288,0.0003230197997830598,0.0003208677010174284,0.0001956457540472844,1.8582615572744397e-19,-0.00030078030740467745,-0.00042325212672724853,-0.0003661541869125766,-0.00019462966609271992,-2.5655345978361844e-19,3.398374129743383e-05,6.928587787407897e-05,8.057151753040773e-05,5.507371673653307e-05,8.237129858172577e-20,-0.00016139254097489482,-0.0002157435311834326,-0.0001753881227838191,-8.634998103357904e-05,-1.3957062014410476e-19,0.0,0.0,0.0,0.0,0.0,0.0,0.0,0.0,0.0,0.0,0.0,0.0,0.0,0.0,0.0,0.0,0.0,0.0,0.0,0.0,0.0,0.0,0.0,0.0
0.3492077555972826,0.3839673710188376,0.39434124965652045,0.38467659005606736,0.36301774388320396,0.33858773969153266,0.318950800872253,0.3088757371638427,0.30908703827034834,0.3169569159918589,0.32796772378578265,0.337269179633968,0.34192503580228456,0.3411445289441084,0.3362854561628304,0.32998367739134016,0.32472507111784077,0.3225115817787523,0.3237736800600294,0.3275460739411246,0.33199963099689767,0.3349758152753273,0.3353703153644135,0.332982592653842,0.32858439780889726,0.3235042448997773,0.3188371534050361,0.3156529435371645,0.31424117798169016,0.3142678911827301,0.31500885880265694,0.3154446747688816,0.31521874591095234,0.31425755070734535,0.3128394869629457,0.3113953467300859,0.3100731694819236,0.309177316145268,0.30866345340064866,0.30830153914074915,0.3077818346575149,0.3066527799072039,0.3049314210014537,0.3027193400208655,0.3002433131075454,0.29775308043275184,0.29524678375537244,0.2929575696916841,0.29094500069603957,0.2892125777517481,0.2877243262079888,0.28605404651677463,0.2846258547542332,0.28339923144959717,0.2823069026351803,0.2812743596799393,0.2798663015119635,0.27852057347843223,0.2772397399146151,0.2760131203798662,0.27482439315188983,0.2732852277181743,0.27185766120624366,0.27055343674961574,0.26934923198405175,0.268199802728241,0.2666821725800952,0.26524002141874115,0.2638921076933259,0.2626591185372388,0.26157521230459224,0.26031561231803374,0.25941975104148957,0.2589591373208309,0.2589330749886245,0.2592561514352373,0.25939504321705104,0.2595549668059463,0.2594369643171052,0.25868227560054186,0.2569370905658824,0.25358302094995894,0.24893134488996554,0.24305493472661632,0.23619738125059028,0.22876637209171663,0.22095559074777674,0.21377784782208967,0.20777844434296908,0.20333307233690376,0.2005956536175509,0.19915641980180576,0.1991581410746459,0.2001883833272714,0.20175280063651077,0.20338614702867666,0.2044311155360787,0.20513930725627344,0.20554961144929873,0.2058205860053554,0.2061766404398024,0.20653811497343585,0.20745862344541774,0.20899398478417736,0.21104402488958887,0.21338757320066434,0.2154488255764056,0.21734495037597115,0.2188877453339451,0.2199714219775022,0.22059850596152622,0.22058696851587575,0.22048855184917202,0.22050090068207373,0.22075014609999713,0.221261317921852,0.22166180015963374,0.2221547117403397,0.22252486839238808,0.22252206552640322,0.22192412988217775,0.22029888412895993,0.21799723305647992,0.21513216340876917,0.21188823953017968,0.208492034537356,0.20489535922938168,0.2016578987716862,0.1989257019462016,0.19674116572527578,0.1950599391925343,0.1935160842567941,0.19233668666117296,0.1914115814366055,0.19062779163652235,0.18989074512533935,0.1888921167913767,0.18790533749616128,0.18691046337893547,0.18586711700591074,0.1847215510581444,0.1832030397768998,0.18155542787262888,0.17977916002110572,0.1778895336897866,0.1759263591573924,0.17369655331490547,0.17160732479965396,0.16977685217911834,0.16828067344678843,0.1671311672566404,0.16596806634970576,0.1650353721155188,0.16423756997403466,0.1634680540383037,0.16264254008014703,0.16135126829381768,0.16006274472107546,0.1589670040519864,0.15827430475610496,0.15815391290365363,0.15823057010821223,0.158969690785007,0.1603535052322136,0.16227539701641275,0.16454884629964803,0.1666442751855,0.16860715593751038,0.17015381993330791,0.17100583854373463,0.17094377969564245,0.16975547976211505,0.16765504615050525,0.16475220424641338,0.1612528270864976,0.15745188969318352,0.15359646989710582,0.15020826708474383,0.147487112414889,0.1454556461670092,0.14395999969072457,0.1426058631427371,0.14121225790613462,0.13940013644175034,0.13689323315966295,0.13363744791273924,0.12977866045866823,0.12604483452536405,0.12318546382076896,0.12202648331471636,0.12331489613475391,0.12745185597079697,0.13470963079951778,0.1446766730708286,0.15647533170618888,0.16893888520094305,0.18079083642685434,0.19129920146526846,0.20009302681956034,0.2075008188860568,0.21456287426713216,0.22275103632478327,0.23391698242547704,0.2493665591106248,0.269539852692823,0.29367656695100447,0.319627628736878,0.3443546844869355,0.36396248283072036,0.37451654427232534,0.3727902596348768,0.35684210848084524,0.32675440790749954,0.284326579797005,0.23299160185187967,0.17729846039245134,0.12211658117186927,0.07219718611910578,0.031080181301095088,0.0008117371816553627,-0.0181933388499741,-0.027089215474974046,-0.02787899865307873,-0.023335832250445915,-0.01628182624241982,-0.00909666942498705,-0.00347623139212452,-1.0784229607802183e-05,0.0013174988101022902,0.0010564691029585657,8.109043053565758e-20,-0.001162605505023918,-0.001767336371560421,-0.0016419344059227636,-0.000937951339618341,-2.4922706309590797e-19,0.0007290840718352592,0.0011120382728261214,0.0010485829810934814,0.0006113013252120615,2.345962052012893e-19,-0.0006076197845794292,-0.0009035355645047382,-0.0008307383144139208,-0.0004722398710615706,-3.3468254339796196e-19,0.00031305895484931047,0.0004959409794470635,0.0004835714229217577,0.0002901956517039912,2.6290688821376276e-19,-0.000380369709104446,-0.0005453792682661471,-0.00048174282172548123,-0.0002620947292605679,-3.335926813939154e-19,4.9943245382035945e-05,0.0001096403418515701,0.00013260729035219357,9.285076807335003e-05,1.4883333386785492e-19,-0.00029751895589592305,-0.0003957367567135927,-0.0003196544167019925,-0.00015603831646615292,-2.5762323490310966e-19,-3.169680680581984e-06,-6.462328753403447e-06,-7.514946052764072e-06,-5.136753320353674e-06,-7.682812538614213e-21,1.5053163647899739e-05,2.0122507900691338e-05,1.635853861780047e-05,8.053906256384541e-06,1.3017822092502252e-20,0.0,0.0,0.0,0.0,0.0,0.0,0.0,0.0,0.0,0.0,0.0,0.0,0.0,0.0,0.0,0.0,0.0,0.0,0.0,0.0,0.0,0.0,0.0,0.0
0.33199963099689767,0.3651328154467997,0.37518529955570107,0.36631568321290653,0.3461749667258842,0.3235042448997773,0.3054424830268226,0.296429985898702,0.297050121233248,0.3047015827378419,0.31500885880265694,0.3233236026937588,0.32685897935070524,0.32491878466698004,0.31888929847748715,0.3113953467300859,0.304945404206093,0.30152486267794965,0.30160037824428204,0.30427100778850796,0.3077818346575149,0.3100886825065529,0.3100613565098616,0.3074495067764907,0.3029362674081651,0.29775308043275184,0.29297049957533056,0.2895795017134094,0.28785264627578505,0.28746682482820757,0.2877243262079888,0.28767915467997385,0.2869511135053563,0.28544675902215344,0.28341599744444307,0.2812743596799393,0.2792019278405435,0.27755174326238485,0.2763700987361727,0.275532841450118,0.27482439315188983,0.27383128452917194,0.2725876095912171,0.27114684632378605,0.2696413891989272,0.268199802728241,0.2666821725800952,0.26524002141874115,0.2638921076933259,0.2626591185372388,0.26157521230459224,0.26031561231803374,0.25941975104148957,0.2589591373208309,0.2589330749886245,0.2592561514352373,0.25939504321705104,0.2595549668059463,0.2594369643171052,0.25868227560054186,0.2569370905658824,0.25358302094995894,0.24893134488996554,0.24305493472661632,0.23619738125059028,0.22876637209171663,0.22095559074777674,0.21377784782208967,0.20777844434296908,0.20333307233690376,0.2005956536175509,0.19915641980180576,0.1991581410746459,0.2001883833272714,0.20175280063651077,0.20338614702867666,0.2044311155360787,0.20513930725627344,0.20554961144929873,0.2058205860053554,0.2061766404398024,0.20653811497343585,0.20745862344541774,0.20899398478417736,0.21104402488958887,0.21338757320066434,0.2154488255764056,0.21734495037597115,0.2188877453339451,0.2199714219775022,0.22059850596152622,0.22058696851587575,0.22048855184917202,0.22050090068207373,0.22075014609999713,0.221261317921852,0.22166180015963374,0.2221547117403397,0.22252486839238808,0.22252206552640322,0.22192412988217775,0.22029888412895993,0.21799723305647992,0.21513216340876917,0.21188823953017968,0.208492034537356,0.20489535922938168,0.2016578987716862,0.1989257019462016,0.19674116572527578,0.1950599391925343,0.1935160842567941,0.19233668666117296,0.1914115814366055,0.19062779163652235,0.18989074512533935,0.1888921167913767,0.18790533749616128,0.18691046337893547,0.18586711700591074,0.1847215510581444,0.1832030397768998,0.18155542787262888,0.17977916002110572,0.1778895336897866,0.1759263591573924,0.17369655331490547,0.17160732479965396,0.16977685217911834,0.16828067344678843,0.1671311672566404,0.16596806634970576,0.1650353721155188,0.16423756997403466,0.1634680540383037,0.16264254008014703,0.16135126829381768,0.16006274472107546,0.1589670040519864,0.15827430475610496,0.15815391290365363,0.15823057010821223,0.158969690785007,0.1603535052322136,0.16227539701641275,0.16454884629964803,0.1666442751855,0.16860715593751038,0.17015381993330791,0.17100583854373463,0.17094377969564245,0.16975547976211505,0.16765504615050525,0.16475220424641338,0.1612528270864976,0.15745188969318352,0.15357208254377833,0.15015873317554573,0.1474261811481983,0.14541006495350964,0.14395999969072457,0.14262141731163253,0.1412350132795884,0.13941970447366064,0.1369028310020306,0.13363744791273924,0.1297281575955766,0.1259504932692754,0.12307708356432018,0.12194988150671593,0.12331489613475391,0.12750426316017485,0.13479608519694247,0.14476431887672406,0.1565299295036751,0.16893888520094305,0.18071306970454018,0.19116464792816745,0.19994900950781802,0.20740542684208468,0.21456287426713216,0.22286121022145017,0.2341092617696795,0.24957459444479302,0.26967946590816727,0.29367656695100447,0.3194608121488908,0.34405728357831494,0.36363272378640643,0.3742889458802762,0.3727902596348768,0.3571332416520332,0.3272951964202918,0.28495476390239644,0.23344868667177934,0.17729846039245134,0.12145120022067857,0.07085818967593303,0.029371346365610593,-0.0005799708166568363,-0.018193338849974105,-0.024312168274537787,-0.020784743220584625,-0.010443489355654503,0.003595182404806005,0.0184481869848689,0.03177945464939783,0.04232867173306247,0.04953411559699565,0.053561749238050335,0.0550897128197119,0.05496970113206681,0.05425667745731592,0.05364127234178727,0.053488168023948096,0.05383979652125373,0.05441756835633117,0.05498843429190298,0.0551243568523004,0.05442413425204209,0.05258988022279557,0.04940577782241132,0.04499372070806584,0.03948663245994151,0.03313455451669503,0.026294940111397786,0.01932049177688404,0.012846938959242143,0.007292824775868938,0.0029607570388655692,2.128569876119227e-19,-0.001723710131159165,-0.0021977844683057834,-0.0017787678208690534,-0.000907694051590945,-3.0723562417802324e-19,0.0004948227488649551,0.0007219315034218106,0.0006604296676344431,0.0003773648701685284,1.4682049247279446e-19,-0.0005204487072622047,-0.0007190542395562683,-0.0006115101582553721,-0.0003198778451195907,-2.775117699295456e-19,0.00013413817688622063,0.0001982498587913068,0.0001817806701458985,0.00010336904147332626,2.913606644338376e-20,-7.894508243649955e-05,-0.00012181342495914461,-0.00011626288709704286,-6.85984493208209e-05,-3.415899719255065e-20,5.297157558706121e-05,8.540426297015148e-05,8.454962159643313e-05,5.1408673227527565e-05,4.809746711925141e-20,-7.716867525418837e-05,-0.00010886658371016286,-9.445373952663357e-05,-5.0374227307354555e-05,-6.577533907254512e-20,9.162316423109602e-06,1.8680083843010446e-05,2.172279184456543e-05,1.4848359835381819e-05,2.2208028691802692e-20,-4.35128526844491e-05,-5.816635907273949e-05,-4.728618499464309e-05,-2.3280716576632654e-05,-3.762947033811389e-20,0.0,0.0,0.0,0.0,0.0,0.0,0.0,0.0,0.0,0.0,0.0,0.0,0.0,0.0,0.0,0.0,0.0,0.0,0.0,0.0,0.0,0.0,0.0,0.0
0.3727902596348768,0.39087774801713404,0.372804858139173,0.32373011589873457,0.25420393993674767,0.17729846039245137,0.10539830678762244,0.04764295065345036,0.008490221926593322,-0.012247086208311301,-0.018193338849974112,-0.014597419691478269,-0.006467938401735455,0.002622732158320077,0.010977083742024687,0.018448186984868904,0.025633999813117658,0.033163157837795124,0.04107478029294654,0.048729781359207705,0.0550897128197119,0.05914201306753919,0.06048130399657921,0.0593951788134299,0.0567880372975285,0.05383979652125374,0.05153004248950035,0.050471818500960476,0.050662512247435315,0.05161090704081514,0.05258988022279557,0.05287326767832492,0.05213996086694721,0.05042329998174438,0.04807248618636103,0.045575880223059397,0.04330416954190911,0.04154205490342498,0.040305167665662715,0.03940938632093381,0.03856188022332321,0.037408064939851285,0.035788733823015,0.03365115068187075,0.031077225159170743,0.028247044145728248,0.025331717259421006,0.0226268995817599,0.020379502939403507,0.01878168753397839,0.017932208068133285,0.017555972694684376,0.017919802820289564,0.018759453152442797,0.01974495133203903,0.02059531513707899,0.021017284234870006,0.021268348502731634,0.02154344991576605,0.02211481624274784,0.02325842220602468,0.025131013498752103,0.027845370281379928,0.031361216412914616,0.0355001290866975,0.0399729769903699,0.044369478814396304,0.048417330018931344,0.05187735692669463,0.05463055641438605,0.056687531774715104,0.05809020799227063,0.05912289153887223,0.060004882906895256,0.06091701899791872,0.06196376575362707,0.06307979947940213,0.06428626147696297,0.06546870424425259,0.06649209523214099,0.06723999973253902,0.06756891320487729,0.0675667046697163,0.06730370604033867,0.06688760416494406,0.0664348661936443,0.06597041015977158,0.0656406032528516,0.06547984421200752,0.06548512885267507,0.06562973265474958,0.06580979118677646,0.06607582728854067,0.06642597747045172,0.06686146844522287,0.06737304586430304,0.06786756937513432,0.06835287018578066,0.0687666293545591,0.06904044143534584,0.06911635907385649,0.0689104587496658,0.06848276306718239,0.06789332714189307,0.06722693141178704,0.0665684002099087,0.06592794033556687,0.06537892979336968,0.06491204597667564,0.06448169248377769,0.06402044134596091,0.06341097727043583,0.06265423749431108,0.06174298656568915,0.060705397177862185,0.059597674716378106,0.05843269897586819,0.057351780972877874,0.05642411377700249,0.05569387712324823,0.055174908086795295,0.054782320235806606,0.054562250848639776,0.05446625352744979,0.05443635243347345,0.05441737096377619,0.054292613718937545,0.05413653122448761,0.053960380702550347,0.05379007298753581,0.053659833840757086,0.053521808696240056,0.0535031446139197,0.053619650514215605,0.05385922473003108,0.05418324989512159,0.054386123524297246,0.054563144709106705,0.05469194963625649,0.054750625085570825,0.054706665949486095,0.05429875306521739,0.053693555371126966,0.05292744898217428,0.05206539285944358,0.05118664068799177,0.05023291313597756,0.049394313416531846,0.04870531972816496,0.04815013100385754,0.047666615426497444,0.04711650986567095,0.04647846095345338,0.04567521744257771,0.044673822801396604,0.04350669513234301,0.04221072947865722,0.041017219870905036,0.04007974547098971,0.039509928565882146,0.03934677483818858,0.03946752217904426,0.039855274652021724,0.04036732493392371,0.04086486646164962,0.04125786864436208,0.041451381937153295,0.041612842753919604,0.04187536433622734,0.042370168217290734,0.04316896245053557,0.04415251404184324,0.04527293786770658,0.046309368519089775,0.04701954283389939,0.0472388920082024,0.046930061904891684,0.04645968795676664,0.046428856746770386,0.047705130741903336,0.051308821565869224,0.058198165636055975,0.06914373181368512,0.08436036080865379,0.10338866158357837,0.12503475608134282,0.14741558820756226,0.16827496795293673,0.185161908178011,0.19586066506350697,0.19876069059681645,0.19311217758050722,0.1792740833042708,0.15854122799742096,0.13300415784545144,0.10523648237642687,0.07789068027572695,0.053425573847203055,0.033669400715866896,0.019682709339331007,0.011712274156037287,0.009246860523083789,0.011288016768581783,0.016458668561118318,0.023294923119637805,0.030469329966799713,0.03693447962233146,0.042101202928933934,0.045742486238178344,0.04798728479364099,0.04922638577756213,0.04996724106740301,0.050777733681116786,0.05206365201084456,0.054020046018909695,0.05659335355258516,0.05947049242778516,0.06221436112825464,0.06424416672075947,0.06498163603847525,0.06396032132760819,0.06089228307025008,0.05580693327094525,0.04895007642340338,0.04079519357057414,0.031980160663804096,0.02319251962520935,0.015159803884813739,0.00842967168002777,0.0033427187376282577,6.156579895702949e-20,-0.001755403860181655,-0.002191216313423082,-0.0017440705438230607,-0.0008792485884887577,-1.0883598928670297e-19,0.0005543041001930217,0.0007840577915175086,0.000695705035880706,0.000386153986515725,8.336503326747484e-20,-0.00042203265651498097,-0.0005927341207403259,-0.0005147579105455472,-0.00027633263922162464,-1.6566408100737453e-19,0.00015437628634699344,0.00023088193911166934,0.0002141759001678973,0.00012315461435774783,4.133212841551276e-20,-0.00011333642180114633,-0.00016937695192913767,-0.00015664460844455575,-8.962716883399171e-05,-5.684918970048669e-20,6.132787568801165e-05,9.755602190884713e-05,9.548822848870703e-05,5.7505297497023665e-05,5.0990765715521803e-20,-7.914687500031292e-05,-0.00011274560591085757,-9.889383174590464e-05,-5.3397237900805356e-05,-6.727864682261047e-20,1.1143297912918494e-05,2.2718898768431093e-05,2.6419469689320673e-05,1.8058718944321044e-05,2.7009619439382988e-20,-5.2920752581822464e-05,-7.074248887786666e-05,-5.750991585835796e-05,-2.8314232827116416e-05,-4.5765326028832034e-20,0.0,0.0,0.0,0.0,0.0,0.0,0.0,0.0,0.0,0.0,0.0,0.0,0.0,0.0,0.0,0.0,0.0,0.0,0.0,0.0,0.0,0.0,0.0,0.0
0.5133023472757381,0.5413183805865691,0.5218254458576953,0.46215222421205676,0.37664546867005577,0.2826492124164309,0.1962318389439271,0.1284157129660329,0.08368804515171684,0.06025640181097409,0.05199607755712359,0.05129964486650417,0.05137798091739795,0.04817524745224464,0.04076540654355929,0.030684199009913656,0.02067464909880733,0.01307975194787091,0.00905796566515046,0.008290299208710874,0.009372320462703695,0.010612400117055191,0.01064024832816893,0.008957522278300298,0.005937097001716927,0.0024897698732870874,-0.0004173249700913347,-0.0022504691444325676,-0.003077623014723155,-0.003505224177833293,-0.004392780716129538,-0.006508418737254037,-0.010218240848217926,-0.01540718559864358,-0.021558196823352783,-0.02796868944914016,-0.03402949475319444,-0.039333602929536145,-0.043823547153559794,-0.0477464828248767,-0.05154459818215078,-0.05575693284586656,-0.0607478800976517,-0.06671237797900241,-0.07360492655909878,-0.0811449291092413,-0.08891201815494558,-0.09628603851544636,-0.10266507808685466,-0.10756643510341944,-0.11074526003633181,-0.1125813415507178,-0.11291131750293772,-0.11237283463739545,-0.11169435710514587,-0.11144376071984545,-0.11203719080954391,-0.11296598553462842,-0.11371640909886727,-0.11363939314163432,-0.11214226140335906,-0.10894351571155117,-0.10392460191616128,-0.0973917964695443,-0.0899128121778422,-0.0821626293570068,-0.07482358485333115,-0.0682080344102412,-0.06239477012361692,-0.05718260227788767,-0.052182997310654546,-0.04702736891751565,-0.041296759338796646,-0.034797095472267656,-0.027565056397279877,-0.019855470814425295,-0.012140979460818147,-0.004799672070434773,0.0018339200564302233,0.007586277548857433,0.012472055681803956,0.016601214358197797,0.020318710780280184,0.023966313826818974,0.02782128815822433,0.032015192167909344,0.0364384812110881,0.040901055109123924,0.04510644673028835,0.04874236034991318,0.051558328654014746,0.05338731263719828,0.05427087104152082,0.05443079477962522,0.054196386534071876,0.05391110741783367,0.05381609758099146,0.05402739829454404,0.0545748749189546,0.055374805564083716,0.0562638861816526,0.05704127759384847,0.057507484752600195,0.05763705621096361,0.057509497277590874,0.05726705365274936,0.05704933110584554,0.05693618913781017,0.057053471593274854,0.057487591518360234,0.058270221123846125,0.05936402983940879,0.06066459947191994,0.062142936276066874,0.06377475201032172,0.06551864665633926,0.0672696418914096,0.06891388119917903,0.07039255612078701,0.07167668882964666,0.07276707218883238,0.07364232353578942,0.07436797009686293,0.07504852743777828,0.07578844537423637,0.07665197925141178,0.07757144039534437,0.07851665369570962,0.07939667392279261,0.08010396381248609,0.08053688631399117,0.08054317068821315,0.0801716153176266,0.07948374202218912,0.07859125710406824,0.07762787661318642,0.07662660031906683,0.07577756115300423,0.07516170098340533,0.07481333999814789,0.07471886691238165,0.0747191846229973,0.07485450850823917,0.07507170508485964,0.07532592697991403,0.07558471781918416,0.07565393967300307,0.07571000779691506,0.07582223691758262,0.07605806988884943,0.07645056872598668,0.07673289324260105,0.07707650320655925,0.07747796268508947,0.07793505853930824,0.07844142706147474,0.07881793974095332,0.07920048712541641,0.07959746676077822,0.08001067536633699,0.0804322853969628,0.08076975429426529,0.08109944774183325,0.08141968740834142,0.08173519192397473,0.08205802242404595,0.08230638465846221,0.08260363516410767,0.08295649068182764,0.08333799741127886,0.08368375945112909,0.08378488684295086,0.08368038451586908,0.0833230337900803,0.08271579799874124,0.08192663178196012,0.08100591529070626,0.08022749745146816,0.07976357579733985,0.07973393112931258,0.08016950411279115,0.080948594629703,0.08195819782155554,0.08292114800701217,0.08354802652241826,0.08364516777010234,0.08318651607961122,0.08255392560660292,0.0823703875824215,0.0835375521778427,0.08712083142741348,0.094117091194619,0.10535812775118018,0.12107271303200984,0.14077648592259998,0.16320996936281376,0.18638226712345582,0.2079494088014041,0.22536375667466746,0.2363510628834779,0.23929910729821402,0.23350363882645114,0.219441741750248,0.19851069369837357,0.17287365765449472,0.1451219966294561,0.11784960693762465,0.09344876260442989,0.07363681093638876,0.059390799314052195,0.05094488596069819,0.04785207910083832,0.04931062652006163,0.054144564132965776,0.06105891616772191,0.06878733446319257,0.07614937344106576,0.08226785873192918,0.08638199080627221,0.0879420070369592,0.08662978296568694,0.08233380886456526,0.07532412063975523,0.06602932410981638,0.055090825270738206,0.04331489148284347,0.031550389471266156,0.02074487674198592,0.011618245373357757,0.0046449130505770205,5.180247761021999e-20,-0.0024882264467304595,-0.003135417476046967,-0.0025193498430179347,-0.0012821258856016622,-1.4710460121790506e-19,0.0008758445768721852,0.0012363887630678382,0.001092357647745035,0.0006027216517752198,1.3829770314627426e-19,-0.000536942144070175,-0.0007776497991023273,-0.0006987372105787745,-0.00038929149850583595,-2.0022265545261287e-19,0.00023504689529758893,0.0003723878706758509,0.0003638969844621759,0.00021916617875491833,1.4290807485038634e-19,-0.0003289295394254874,-0.0004622006550328284,-0.0003996314905291449,-0.0002125329295500141,-2.289894374432347e-19,8.032401371944133e-05,0.00012654588907441082,0.0001228351810467665,7.34459920955671e-05,6.242135233927063e-20,-9.418489361619309e-05,-0.0001353093905016253,-0.0001198022210279606,-6.535992646018846e-05,-7.986983614785655e-20,1.5092817854581934e-05,3.077115981715779e-05,3.578332437592806e-05,2.445927209733379e-05,3.65826409475771e-20,-7.167745901497234e-05,-9.581575468566028e-05,-7.789315978676891e-05,-3.834964855928983e-05,-6.198593407504198e-20,0.0,0.0,0.0,0.0,0.0,0.0,0.0,0.0,0.0,0.0,0.0,0.0,0.0,0.0,0.0,0.0,0.0,0.0,0.0,0.0,0.0,0.0,0.0,0.0
0.23929910729821402,0.25418486714945737,0.24756924638610833,0.22266206080650194,0.18589678912195337,0.1451219966294561,0.1075574436962709,0.07841640248730589,0.05996230003323814,0.05164863661798894,0.05094488596069819,0.0544583646871201,0.05926056749058841,0.06347783981636586,0.06652054137702347,0.06878733446319257,0.07090385992204999,0.07372739206979705,0.07753932337378282,0.08206361982513793,0.08662978296568694,0.09015881160482728,0.09242682410973245,0.09350524382548213,0.09388401310635146,0.0942310769302998,0.09495336155243084,0.09637070014913401,0.09832701830170604,0.10034737069883412,0.10183237089491266,0.10233335890307663,0.10158202771130528,0.09966339429237553,0.09694003502549779,0.09392227205312853,0.09111038416923577,0.08886430207608245,0.0873330427349745,0.08645479485849522,0.08601217321134438,0.0856676242482142,0.08519415381187084,0.08443047378216971,0.08333856075648519,0.08199997639807377,0.08054220157610607,0.07922486915162534,0.07827918571425055,0.07786216706782914,0.07798777958480313,0.07831831185933782,0.07876082969861917,0.07882573620342632,0.07802479813557295,0.07608252362482193,0.07303152783598862,0.06976329848314565,0.0676055633337223,0.068383301555711,0.07417726766484074,0.08688651189866911,0.1079857634269265,0.13786784107077552,0.1755776088120428,0.21867973644733854,0.2633214463433772,0.30485863646779365,0.33823669057666805,0.3588277887055939,0.3631822052298363,0.3495605343750417,0.3185076563501752,0.27257209540485416,0.21606376625879234,0.1544446235214277,0.09347091442830605,0.03866571058244554,-0.005696878864018648,-0.03696353589653302,-0.05429295818698086,-0.05865121191039145,-0.05215176559570949,-0.03790593138301279,-0.01933824072045622,0.00034442262375095696,0.01845807699508535,0.03341421765475657,0.044405209203281684,0.05141066901312463,0.05498180343448277,0.05587007324741842,0.05514240299971541,0.053624089336631646,0.05191035761146324,0.05034426761490862,0.04894373426466591,0.04783810278637313,0.04697322600768472,0.046280810874787755,0.045706731795334465,0.04510100484367899,0.044577335813723355,0.04413410443419768,0.04375974980449786,0.04343232951389105,0.043004169796302276,0.04258463914450965,0.042161825580031696,0.04170581334448559,0.041157927232447634,0.04030583877022766,0.03919020217906971,0.03775180208101453,0.035980701422541436,0.03394426611289567,0.031601294838170584,0.0294626013543452,0.02779815097835982,0.02683838157061223,0.02673060499334371,0.02723388200229569,0.028662379625490658,0.030778551241815038,0.0332460610455815,0.035733316280130066,0.037842642686157446,0.03969510219530017,0.04135253886649928,0.04296885844296492,0.04473602756691642,0.046776154573923735,0.04920800263086277,0.05208527790000109,0.05536832822517682,0.05892014758158116,0.06245215668146982,0.06578636886275244,0.06873659300992203,0.0711866297516291,0.07310426759624589,0.07443256257785348,0.07539104685577051,0.07613546315352614,0.07681270500986634,0.07753005455100555,0.07823634447243827,0.07904493134723835,0.07994789270491873,0.08092406739268536,0.08195584150576524,0.08293639726490246,0.0839890912729467,0.08516118356171992,0.08648641295705176,0.08795947798191045,0.08941930189127525,0.09086261112977141,0.09217472033266222,0.09323874835808085,0.09396311445805565,0.09420546140926665,0.09408941432785267,0.09371878766602763,0.093231354473527,0.09276006254797682,0.09229989318522429,0.09197982894380681,0.09179375304503574,0.09168327758788015,0.09155701063789799,0.09122360406581964,0.09070397233446312,0.0900010806358976,0.08916656655644263,0.08828148434493549,0.08737081906600526,0.08656559173856775,0.0859061995144103,0.08539515803465325,0.08500595805197299,0.08467396303543766,0.08439829230354041,0.0841359243491264,0.0838522051093256,0.08352866810569366,0.08313680860750183,0.08275546606886534,0.08241729144912549,0.08216485359713264,0.08205137815941432,0.08209614620215674,0.08241384049328931,0.08300701323955081,0.08382552884278027,0.08477283076725972,0.08568345875534383,0.086502216391386,0.08711342459521447,0.08744533263593988,0.08749428337510509,0.08728448970433378,0.08700747669558322,0.08677089515489,0.08663947259618991,0.0866167100657641,0.08660128108360886,0.08658423297903795,0.08646215297279801,0.08617220816102805,0.08573913675642311,0.08524318205880817,0.08498084451833297,0.08515954136322963,0.08590883858305,0.08721127245325144,0.08880741895760104,0.09037124443365956,0.09131183217462485,0.09095629579833293,0.08868340815007979,0.08401224434795367,0.07689014737208566,0.0675108904115859,0.056397656638806276,0.044341704075039894,0.032240494934876004,0.02112250001163162,0.011767253482190463,0.004672783027289817,1.0033421508200456e-20,-0.0024645913751216407,-0.003076956348816576,-0.0024485440476148014,-0.0012338446710823611,-9.013662139925368e-20,0.0008241581417584029,0.0011527155201923878,0.0010098190615099264,0.000552941121367977,7.110017401256426e-20,-0.00048808029387066836,-0.0007032319081498564,-0.000629023102895285,-0.0003491138511723291,-1.3343519242756635e-19,0.00024088345824624705,0.00036732544911563785,0.00034694063790992997,0.00020279756265945993,9.565518022400713e-20,-0.00022660350259898134,-0.00032959533736791834,-0.0002961971814734092,-0.0001644548556476624,-1.3857139034178845e-19,8.807967554350397e-05,0.00014147580450571678,0.00013962035887793553,8.46700007182742e-05,7.808427105681678e-20,-0.00012420713191416287,-0.00017566498839827627,-0.00015284157893022195,-8.177757918125298e-05,-1.057952988706028e-19,1.5450604631698763e-05,3.150061366767156e-05,3.66315954162562e-05,2.5039097827601382e-05,3.7449860397859e-20,-7.33766279375672e-05,-9.80871403471252e-05,-7.973967664452675e-05,-3.925875627487959e-05,-6.345535799527783e-20,0.0,0.0,0.0,0.0,0.0,0.0,0.0,0.0,0.0,0.0,0.0,0.0,0.0,0.0,0.0,0.0,0.0,0.0,0.0,0.0,0.0,0.0,0.0,0.0
0.3631822052298363,0.3791024916308069,0.3587558793652673,0.3071458645721364,0.23469294636650348,0.1544446235214277,0.07890938376104169,0.017550356799698432,-0.024724140542474373,-0.04760609022572134,-0.054292958186980864,-0.04979880858600347,-0.039100036379709505,-0.025995001782397005,-0.012612996695633243,0.000344422623750962,0.01288292602719952,0.02514694821144294,0.036829779619173664,0.04712242551796488,0.05498180343448277,0.059503705874792964,0.06049833403334296,0.05849662112912276,0.05464570421998998,0.05034426761490863,0.04674134065999493,0.044607021188409285,0.044050409381522146,0.044650957642297234,0.045706731795334465,0.046456265742426894,0.046525329182484525,0.04585749728516652,0.04469780029605615,0.04343232951389105,0.042326978418075346,0.04162590175005161,0.04132805926431275,0.04126077801253454,0.041157927232447634,0.04066770987990868,0.03967393798596795,0.03814505380276865,0.03617431361346924,0.03394426611289567,0.031601294838170584,0.0294626013543452,0.02779815097835982,0.02683838157061223,0.02673060499334371,0.02723388200229569,0.028662379625490658,0.030778551241815038,0.0332460610455815,0.035733316280130066,0.037842642686157446,0.03969510219530017,0.04135253886649928,0.04296885844296492,0.04473602756691642,0.046776154573923735,0.04920800263086277,0.05208527790000109,0.05536832822517682,0.05892014758158116,0.06245215668146982,0.06578636886275244,0.06873659300992203,0.0711866297516291,0.07310426759624589,0.07443256257785348,0.07539104685577051,0.07613546315352614,0.07681270500986634,0.07753005455100555,0.07823634447243827,0.07904493134723835,0.07994789270491873,0.08092406739268536,0.08195584150576524,0.08293639726490246,0.0839890912729467,0.08516118356171992,0.08648641295705176,0.08795947798191045,0.08941930189127525,0.09086261112977141,0.09217472033266222,0.09323874835808085,0.09396311445805565,0.09420546140926665,0.09408941432785267,0.09371878766602763,0.093231354473527,0.09276006254797682,0.09229989318522429,0.09197982894380681,0.09179375304503574,0.09168327758788015,0.09155701063789799,0.09122360406581964,0.09070397233446312,0.0900010806358976,0.08916656655644263,0.08828148434493549,0.0873322948604747,0.08648734403070647,0.08580994763296557,0.08532315431971094,0.08500595805197299,0.08469853363936244,0.08443423850369121,0.08416683557073452,0.08386736662550394,0.08352866810569366,0.08305344908843887,0.08259916327294113,0.08223713787886294,0.08203715388198071,0.08205137815941432,0.08218121683280145,0.08255375227018098,0.08314833901320522,0.0839131852723716,0.08477283076725972,0.08551940215811236,0.08620717133770141,0.08678557473340488,0.0872202324720857,0.08749428337510509,0.08748777860376329,0.08735544441108295,0.08713951048686445,0.08688133408653678,0.0866167100657641,0.08624865335803751,0.08594828880214818,0.08575064692822619,0.08567811154900948,0.08573913675642311,0.08579679578902291,0.08599034654700695,0.08631005759674583,0.08673007861715029,0.08721127245325144,0.0874976082877994,0.08777167452637906,0.08805409094453132,0.08836149244779025,0.08868340815007979,0.08868155231749286,0.08857308773655864,0.08837355317555078,0.08811829357850282,0.08785375293877097,0.08742463857535072,0.08707630720505097,0.08687380045906899,0.08685512734317916,0.08702409772746217,0.08724295148584847,0.08759788186129129,0.08804860056210981,0.08855672399115347,0.08909447015885523,0.08952649605722411,0.08997820319122048,0.09043827479196695,0.0908616410060216,0.09116484259024829,0.09111160340648604,0.09074155901743802,0.09000796873327606,0.08893066980574699,0.08761309014971645,0.08614992820205737,0.08488186429646598,0.08403137815018819,0.08374773671762879,0.0840613377091846,0.08481382224420891,0.08583933889682406,0.08678853063663965,0.08730853484967181,0.08717465432273268,0.08637687119991364,0.0853871419269798,0.0849648061682867,0.08618391485033147,0.0902879709362807,0.09841445596180794,0.11148312430892875,0.12970184630595985,0.15245673119962602,0.17826181013951828,0.20482870520527457,0.22951480468723745,0.24949538260265608,0.26230015536993007,0.2662356493427558,0.2606349414327968,0.2461390356208234,0.22436547582033559,0.1977145590261747,0.16898049204419896,0.14088047748373128,0.11584852265787565,0.09554111866374754,0.08080684605905747,0.0717253347456421,0.06771077594039576,0.06788867892993061,0.07108026652499855,0.07606487443069779,0.08171004685482876,0.08699429923174992,0.0912026387239233,0.09368992117157147,0.09396249604907649,0.09169475896401542,0.08671070934412313,0.07919460716718998,0.06947422206045742,0.05810648739047082,0.04584737948200771,0.0335339469056445,0.0221476142992949,0.012460098610636553,0.005003564587265457,5.173260576527768e-20,-0.002700747856370714,-0.0034155980429904607,-0.0027538034524309894,-0.0014058839914463648,-1.5878125878804412e-19,0.0009684928060962974,0.0013701491039314609,0.0012128051993348498,0.0006702586781616431,1.5534044730675868e-19,-0.0005951350095674431,-0.0008638336806996248,-0.0007778798864657818,-0.0004343285153204381,-2.236620313431843e-19,0.0002657269070869138,0.00042104430172876435,0.000411437743597297,0.0002477720784025202,1.6513649589820466e-19,-0.0003695645723218264,-0.0005197685344893283,-0.00044984214065873227,-0.00023948647500780958,-2.605625631423578e-19,8.812178703930334e-05,0.0001402679103583418,0.0001373702159970442,8.276637432304409e-05,7.358843158392166e-20,-0.0001144208465756355,-0.00016291002906068696,-0.00014281322624137523,-7.706192366706453e-05,-9.727728636463767e-20,1.597524832553068e-05,3.257025454623462e-05,3.787546489504107e-05,2.5889330235175965e-05,3.8721515039277616e-20,-7.586821878722995e-05,-0.0001014178060948947,-8.244733239632302e-05,-4.059183413158973e-05,-6.561006030018112e-20,0.0,0.0,0.0,0.0,0.0,0.0,0.0,0.0,0.0,0.0,0.0,0.0,0.0,0.0,0.0,0.0,0.0,0.0,0.0,0.0,0.0,0.0,0.0,0.0
0.2662356493427558,0.28347542663644715,0.27722291952046735,0.25106796463561365,0.21211823043221525,0.16898049204419896,0.12949187696290537,0.09921322163191988,0.08040838781851882,0.07223980553150752,0.0717253347456421,0.07501912764202584,0.07889314445601513,0.08139865523515681,0.08209958890519838,0.08171004685482876,0.0813537326563553,0.08209048778311655,0.08432965648952884,0.08778400216665502,0.09169475896401542,0.09515185269708984,0.09765193103788386,0.09913753251206653,0.09998871318589807,0.1007922364742654,0.10196579942802088,0.10376399334702492,0.10601737081417709,0.10825451690931491,0.10988971398451539,0.11034566473172552,0.10949151738881825,0.10748218148753924,0.10473599262012574,0.1017782182305476,0.09897924623802427,0.09671484574599507,0.09511558219666066,0.09414551920877949,0.0936667224765798,0.09341693129061894,0.09334097107710916,0.09339558569141307,0.09357864706128519,0.09388455933804406,0.09417026148792806,0.09442379164723719,0.09455797273231484,0.09447947670645057,0.0941023961995083,0.09312516855438144,0.09185367382540965,0.09030184905659144,0.0885109502426401,0.08656848868378203,0.0844141872612122,0.08245837555836025,0.08086534136631394,0.0797264937515261,0.07903458116805576,0.0785300285347025,0.07819847936091034,0.07787543334469794,0.07742468530735355,0.07678034935780995,0.07576386368298726,0.07473671355674964,0.07398624266299111,0.07382881411186731,0.07452611754756414,0.07594351732474457,0.07833504429373843,0.0816075444740171,0.08554413662400229,0.08983630362281052,0.0937222919393705,0.09727895904872882,0.10039195165736048,0.10302212681858386,0.1051464896980569,0.10616059943910477,0.10652481927928058,0.10639428879872596,0.1059840476105741,0.10552831486497634,0.10489227405779189,0.10454031416928693,0.10460361427962478,0.10509701665083225,0.10591014003189578,0.10671600683844483,0.10741502140246821,0.10781464198080722,0.1078258824494574,0.10750662630808398,0.10695408570159301,0.10659524754389381,0.10673159699656923,0.10756029069959683,0.10910311258427217,0.11109356991618752,0.11331728984581331,0.11537107587278606,0.11690605994682073,0.1177670731611879,0.11802440097984755,0.11824815763962597,0.11916994420645174,0.12163927061358078,0.12643103373810355,0.13398678367831401,0.1444308055755065,0.15727283620473145,0.17155934270368842,0.18609698948745282,0.19975580258160736,0.21197059445553493,0.2228715963593837,0.23350716235931288,0.24576294523680206,0.26199720452980724,0.28453509115976683,0.3148434184406441,0.3529618268320596,0.3971150404992421,0.4436954914185104,0.4876706838545697,0.5232385438285759,0.5448925945338284,0.5484671357616822,0.5320036499975053,0.4961479637857807,0.44400970272437007,0.38069653070145393,0.31245485140434015,0.2456838912014829,0.18588826545288673,0.13687609185261213,0.10044695232874497,0.07644256704699813,0.06318004868735833,0.057946772723326406,0.057614394481891956,0.05928301328933798,0.06072857275973965,0.0606417047005101,0.05862961314445471,0.054914254201439444,0.05012401561096154,0.04501457847248117,0.04021477675724559,0.0361831746501868,0.03296265336585946,0.03032182495220203,0.027887268618832693,0.0252345240982426,0.022222022054840817,0.01875237479313494,0.014878701887636039,0.010759958765184225,0.006496604901918269,0.0023919356732581454,-0.001480581870630584,-0.005144143047605099,-0.008683507300000323,-0.012335340356757596,-0.015988498424967277,-0.0197454945707891,-0.02373740022512868,-0.02812697336518487,-0.033271657207090764,-0.03907563167994614,-0.04566692297832928,-0.05305832173727209,-0.06106792292518242,-0.06952507707712466,-0.07747961526389904,-0.08440595437885509,-0.08994868742479958,-0.09400887248517995,-0.09706179457669384,-0.0990349110879207,-0.10060558418659997,-0.10246569579457261,-0.10505840937464833,-0.10855648625359572,-0.11220472016215498,-0.11523858456429839,-0.11679001703069357,-0.11610794626411672,-0.11279664386067027,-0.10678689666187025,-0.09854415572416211,-0.08888662211397268,-0.07878453544026581,-0.06916116784011243,-0.0605746361393482,-0.05325785024287753,-0.04704618603220707,-0.04146112461641489,-0.035893472571349096,-0.029706111280820322,-0.02252242877659165,-0.014289507596947928,-0.005292380721861157,0.0039049432789301426,0.012653282775519172,0.02031348771084137,0.02643808547334964,0.030876363172692576,0.03379554953198845,0.03564431039756377,0.036998390800940334,0.03840956200117988,0.04025216501670224,0.042621198238395344,0.045283764789539487,0.04775353405510083,0.04940402574405092,0.04962796686071192,0.04800859104957319,0.04437848518656794,0.038936205348895594,0.03218244573416812,0.02481398343035596,0.01761239464664999,0.01118090716074216,0.005992785121954593,0.0022741404730887023,-1.4492468378356734e-19,-0.0010082643621844522,-0.0011860019290014139,-0.0008916378733810236,-0.0004262953480957095,1.6551181218148096e-19,0.00032852021557283097,0.00043016869062331535,0.00035141508605510087,0.00017896104112539502,-7.484617458850938e-20,-6.495311150543507e-05,-0.00010207761424275768,-0.00010125746149819404,-6.288278209149096e-05,9.2944081355177e-20,0.00010494000802440642,0.0001520274842441334,0.000136702894711089,7.629567937796468e-05,7.26791826123945e-21,-4.171940281557491e-05,-6.884221293418239e-05,-6.98405621411606e-05,-4.354937176383108e-05,-4.272925137513193e-21,4.631022534950103e-05,7.309564748615564e-05,7.106773571816523e-05,4.255285416351762e-05,3.6473818244437045e-20,-5.535551963616438e-05,-7.938595665130826e-05,-7.015238019652433e-05,-3.8191750430269046e-05,-4.6965576121800033e-20,8.64628582318661e-06,1.7628003296238744e-05,2.0499343014608018e-05,1.4012085723040707e-05,2.0957250849200275e-20,-4.106216636908871e-05,-5.489037298128183e-05,-4.462298092221998e-05,-2.1969523905816847e-05,-3.55101418564666e-20,0.0,0.0,0.0,0.0,0.0,0.0,0.0,0.0,0.0,0.0,0.0,0.0,0.0,0.0,0.0,0.0,0.0,0.0,0.0,0.0,0.0,0.0,0.0,0.0
0.5484671357616822,0.5795615306042977,0.5604556698248141,0.4989172488263023,0.4101369638930648,0.31245485140434015,0.22281722422707256,0.1528256616665386,0.10715490067768477,0.08385634028576508,0.07644256704699812,0.07691129143008857,0.07817819703657534,0.07606948770801472,0.06970093144892536,0.060728572759739655,0.05198511486881994,0.045795952836753515,0.04315569672356811,0.043467577167070566,0.045014578472481165,0.04584507991548652,0.04448970105190235,0.04052731455454374,0.03457344649698165,0.0278872686188327,0.021796720847366006,0.017172032778491216,0.014177696696760183,0.012323718773047034,0.010759958765184222,0.008630773200291115,0.005465217760571839,0.0012440554798718098,-0.0036576068479633717,-0.008683507300000321,-0.01338131586465267,-0.017483861351963007,-0.021059867817573533,-0.024447240782953322,-0.02812697336518487,-0.0326145114527054,-0.038197183737451984,-0.04495279108870909,-0.052706728515647915,-0.06106792292518242,-0.06955513949770775,-0.07754067597809139,-0.08448106467644734,-0.09000487562991191,-0.09400887248517995,-0.09704262086969599,-0.09900686041763652,-0.10058146256924479,-0.10245386448306978,-0.10505840937464833,-0.10862380646345798,-0.11233130293441397,-0.11538484042851961,-0.11689391134689606,-0.11610794626411672,-0.11272881076040547,-0.10667559775314481,-0.09843205014556912,-0.08881732572146783,-0.07878453544026581,-0.06929363743024337,-0.060813142168711934,-0.053523143852265496,-0.047228500085534905,-0.04146112461641489,-0.03573011867199781,-0.029426762252662497,-0.02222682322144018,-0.014095787514866731,-0.005292380721861157,0.003618479445028992,0.01213618361362497,0.01973455020286735,0.0260358801425557,0.030876363172692576,0.03424019284453414,0.03645334749192073,0.03791832491904706,0.03906464819703615,0.04025216501670224,0.0416345031037291,0.04333228282189053,0.045310759614518546,0.04745602046453965,0.04962796686071192,0.05165006130680878,0.05350422713425936,0.05524134469828366,0.05696357530536425,0.058768674912210384,0.06066050381578995,0.06260274288708119,0.0645257126237432,0.06632859233307044,0.06790938296370884,0.06918377119808922,0.07011114914575031,0.07079748251970819,0.07140546649562547,0.07208945400639671,0.0729249734535307,0.07385221389690083,0.07480399888910243,0.07565914810526389,0.07626952504908459,0.07649503005075368,0.07619884358372894,0.07542888477441705,0.07432954944243904,0.0730945615422719,0.07189033005117958,0.07085295478815809,0.07012454909966277,0.06980077235866645,0.06991959803545919,0.0704150673245688,0.0712421942488422,0.07234455263656438,0.07365382062309804,0.07508280404144031,0.07645868829233213,0.07771866843885655,0.07878935465404284,0.0796318802589995,0.08024601004742145,0.08058345442676092,0.08079526456742077,0.08098240004036533,0.0812346688152448,0.08160244119203702,0.081986257146469,0.08241548577728638,0.08279856240405002,0.0830187442067256,0.08295887233665261,0.08242902910761739,0.08149616057810007,0.08020444893112658,0.07865539829068714,0.07698810236084079,0.07525175108852271,0.07369605541083267,0.07243968337938118,0.07154616459694925,0.07101733238502897,0.07069628677224225,0.07061147862528809,0.07067241191095058,0.07079059561016916,0.07089691809003272,0.0708024539047163,0.07067190698005088,0.07057493107280666,0.07059059975635314,0.07077650379503649,0.07094664201374112,0.07127671310936746,0.07175708025686044,0.07235743537379781,0.0730315712315643,0.07360124612277359,0.07414364259112168,0.0746234754516969,0.07501084759377571,0.07528663866809211,0.07540406436661284,0.07544197390246699,0.07541023868193737,0.07532015879540233,0.07519034687694343,0.07500816183435376,0.07488395106837469,0.0748461221805786,0.07491237703461014,0.07509405508579474,0.07535684572697263,0.07577790668241259,0.07633523779927015,0.07698664954382067,0.07768104056434043,0.07832661509109322,0.07895822509150068,0.07952750389145441,0.0799818146376968,0.08026802604288612,0.08028877176510775,0.080063753215378,0.07951893790314743,0.07858858420951986,0.07726241930016899,0.07560274732370935,0.07394818406118137,0.0727431479382228,0.07260296002801905,0.07425681255745184,0.07839397388908277,0.0856392431767321,0.09618871745416774,0.1097293649176091,0.12536967376811456,0.14163735207771555,0.15676752973880242,0.16876728653248385,0.17579545857651027,0.1764825349787773,0.17014944407018726,0.15708273157787414,0.13833753613580516,0.11564773574852788,0.09115859943983044,0.06705756524528758,0.04538617873426002,0.02758091394547698,0.014386132803222089,0.005834663900883564,0.001311877884885777,-0.00010242505585688092,0.00040950858616080766,0.0017132457311731064,0.002917331950441782,0.0034472730029980444,0.003212046857010072,0.0023438985979227504,0.001153341667888792,3.613097096471134e-20,-0.0008608904901573776,-0.0012052140979095368,-0.0010559218019711531,-0.0005773584114531069,-1.1669406653975148e-19,0.00042221627780282826,0.0006291687962321882,0.0005825073425816122,0.00033469567583524604,1.0374084089958357e-19,-0.000333070599584382,-0.0004894782532635811,-0.0004451814080756447,-0.00025053867227031203,-1.6024541514390674e-19,0.00016868483450367908,0.0002623718361555534,0.000251863284752502,0.00014915868512757412,1.1589433574148925e-19,-0.00017419979415984776,-0.00025316965694489814,-0.00022700446878300498,-0.00012556388855854942,-1.4375371212700726e-19,3.5559312479271885e-05,6.999142830087894e-05,7.97537857606175e-05,5.380645770912699e-05,7.728152277642866e-20,-0.00014952612052767668,-0.00020051448907584848,-0.0001636679504368003,-8.100920814090457e-05,-1.2920222527821106e-19,1.0165270705297756e-06,2.072490190176317e-06,2.4100680371383493e-06,1.6473737675728508e-06,2.4639033739742497e-21,-4.827599334831186e-06,-6.453354791639863e-06,-5.246237402137211e-06,-2.5829143557832467e-06,-4.174858570907975e-21,0.0,0.0,0.0,0.0,0.0,0.0,0.0,0.0,0.0,0.0,0.0,0.0,0.0,0.0,0.0,0.0,0.0,0.0,0.0,0.0,0.0,0.0,0.0,0.0
0.43862586428105405,0.46187736092314907,0.44390096666846285,0.39085308764259014,0.31501400545489183,0.231382647005483,0.15393431177743233,0.09262906071552071,0.051865581745566866,0.030647888033338518,0.024139429729911937,0.025917669842554517,0.030174823375840782,0.03315535970391021,0.033596582936686256,0.0322336775971494,0.030745046728701368,0.030675906019024642,0.032670729145214836,0.036288866958460606,0.040327925464386835,0.043418553308610504,0.044643052422618484,0.04384377842963109,0.04160473476948607,0.03893187054994665,0.03678791910319959,0.03577374550895398,0.03591404996568519,0.036739532888816595,0.03753581563550643,0.03761882402123517,0.03665563807790529,0.03468547554181294,0.03206286270193856,0.02927988369320493,0.026735913075268104,0.02470044615936913,0.02319433756449738,0.02205363085683479,0.021023951750903425,0.01982034777312044,0.01831186908120327,0.016457734536591172,0.014313350170253895,0.011995252774613382,0.009609899729050724,0.007347633652827949,0.005383486807205074,0.003881398406924996,0.0029665537983233365,0.0024296579219644427,0.0026836541604340555,0.003545030441814191,0.004725632170079418,0.005936015129998876,0.006818160254245579,0.00753539722974387,0.00809042451673493,0.008528188835025844,0.008905476461674415,0.009223574213988532,0.00953545905281185,0.00982460722329339,0.010057219139676388,0.010207130521400999,0.0102368520809974,0.010256842366024265,0.0103804227901568,0.010750641698850287,0.011508784581127578,0.012708372039885046,0.014446901063141497,0.0166809182342832,0.01928279981229152,0.022064554709198193,0.024760885421655304,0.027248615828385173,0.029405067065296567,0.03118450537473701,0.03262032483726881,0.03374831749991746,0.03476694665771964,0.03581212162920477,0.03697822601592891,0.038293335603329356,0.039663135151017694,0.04103795485109617,0.04229010549136351,0.043295173689294864,0.043966346369389904,0.04424047543442056,0.04420304699799873,0.04396100151430312,0.043646552900738184,0.04337871204278085,0.04319409760828832,0.04312848036935615,0.043121056919280636,0.04305579536916975,0.04279107771617178,0.04216695181055703,0.04112919488333769,0.039681567839070314,0.03790766793810545,0.035954404469763133,0.03396649192445093,0.03215767135737409,0.030689196793812278,0.029665530245636337,0.029117731223354492,0.02896105994866851,0.02913310679685619,0.029513283935139748,0.029977544186432392,0.030421877573343237,0.030749674599486885,0.03097722181567498,0.031151356271296404,0.03136279695296907,0.031726023923331986,0.032332494954408805,0.03328823842544485,0.03462737817347348,0.0363148488835561,0.0382424322561037,0.04020050889651966,0.04202354991796164,0.04350369718554617,0.044458510541119586,0.044758840588875415,0.04429179057770076,0.04314841112724895,0.041446239469068544,0.03936373312845756,0.037113338394591716,0.034846729792855746,0.03282827591637362,0.03121292754726768,0.030088378408626118,0.029467836200308024,0.029223608415287997,0.02933004415831291,0.02966513776050663,0.030103039276195172,0.03053692496812283,0.03083066866057179,0.031036743513588174,0.031187638666840864,0.031349492948645336,0.031606013735937626,0.03198020666536521,0.03260730948789452,0.0335250597688068,0.034721648064487784,0.03612955552152667,0.03757231548896476,0.03894323984373214,0.04004903643944687,0.04068316802614066,0.040653097307115714,0.03976377877632784,0.03799985214145159,0.035402331008711006,0.03212509177058972,0.02842978451488106,0.024615621738842998,0.021129241628289067,0.018364641453888084,0.01665190244047578,0.016206471722646408,0.017047951971183636,0.019136386693453508,0.022237903220009327,0.02600834877358933,0.03004931812284289,0.033937214541755495,0.037401601856965075,0.04023881392613185,0.042380381250302766,0.04389216452303938,0.0449227301316188,0.0457415479893415,0.046563234888415315,0.047537298733121305,0.04871605129765812,0.05002714860233124,0.05136344741479873,0.052524458340502456,0.05330316961263717,0.05353993807227686,0.0531467767006346,0.052181068459252425,0.050758784533114665,0.0490527171974154,0.047254066648313574,0.04551813266476465,0.04399568032930722,0.042741099495492436,0.04174755812257643,0.040968195224350294,0.04032475968658394,0.03979019369234458,0.0393175230498634,0.038872585243545664,0.038432478512659234,0.037962485739698425,0.03748420628204315,0.03698318565942471,0.036450952490441745,0.03589676180096818,0.03533328589457239,0.03485347925572574,0.03451100054081867,0.03433895440191474,0.03433110620488906,0.03441196611921106,0.034486991949252366,0.034377151212680646,0.033871199799187984,0.03276545060880994,0.03089925056449357,0.02822503942646147,0.024790036755065158,0.020755992444835985,0.01638272530440497,0.011976144888223558,0.00789756353774798,0.004432386517694167,0.0017743128473309178,2.0652564052292085e-20,-0.0009576366511009576,-0.0012051105002696093,-0.0009660008160491868,-0.0004899793985351964,-5.704248312822922e-20,0.00032304240982415286,0.00045584737325313966,0.00040283444919619426,0.00022243376943747745,4.102433761985264e-20,-0.00020962228595534569,-0.0003007431057773226,-0.0002675312223122362,-0.00014750278530051042,-7.181869747248952e-20,9.398347992865689e-05,0.00014406556744805488,0.00013670981737267654,8.024320218838986e-05,4.098305581348988e-20,-9.340677277694539e-05,-0.00013517823589160108,-0.00012080891317697845,-6.667093793781464e-05,-5.949552892118207e-20,3.327745559205365e-05,5.376905756803867e-05,5.3327641326463004e-05,3.24738717735803e-05,3.063111520088455e-20,-4.938113407124322e-05,-6.956863531888696e-05,-6.026329377037313e-05,-3.2081723065808915e-05,-4.210659394913623e-20,5.708463775765703e-06,1.1638386737783114e-05,1.3534106947063364e-05,9.25108022203018e-06,1.3836427543428518e-20,-2.7110124979192275e-05,-3.623980425926208e-05,-2.9461051296508685e-05,-1.4504751976953845e-05,-2.344455904017665e-20,0.0,0.0,0.0,0.0,0.0,0.0,0.0,0.0,0.0,0.0,0.0,0.0,0.0,0.0,0.0,0.0,0.0,0.0,0.0,0.0,0.0,0.0,0.0,0.0
0.27578743801731953,0.2892305562443707,0.2762642446728103,0.24090281765083407,0.19108335132926482,0.13646382703439108,0.08594813297893794,0.045852521925326,0.018781130320648563,0.0037375822508790234,-0.0028597839485373843,-0.005705068695287558,-0.008946707007668277,-0.015217363275818208,-0.02519628407191836,-0.03784980382892851,-0.05116830633122677,-0.06280227988795745,-0.07086791953925353,-0.07428759666679334,-0.07283982370931966,-0.06704233909764847,-0.05766093280644214,-0.045623745985502694,-0.031852723137224564,-0.017244327473107272,-0.0027715126336536455,0.010728595924449033,0.02244854530683691,0.03176315849543327,0.03835116876310512,0.042196467966952866,0.04380422430850781,0.043919678239351265,0.043382822762022454,0.04292123001527225,0.04291910648216732,0.04356959335711739,0.044749537559438064,0.04616701931701353,0.04749129126743938,0.04839422320863926,0.0488176458695322,0.048820748715551525,0.048569385319305686,0.04826142192687258,0.047997353915184615,0.04792402777732181,0.04808695729746872,0.04847408057429279,0.04903155258630577,0.0494841553774321,0.05005730092506686,0.050656487972842223,0.05118707254617535,0.051596505298098456,0.051776981772023146,0.051987768022550784,0.05236472809577079,0.053048757687289755,0.05416145800989113,0.05573511858075712,0.05783242095201422,0.060431563485573825,0.06344126558135162,0.06669983316551899,0.06995701784217453,0.07298525165647789,0.07560143799679787,0.07769388492028695,0.07923820832114684,0.08027726237696152,0.08092241495402248,0.08137853069060716,0.08184847123317752,0.08246947958541491,0.08322329523284484,0.08406266189688329,0.08485594556327045,0.08544689222408654,0.08570075084968298,0.08546444166700054,0.08483079712029697,0.08390421262436237,0.0828374265115759,0.08178540533522928,0.0807770603429495,0.07994112512479717,0.07925080604770832,0.07860745521828699,0.07787005982077559,0.07680958203300783,0.07542141083778181,0.07369353806309228,0.0716913279429775,0.06954258601625123,0.06732398435778392,0.0652845078310377,0.06355627966783282,0.0622041397311766,0.06121511221172687,0.06042778618301059,0.05980797095755248,0.05923609719817313,0.058614750388462894,0.057893673838652376,0.05699750296208742,0.05609120307113429,0.055299658937039024,0.054756894681830655,0.054572235465577885,0.054712132932154496,0.05527068116794191,0.05619122395743371,0.05736345310245866,0.058646443923010494,0.059799325775880166,0.06082003000115709,0.06165021680015283,0.062275978840705994,0.0627206523804431,0.06292504691212322,0.06306899522712549,0.06320900389033977,0.06337702863864393,0.06357974082269847,0.06370190344431152,0.06385186178309739,0.06402437636354041,0.06421780403413106,0.06443882926495384,0.06460109960053456,0.0648515447180091,0.06521409294079356,0.0656920339120279,0.06626366861778422,0.06678210461733909,0.06730274315981384,0.06775125781226003,0.06804112583715397,0.06808850797061461,0.06773047101536239,0.06705665240834507,0.06608918305141859,0.06488893054063809,0.0635525268808788,0.0621078620298744,0.06080549296189551,0.05978860548023657,0.05917004357040579,0.059016545791142995,0.059247092327104185,0.05992670627909229,0.06097917483033364,0.06228853055761632,0.06371569054764138,0.06503070693761302,0.0662120746949656,0.06718528707034314,0.06791676789449616,0.06841483530413978,0.06864028934430719,0.06875666297112937,0.06885012594796737,0.06898977588164015,0.06921115463752087,0.06942301774713552,0.06967908308609366,0.06991579639790498,0.07005189980984902,0.07000747397090196,0.06963601126000955,0.06901612896888337,0.068175364106657,0.06717440000957044,0.06609699726061576,0.06497502196052439,0.06397491372832821,0.06316061067860905,0.06256336605124138,0.062186520550329534,0.06197925658142456,0.06196999483946332,0.06210455727022026,0.062315882619289796,0.0625382521429924,0.06268595517528934,0.06279371974397432,0.06285101199078343,0.06287007676770116,0.06288998373565527,0.06293573910836085,0.06313670111960049,0.06352876335599972,0.0641031939954092,0.064804710953991,0.06550715480856013,0.06615686882398188,0.0666328023905164,0.06683636310249708,0.0667194381723267,0.06626641684708412,0.06560336138074112,0.0648215123397939,0.06400561757689911,0.06321414253050223,0.0624369851418428,0.061725788755772996,0.06104706143469772,0.060372122857280566,0.059708846888677745,0.05908219524273954,0.05866075000045813,0.05854737370307219,0.05880082482385542,0.059396039554281375,0.060159352441209374,0.06089782062732061,0.06124227280631106,0.060769150165190744,0.059083232219885005,0.055867474712108,0.05109087903968902,0.044865517941189315,0.037515201985763,0.029541616109942503,0.021519097284205493,0.014129519648642572,0.007891124722385743,0.003142018342501361,1.3989488287063966e-20,-0.0016691010654389573,-0.0020894679785347014,-0.0016669654510436302,-0.0008419775577140657,-7.125324899088807e-20,0.0005619800220585691,0.0007881206330905238,0.0006921971999913606,0.00037994286624057805,5.53537832983459e-20,-0.0003400363921889566,-0.0004898037944425138,-0.00043787612669599855,-0.00024282661158196391,-9.997017521468371e-20,0.00016408512662313972,0.0002509545567871887,0.00023766245675059018,0.00013925267233236966,6.850893120340502e-20,-0.00015949687919373747,-0.00023126547489716318,-0.00020712265785038518,-0.00011457373747558849,-9.9647339540491e-20,5.9131750962810356e-05,9.517389225903656e-05,9.408743172916226e-05,5.713986106854524e-05,5.3114333660712324e-20,-8.489069717968911e-05,-0.00011989416344419815,-0.00010415335275853067,-5.562768424572116e-05,-7.23348132293852e-20,1.0293601480080997e-05,2.0986542028766724e-05,2.440493778611724e-05,1.6681709266529357e-05,2.495008756028494e-20,-4.888545037207712e-05,-6.53482473418951e-05,-5.312468172574259e-05,-2.6155221839548704e-05,-4.2275637915112804e-20,0.0,0.0,0.0,0.0,0.0,0.0,0.0,0.0,0.0,0.0,0.0,0.0,0.0,0.0,0.0,0.0,0.0,0.0,0.0,0.0,0.0,0.0,0.0,0.0
0.3564927582775701,0.3760804353511531,0.3626337345467155,0.3211891663378101,0.2616786463504115,0.19615247727861612,0.13576659014686748,0.08831715775633876,0.057071754698100184,0.040944987914331286,0.035812196279662145,0.036398227555595256,0.038025626825146486,0.037815998067495436,0.035007328848630455,0.030507522274246687,0.02598270957393748,0.022951686427633584,0.022116875838890618,0.02319949135657085,0.0252028482688312,0.026884875368847476,0.027377397352606175,0.026407307481711183,0.024326851835596703,0.02187068842176658,0.019625890190514774,0.01822737819404646,0.017805655379113508,0.018087863626789272,0.01853852857470195,0.018261366763458905,0.01710401802066039,0.015071004740993297,0.012457802525439567,0.00970235732503703,0.007063113277289622,0.00489004781026175,0.003245770002983519,0.0019941036464927856,0.0008661860753721044,-0.0004184070944038607,-0.0021420696968427527,-0.004458298340040661,-0.007367052913605774,-0.010706561683565857,-0.014177960639258715,-0.017400190799544295,-0.019990781828843958,-0.021657472215823693,-0.02227930944250382,-0.02216191197551183,-0.021235598249839248,-0.019959251320735824,-0.018816872316653386,-0.01813363003034158,-0.018071451801187733,-0.018138943098695345,-0.01783351155048946,-0.016596282372481435,-0.013987950618179335,-0.009885278664183044,-0.004434231241055145,0.0018322317571843852,0.008180754176084822,0.0139159464237033,0.01862759330025069,0.022551206011234514,0.026591162600649414,0.032332412660257256,0.04181984346558593,0.057133856072724275,0.07997183064227462,0.11103588848056473,0.14966148674037552,0.19363808404074817,0.23930103871761507,0.28202170288580325,0.3167927191142611,0.33905122580024977,0.3454563246159104,0.33447400241606134,0.30673426853829217,0.2649080140738152,0.21331900085570688,0.1572699502307495,0.10222508324738871,0.05306314514725548,0.013413720579100058,-0.014696846373593496,-0.030916424154411475,-0.036372090503973345,-0.03324735452192319,-0.02429376326890509,-0.012324132749788077,0.0002020445427789244,0.011437730918687536,0.02029303131856456,0.02638428642996097,0.029885623171201615,0.03132051323996932,0.03132928526153353,0.030542161280906383,0.029455501433082815,0.028380223026226576,0.02744862851272152,0.02663329119050283,0.025881418076635153,0.025135623951281418,0.024367078149801397,0.023576743785473715,0.02274449339743439,0.021905534028231,0.021078419882060155,0.020268373259585273,0.019467893565411655,0.018625952092829547,0.01777632992700483,0.016935088836843814,0.01612442670707024,0.015359043345349595,0.014590815896561908,0.013846253635617702,0.013080266688145915,0.012246909350113973,0.01132510326465881,0.010223849221711425,0.009206940937818622,0.008346967018229852,0.00769893999218618,0.007291163183968024,0.00692931426156058,0.006891793838407148,0.007031045509981722,0.0071547449687766876,0.007112232869381516,0.006778774567728655,0.0063973669065410105,0.006148012710052183,0.006253871102099776,0.006933302554795011,0.008367311360731374,0.010587483668979865,0.013537728641785112,0.01704270836723295,0.020832162749455277,0.024588340864091736,0.028012311207108318,0.030883769314969882,0.03310772696684124,0.034731022944115536,0.03590301358593571,0.03690154068511143,0.03797209355857919,0.03929059401483173,0.040912173649832545,0.04271029946500846,0.04451817904461527,0.0460467093178262,0.04698950864097926,0.04709332435554955,0.046158949927601715,0.04425416845175268,0.0415501384759715,0.03833183732284775,0.03493541486424326,0.03161409865096719,0.02866643177112936,0.02622760659051583,0.02430192721603315,0.022777505372936973,0.02140018258389519,0.020032939897256623,0.018539276020374362,0.016864930740618924,0.015043963845573771,0.01314206233017815,0.011324841289536508,0.009715573342369872,0.008381262334637396,0.007310422318210568,0.006412332095047802,0.00555895945987135,0.004610233265397347,0.003469110419642133,0.002119285225284081,0.0006361572999107196,-0.0008131174133924435,-0.0020277148420785205,-0.0028206341296345906,-0.0030718518676424054,-0.0027687294418091055,-0.002000960119630025,-0.0009544465675762656,0.00014783645462908046,0.0011140268988999366,0.0018375863083347375,0.002381616916739251,0.0029328265008729563,0.0037901228534325633,0.005299905665442279,0.00775229095767386,0.01136345404681051,0.01612211254328409,0.021802092054467138,0.02799442014074591,0.034163029841034816,0.039830615180598924,0.044582452447887354,0.04819577107625657,0.05068893461604954,0.05228697600207739,0.053444764778289314,0.054611514445983854,0.056148495825562986,0.05822165850085713,0.060719341812735146,0.06331770896440814,0.06545162194351459,0.06646432887078496,0.06575438238566471,0.06290423749701848,0.05782627159903461,0.0507430364965187,0.042179986557904794,0.032877191192832354,0.023652849767294454,0.015292572201244706,0.008388294910868926,0.0032734790819656636,-5.524193050397795e-20,-0.001634910454872799,-0.0020019691968219417,-0.0015643244511440117,-0.0007751461114868597,2.7081288617517095e-20,0.0005283003776171357,0.0007241507279436401,0.0006218203742606198,0.0003339399682638969,-5.048569070051211e-21,-0.0002583072969331234,-0.00037395779517071124,-0.0003370813355907465,-0.00018901341343159682,-1.8557117447008678e-20,0.00015759950545847848,0.00023506606291660284,0.00021749513192581213,0.00012476155843342258,3.968349808778945e-20,-0.00011098716272649471,-0.00016674676046857272,-0.00015504719593920178,-8.919749210163321e-05,-5.366147768220562e-20,6.306234362304984e-05,0.0001003214732212473,9.820040994988036e-05,5.914138453590512e-05,5.2455565867258155e-20,-8.143456812111894e-05,-0.00011599851361375428,-0.00010174128590691346,-5.4931206475642214e-05,-6.922429325839782e-20,1.1455862897410838e-05,2.3356154659526462e-05,2.7160525093050398e-05,1.856525868245724e-05,2.7767228304118435e-20,-5.440515821643129e-05,-7.272678698349539e-05,-5.912304566058508e-05,-2.910843556796395e-05,-4.704902485231101e-20,0.0,0.0,0.0,0.0,0.0,0.0,0.0,0.0,0.0,0.0,0.0,0.0,0.0,0.0,0.0,0.0,0.0,0.0,0.0,0.0,0.0,0.0,0.0,0.0
0.3454563246159104,0.3614332956857377,0.34352457355495675,0.29655353113525196,0.23038888966902996,0.1572699502307495,0.0888213732808546,0.03362724262729676,-0.004096953811078417,-0.02448809201971621,-0.03091642415441148,-0.028282766216928056,-0.021311644477223838,-0.013393356091218285,-0.006165167053926839,0.00020204454277892903,0.006275742958065231,0.012650792227367166,0.01939325597121002,0.025934946311978742,0.03132051323996932,0.034613202880649944,0.035391067379517985,0.033874556522747255,0.03086540598674965,0.027448628512721524,0.02457745214486409,0.022875329657924087,0.022425647529038112,0.02286125955673512,0.023576743785473715,0.023943396038870135,0.02363473921805068,0.022613875549194203,0.021107408816505167,0.019467893565411655,0.017986819107994007,0.01687459323674475,0.016153886393364923,0.01570922596174027,0.015359043345349595,0.014911248093375004,0.014274595448862195,0.013428486011908138,0.012418350446153616,0.01132510326465881,0.010223849221711425,0.009206940937818622,0.008346967018229852,0.00769893999218618,0.007291163183968024,0.00692931426156058,0.006891793838407148,0.007031045509981722,0.0071547449687766876,0.007112232869381516,0.006778774567728655,0.0063973669065410105,0.006148012710052183,0.006253871102099776,0.006933302554795011,0.008367311360731374,0.010587483668979865,0.013537728641785112,0.01704270836723295,0.020832162749455277,0.024588340864091736,0.028012311207108318,0.030883769314969882,0.03310772696684124,0.034731022944115536,0.03590301358593571,0.03690154068511143,0.03797209355857919,0.03929059401483173,0.040912173649832545,0.04271029946500846,0.04451817904461527,0.0460467093178262,0.04698950864097926,0.04709332435554955,0.046158949927601715,0.04425416845175268,0.0415501384759715,0.03833183732284775,0.03493541486424326,0.03161409865096719,0.02866643177112936,0.02622760659051583,0.02430192721603315,0.022777505372936973,0.02140018258389519,0.020032939897256623,0.018539276020374362,0.016864930740618924,0.015043963845573771,0.013115599334665553,0.01127109147916439,0.00964945612926523,0.008331801639493475,0.007310422318210568,0.006429210101289566,0.005583651575391574,0.004631466760220642,0.0034795251479685417,0.0021192852252840816,0.0005795569252787672,-0.0009191424791294263,-0.0021498146107634154,-0.0029071183133847866,-0.003071851867642405,-0.0027107143162472323,-0.0019054687215830832,-0.0008578975000572548,0.0002077892147791774,0.0011140268988999364,0.0017205829495557463,0.002169967960419625,0.0026963699851124574,0.003626959994024722,0.00529990566544228,0.007894135407725815,0.011605435202277586,0.016377502511334362,0.021968986514016832,0.02799442014074591,0.03392123551226465,0.03939593489962034,0.044097567648631375,0.047859963379762685,0.05068893461604954,0.0526700490686025,0.054143721042317496,0.05540850439782876,0.056717581615568474,0.05822165850085713,0.05988456071944533,0.06166486281417518,0.06337808956005571,0.06480530371834133,0.06575438238566471,0.06607099293128794,0.06579207095247329,0.06502290171059466,0.06394433844380969,0.06276642934757035,0.06164607683700839,0.06075273319389574,0.06015442230030415,0.05984809161055798,0.059778476309475984,0.059838357363443236,0.059975602013461436,0.06013926942790927,0.06030219996230255,0.06045425936472993,0.06056776517833592,0.060667240137664655,0.060770874763383706,0.060909707739518454,0.06113004241998388,0.06146675215475506,0.06200060440196919,0.06278902747085918,0.06385013296045854,0.06513765406700674,0.06650694000289231,0.06779177033539902,0.06878229885255228,0.06928082254258508,0.06914526571402958,0.06830088676153438,0.06681952572187976,0.06485244473324962,0.06261072795880156,0.06031577861044836,0.058125058722307596,0.05617710811397448,0.05448194884447749,0.05296246654651895,0.05148629150686714,0.0498820603666135,0.04808106083771397,0.04601749537039037,0.04369492203124873,0.041189986958146164,0.038607409748095387,0.036165481927944866,0.034009831920147934,0.03223969972178905,0.030893682409425183,0.029913635694126736,0.02928387769725123,0.028880518090977695,0.028564002612431756,0.028215334806512244,0.027732009856760262,0.027165665734696087,0.0265570602588319,0.0259826769716159,0.0255369872035993,0.025277953966741734,0.02532078357445828,0.02566513856500867,0.02624890125071057,0.026963002828553153,0.0276439133102732,0.0282194776787937,0.028576656744460898,0.02864023663974483,0.028389018453507008,0.027826843735318157,0.027091776286090136,0.02627627807843376,0.025463122736411426,0.024709520717853962,0.024001395812913013,0.02337549077566948,0.022752454589117344,0.02201374388998216,0.02103002298220092,0.019656250350101764,0.01789506678371644,0.015736566773265317,0.013235552173226469,0.01051501149110046,0.007722050725689421,0.005118731875289263,0.0028890354159043486,0.0011633912077307113,1.995073083952807e-20,-0.0006471591063759944,-0.0008178980609097578,-0.0006573489255353444,-0.0003337783087813736,-5.1211188621985294e-20,0.00021545526191557335,0.0003042051285726574,0.000268899606698899,0.00014848580717483572,2.5606603946180157e-20,-0.0001374120224542841,-0.0001978282257505097,-0.00017664692016389314,-9.77896561163026e-05,-4.52232224641802e-20,6.460166566122304e-05,9.889374738160963e-05,9.371758774475748e-05,5.4935908919096985e-05,2.8510326282720725e-20,-6.25376587206914e-05,-9.079972536028426e-05,-8.142705363233576e-05,-4.50995444145527e-05,-4.032500577027867e-20,2.2290596051448885e-05,3.641093474770861e-05,3.6437108984214614e-05,2.2353186706464357e-05,2.1919033358115942e-20,-3.612048965361436e-05,-5.056803035873139e-05,-4.348885057135467e-05,-2.2959193754040764e-05,-3.0853001414811055e-20,3.6638935881179517e-06,7.469927500570121e-06,8.686667659128082e-06,5.937669895104955e-06,8.880707691278356e-21,-1.7400235332318543e-05,-2.3259985816823327e-05,-1.890914284202731e-05,-9.309661907852598e-06,-1.5047545700162394e-20,0.0,0.0,0.0,0.0,0.0,0.0,0.0,0.0,0.0,0.0,0.0,0.0,0.0,0.0,0.0,0.0,0.0,0.0,0.0,0.0,0.0,0.0,0.0,0.0
0.2525236989999078,0.26799691857743896,0.2610718490859161,0.23535278224386033,0.19775166945226091,0.15650899290612008,0.11907756667834786,0.09043102799623022,0.07230830864882305,0.0634263628467775,0.060494286812332376,0.05961074230374071,0.05754527919069349,0.05257177600832491,0.04464857888710583,0.03502560894208948,0.025510723975957026,0.01772713082217386,0.012576806757911112,0.010080322870724634,0.00955693107184656,0.009996693507826655,0.010513318371469512,0.010588942440561067,0.010151457753314356,0.009454676323521451,0.008833227226883924,0.008564919982679196,0.008695856172307757,0.009055292259974555,0.009352421575196336,0.0092763106295492,0.00871022376949487,0.007695125432332577,0.006413609536253847,0.00510156328221412,0.003911975575282615,0.002962218544198004,0.002226963897283708,0.0015819197375330286,0.0008507049892319018,-0.00018499972493287706,-0.0016162310504195677,-0.003476900034818084,-0.0057152280812136245,-0.00820372944099724,-0.010799716888941232,-0.013240258600646563,-0.015269877206360654,-0.016659865478895503,-0.017258163871226383,-0.017204242425575184,-0.01631723201050587,-0.014828571076307643,-0.01305387794840589,-0.011294619869490213,-0.009873177143796426,-0.008668948545763708,-0.007613076009341274,-0.006558344407041721,-0.005331075867754043,-0.003851335920768889,-0.0019655024161884527,0.0003051169525563421,0.0028484961630190027,0.005498765124970115,0.008030616792318448,0.010382005352698492,0.012511997997808234,0.014460026873900628,0.01632860611769427,0.018202177023235018,0.020245084159692867,0.022545892174758896,0.025120747425327876,0.027902579978717822,0.03070547694123622,0.03339676343270518,0.03581948943392355,0.03786108848779117,0.03947655383974137,0.04064659673178298,0.04150785492801495,0.04220474477900723,0.042881428816112635,0.043641461917506195,0.044496285341161686,0.04543139189445085,0.04636221479803722,0.047183298036351,0.047806369995271006,0.04819107838681851,0.0483606480343884,0.04839180627321928,0.04838848638583764,0.04844447450620179,0.04861230888264907,0.04886541843684338,0.049118437816232,0.04923915328127146,0.049082579017132574,0.04853869403198836,0.04753082657102774,0.04607777967944908,0.04427553538608942,0.042278174435783,0.0402760376827289,0.03844521662893344,0.03695372975791896,0.0359343735756664,0.03547376985443342,0.03560849424666186,0.036310588663426395,0.037500052840359524,0.03904292501337373,0.040761994189701535,0.04245514451388344,0.04393719392378889,0.04506150619980837,0.04575760585061963,0.04605021852496964,0.04604794216475107,0.045947724325005206,0.04594421355390222,0.04618785097464227,0.04673311498497514,0.047490636851662195,0.04827740712438556,0.04877245210731489,0.04860173081148796,0.04741601144498064,0.0449484341920017,0.041153045362499696,0.036132986276007084,0.030174044603478757,0.02370800572249032,0.01722423879809202,0.011273525442407936,0.006273443870254596,0.0024881776388092853,6.445350511952344e-21,-0.0013103496109513565,-0.001633682748622703,-0.001298129874380514,-0.000653130769588936,-4.828246410466728e-20,0.000432596577719562,0.0006045530183642072,0.0005292773904312536,0.00028968326572432297,3.4919745456627444e-20,-0.00025872309107190683,-0.0003718171921920281,-0.00033168577689788453,-0.00018357571780785239,-6.948388267705015e-20,0.00012699427008781036,0.00019264127890670103,0.0001810720325245808,0.00010537877538363668,4.646742472579154e-20,-0.00011192742865225746,-0.0001639080542980251,-0.00014837840404800925,-8.302622762328864e-05,-6.61038019556221e-20,4.7129525561221986e-05,7.571634336479686e-05,7.473635748797206e-05,4.532902134066929e-05,4.1837020719750064e-20,-6.658177976454471e-05,-9.415262148420659e-05,-8.190660109761786e-05,-4.381595831856334e-05,-5.671428156883589e-20,8.260914429548106e-06,1.684231007070159e-05,1.9585672040994302e-05,1.3387556634678894e-05,2.0023170582627333e-20,-3.9231995055871594e-05,-5.2443868208514785e-05,-4.2634101454439134e-05,-2.0990325875784704e-05,-3.3927428407550775e-20,0.0,0.0,0.0,0.0,0.0,0.0,0.0,0.0,0.0,0.0,0.0,0.0,0.0,0.0,0.0,0.0,0.0,0.0,0.0,0.0,0.0,0.0,0.0,0.0,0.0,0.0,0.0,0.0,0.0,0.0,0.0,0.0,0.0,0.0,0.0,0.0,0.0,0.0,0.0,0.0,0.0,0.0,0.0,0.0,0.0,0.0,0.0,0.0,0.0,0.0,0.0,0.0,0.0,0.0,0.0,0.0,0.0,0.0,0.0,0.0,0.0,0.0,0.0,0.0,0.0,0.0,0.0,0.0,0.0,0.0,0.0,0.0,0.0,0.0,0.0,0.0,0.0,0.0,0.0,0.0,0.0,0.0,0.0,0.0,0.0,0.0,0.0,0.0,0.0,0.0,0.0,0.0,0.0,0.0,0.0,0.0,0.0,0.0,0.0,0.0,0.0,0.0,0.0,0.0,0.0,0.0,0.0,0.0,0.0,0.0,0.0,0.0,0.0,0.0
0.29980748029557486,0.31419054440077643,0.2992782185792849,0.25916217997629365,0.20231878801919084,0.1393183643441301,0.08023899655000899,0.032624289392111906,0.00027924697046090427,-0.01673469127025669,-0.021170751607314586,-0.017170494184023475,-0.008795874661012091,0.0009436727096114031,0.010466595233803859,0.019401835338773557,0.02800921842070466,0.03660907469965676,0.045155889191359,0.053174516364928655,0.059974422284861675,0.06498200575617033,0.06807021074619105,0.06962526882580464,0.0704188567627038,0.07130824502788903,0.07286483535522918,0.0752681341602931,0.07817594577041405,0.08089434502817741,0.08264206777091639,0.0827595307571995,0.08109820272291526,0.07791016509334245,0.07377576696086903,0.06939753177270189,0.06530833692941547,0.06193990983166323,0.059402255749314674,0.05756459333608756,0.056152995774487395,0.05478278256773495,0.05329405749389955,0.05161215661606496,0.04978102803745218,0.04791005873470714,0.04602998833586165,0.04427465754336117,0.04267209109103466,0.041175544662076194,0.039667121694926886,0.03774975726511773,0.0356062400515707,0.03310283644868756,0.030176937482027957,0.026895423857835346,0.02327804200570868,0.0198766302349535,0.01706198557884306,0.01511203203133471,0.014123726020743809,0.01382512439667233,0.014025112695044174,0.014393777328849597,0.014628743575156405,0.014543026234662314,0.013756255340620527,0.012818897406284469,0.012295987282268639,0.012835456649843924,0.014962326448580825,0.01830547334612855,0.023299028794856347,0.029766406460248498,0.03733369056652186,0.04548476347518,0.05327432037855736,0.060480763169047276,0.06676957371617591,0.07195881172093266,0.07600720050177917,0.07887338693861455,0.08085804949312742,0.08220575884182303,0.0831965262237614,0.08411565869828001,0.08511482341547381,0.08647250748627527,0.08822772533845304,0.0902456796644209,0.09222411689478081,0.0936687520167938,0.09424808857913075,0.09366224986693882,0.09184354854636868,0.08903897105320466,0.08576673965173846,0.08293293420727296,0.08148614144785905,0.08227794612919018,0.08585382521162853,0.09225352729014702,0.10106193750959713,0.11134156959270351,0.1218931770495818,0.13159637402475136,0.13978210718193138,0.14668899016144885,0.1535847692804243,0.1627831672822981,0.17733892283787417,0.20044463318016464,0.23472235004068562,0.2813499817393739,0.3394293188644123,0.40567431739853094,0.4745577958942178,0.5389868786887142,0.5913192571317275,0.6246445031861957,0.6340097119591878,0.6173458701181913,0.5758736651168569,0.5139126365651128,0.43815295699120455,0.35652750440315645,0.2769171618121427,0.20602300288548436,0.1484198523072064,0.10619649231496886,0.07904529684712508,0.06472556666787715,0.059917021725280385,0.06085710313834521,0.06412087677918595,0.06712369776876848,0.06829825274623398,0.06723666471429866,0.06421685274989154,0.05994236205471519,0.05520209869041186,0.05053612003814906,0.04634886902974869,0.042613140728837554,0.03907752939789928,0.03543515772721363,0.03139638017762471,0.027094935021651806,0.022774390189750852,0.018826416585633724,0.0156682167640154,0.013499990002181307,0.012559152706034634,0.012719934595317296,0.013646222048761415,0.014886791904978398,0.015844303351878485,0.016363182247980907,0.01626183459615264,0.015494298404138917,0.01410536704594139,0.011982951794158437,0.009436116810056482,0.006512157924716589,0.0032433780861777705,-0.00029796250113582417,-0.004263557400480513,-0.007932897666317008,-0.011024296257067693,-0.013317287469791482,-0.014701292048213035,-0.015646202203420445,-0.01565792844570986,-0.015108057115942394,-0.014456768042151283,-0.014072908516582707,-0.014374449837157636,-0.014813886847512265,-0.01505923076862532,-0.014716751948810966,-0.013444524984952381,-0.011173774944651677,-0.0077789842571406205,-0.003460155289670378,0.0014301431391555309,0.006480827428475993,0.011209649778266618,0.015518878276907563,0.019380093180062636,0.02292894514473082,0.026406179841904368,0.02996004748433414,0.03391581324402556,0.038381936689327066,0.043318941151648784,0.04855108358305651,0.0537046454622854,0.05861651184419589,0.06310834368976438,0.06711552841647214,0.07069598732420865,0.0738965365701022,0.07702125121225448,0.08030120113817148,0.08389105693005093,0.08781241925606638,0.09183424232339249,0.09580010003968001,0.09944511223602108,0.1025348592200857,0.1049288511879241,0.10652477833354694,0.1075397298501191,0.10823976893287987,0.10892114989024713,0.109814759135036,0.110878404562369,0.11213487126271124,0.11339306836801336,0.11435943436332846,0.11470066708214789,0.11395773070853567,0.11209365491261303,0.10919516750108939,0.10554162469775079,0.10153816759388078,0.09764298458902776,0.09420295526603312,0.09146209894111601,0.08952380438887128,0.08837566810561366,0.0881420021379864,0.08850955880390529,0.08924709257861607,0.09012155752387603,0.09094131891903985,0.09163943630555049,0.09215946623777077,0.09255419372526201,0.09294844479211418,0.09350696973246604,0.09427726395599788,0.09548896936156011,0.0972201536516899,0.09944381191057648,0.10201367737185983,0.1046534744473623,0.10709715363624513,0.10902986607276312,0.11020827936812909,0.11052038501125362,0.10996922349516695,0.10878454618374787,0.10717462988970364,0.10532235375069927,0.10334393678318726,0.10125264675946101,0.09919982708158927,0.09735789468938644,0.09612009975044451,0.09616748855512089,0.09837020209588397,0.10381251867231155,0.11322265882559078,0.12673111318886646,0.14358654312415112,0.1619613837857116,0.17924796339477433,0.1920908485270176,0.1970074870657378,0.19100559769318132,0.1720999648651539,0.13994983483914333,0.09573053159931012,0.04215923587714769,-0.016796970602845716,-0.07641099890404737,-0.131497830564141,-0.17717996863213464,-0.2092533752484841,-0.22459953889887277,-0.2216016226229412,-0.20027849786669413,-0.16270200310493216,-0.11289036970654219,-0.05648969840503695,-0.00017807466869452018,0.04943646935759142,0.0866452203881225,0.10772303174562581,0.11162014208879886,0.10009297666953126,0.07746981871626872,0.04946230209971213,0.022003011446263168,0.0,0.0,0.0,0.0,0.0
0.6340097119591878,0.6695948798967951,0.6468602818498292,0.5747585553480854,0.4708824084831071,0.35652750440315645,0.25133315764405567,0.16897255976481806,0.11507154167801548,0.08756254220089764,0.07904529684712507,0.08014680635195588,0.08265519463031855,0.08161127789264468,0.07584219430666507,0.06712369776876849,0.05853365495837237,0.0527644635340536,0.05096206156397789,0.05244243871994038,0.05520209869041185,0.05685665856194573,0.055672296048874303,0.05110196193675027,0.04384712131279301,0.03543515772721364,0.02752094576102456,0.021412377567140397,0.01763656015501077,0.01596274839248987,0.015668216764015398,0.015853007295231827,0.015947768092303215,0.01572412410458147,0.015285164043880708,0.0148867919049784,0.01465378960569371,0.014672512231808757,0.014786559158471683,0.014703887832233805,0.01410536704594139,0.01265426143533063,0.01033349850830052,0.007241681960094313,0.003602549423543942,-0.0002979625011358236,-0.004263557400480513,-0.007932897666317008,-0.011024296257067693,-0.013317287469791482,-0.014701292048213035,-0.015646202203420445,-0.01565792844570986,-0.015108057115942394,-0.014456768042151283,-0.014072908516582707,-0.014374449837157636,-0.014813886847512265,-0.01505923076862532,-0.014716751948810966,-0.013444524984952381,-0.011173774944651677,-0.0077789842571406205,-0.003460155289670378,0.0014301431391555309,0.006480827428475993,0.011209649778266618,0.015518878276907563,0.019380093180062636,0.02292894514473082,0.026406179841904368,0.02996004748433414,0.03391581324402556,0.038381936689327066,0.043318941151648784,0.04855108358305651,0.0537046454622854,0.05861651184419589,0.06310834368976438,0.06711552841647214,0.07069598732420865,0.0738965365701022,0.07702125121225448,0.08030120113817148,0.08389105693005093,0.08781241925606638,0.09183424232339249,0.09580010003968001,0.09944511223602108,0.1025348592200857,0.1049288511879241,0.10652477833354694,0.1075397298501191,0.10823976893287987,0.10892114989024713,0.109814759135036,0.110878404562369,0.11213487126271124,0.11339306836801336,0.11435943436332846,0.11470066708214789,0.11395773070853567,0.11209365491261303,0.10919516750108939,0.10554162469775079,0.10153816759388078,0.09764298458902776,0.09420295526603312,0.09146209894111601,0.08952380438887128,0.08837566810561366,0.0881420021379864,0.08850955880390529,0.08924709257861607,0.09012155752387603,0.09094131891903985,0.09163943630555049,0.09215946623777077,0.09255419372526201,0.09294844479211418,0.09350696973246604,0.09427726395599788,0.09548896936156011,0.0972201536516899,0.09944381191057648,0.10201367737185983,0.104539375180598,0.10686540307916026,0.10874479156061474,0.10999502198965554,0.11052038501125362,0.11014082058809986,0.10909173650649072,0.10751309340008332,0.10555196740115919,0.10334393678318726,0.1008310489742081,0.09841785400658994,0.09646600558945896,0.09549426090923399,0.09616748855512089,0.09900135010506578,0.10492324127025586,0.11442814518350863,0.12753818592010177,0.14358654312415112,0.16086627238970713,0.17729288054456147,0.1899364024816057,0.1955417859342302,0.19100559769318132,0.1737325531931782,0.14281611305523692,0.09884067814140422,0.04424567865002012,-0.016796970602845716,-0.07899772952608666,-0.13608917078004257,-0.18222538139709918,-0.21268763154509107,-0.22459953889887277,-0.21750356293054862,-0.19292214867695334,-0.15449359254729744,-0.10718901054512739,-0.05648969840503695,-0.007694769817155651,0.03527234234291097,0.06984927131969253,0.09511448346499105,0.11162014208879886,0.12084229909321718,0.12514090014429627,0.12676941764432756,0.127599109529614,0.1288720377848215,0.13097342561539393,0.1340968042815345,0.13792745854626723,0.1420454025247133,0.14612393348084413,0.1498427905592449,0.1535180815797691,0.1574187038098599,0.16180287859577958,0.16677195752913537,0.17198723439964358,0.17724052574853383,0.18196382869616198,0.1855316172024462,0.18741998157742662,0.18717212996893565,0.1850258854711141,0.18138098461642946,0.1768599195798952,0.1721513076202244,0.1676513281355912,0.16393990902932531,0.16108890733083284,0.1588764953794447,0.15688263366302216,0.1544263841966561,0.15138499196515454,0.14757636087281828,0.14304513016493692,0.13805134731716556,0.13287058771468568,0.12804874971122626,0.12402174567570223,0.1210645365428864,0.11922006097130897,0.11824032686634749,0.1176984491171085,0.1172881031263177,0.11677956985205756,0.11605083455292488,0.11496425815735908,0.11373986487599771,0.1127092831030878,0.1122892319062232,0.11288160813454079,0.11455269415376987,0.11765087388257028,0.12211516236490218,0.12766698361603612,0.13384640144578108,0.13986252324880746,0.14537341172464463,0.14990180845856116,0.15310449979279134,0.15481119475702135,0.15481859778182727,0.1535641847345597,0.15139516770854114,0.1487205852861857,0.1459438451838568,0.14317814408144122,0.14090497674307195,0.13921220517093644,0.13801410815113596,0.13707649561069224,0.13584796862350632,0.13426880352974052,0.132090223296687,0.12919841146646496,0.12567655596017244,0.12173666360371885,0.11803420326504507,0.11515940136849595,0.11372269252900885,0.11427661630965266,0.11714697114137024,0.1226525882880844,0.13062509530797323,0.14053218786053465,0.15152473225558213,0.16247894867194118,0.17243941080156108,0.180463320320563,0.1859483378056165,0.1887728482015116,0.18925641000499652,0.18827843443692804,0.18674014212003603,0.1854097938056271,0.1847066345014865,0.18454309730611387,0.18461327761846766,0.18429491687715072,0.1830415066348064,0.1806404208014614,0.1772746062063766,0.17367024977611298,0.17055519122511897,0.16844399688677103,0.16738076476096894,0.166789725256315,0.16589565399674244,0.16373850418774513,0.15975066326012477,0.15412110872047644,0.14781381955039066,0.1426208914992067,0.14020436495880115,0.1415608394746712,0.1464599841077411,0.1531430802686387,0.15885248109321337,0.16014516073420634,0.15400322133990346,0.13879885949500576,0.11485642154437041,0.08480010953136499,0.052669836647962764,0.023065816294246887,0.0,0.0,0.0,0.0,0.0
0.6365310415630033,0.6626135040304888,0.6241045482458103,0.5297955640172638,0.39812707436022443,0.2522895288627348,0.11464343567948397,0.002244122340377718,-0.07586141584189145,-0.11878895526927782,-0.13195198383753368,-0.12411308528783623,-0.10417217704067455,-0.07909657702849157,-0.05300628105716432,-0.027523168747108827,-0.002939994663873057,0.02075839831376379,0.042940613743999316,0.06222151241247867,0.07690564634331601,0.08563269688230817,0.08823063446391734,0.08576037158720268,0.08028418058045476,0.07421936155480076,0.06949265987672847,0.06727469330231092,0.06756481336316456,0.06944262103360364,0.07153307676628552,0.07242509112906602,0.07144529471467943,0.06855677566760791,0.06432265358557275,0.05961524818101852,0.055147159582558426,0.051610371834466186,0.04926932336721872,0.04805971485376514,0.047697419595751515,0.047667847481314383,0.04776617634639699,0.04782637874480172,0.04779505004950331,0.04768779676715376,0.047406874068878564,0.04713105107484144,0.046993099007407,0.0471368743296258,0.04767817393855601,0.04819967988220103,0.049375395280054336,0.05102737486550502,0.05287128572420992,0.05464293579450146,0.05593276149597627,0.05710597621494009,0.05832158769577446,0.0597713935977833,0.061607697650446915,0.06382476762239997,0.06635524485054187,0.06913196932718393,0.07205273327772783,0.07499693557175535,0.0777334110343989,0.08029979785416995,0.08279446443895082,0.08541135283313946,0.08838617349306377,0.09174400910905756,0.09579982311410416,0.10059390800988008,0.10601841376348108,0.11182619183265001,0.11749544717553334,0.12285692144373062,0.12766364355544133,0.131792766350538,0.13526621017223622,0.13805798486103382,0.14059203074143725,0.1431722859505632,0.1460380466246389,0.14928616768622552,0.1526634999921122,0.15608279983295148,0.1592214803085953,0.16172832069561502,0.16330612520021479,0.16362805149494847,0.16284889833994934,0.1611900014710615,0.15900103104552032,0.15667220720789457,0.15438252119376178,0.15251578479914413,0.15119970351434756,0.15041891465188698,0.15003828921557438,0.14968536420621528,0.1493119242955602,0.14880709221909277,0.14813975058798487,0.14734996303313502,0.14634595682062387,0.14541929533746545,0.14473974293595113,0.14445540263720183,0.1446616368506957,0.14519085349094435,0.14619420496129126,0.14763113347566453,0.1494151784943173,0.15141284625233242,0.1532563591580418,0.15495836135273286,0.1563957286233619,0.15748000021544606,0.15816405565396913,0.15824763855123453,0.15798288447871592,0.15749893432959908,0.15693950886077634,0.1564284242176046,0.1558358929193437,0.15540240646107553,0.15512023747937698,0.15492152798978495,0.1546927927812401,0.1540883670794991,0.15323589726765705,0.1521004148436284,0.15070461915234998,0.14913284858877784,0.14730243210057362,0.14564434160573192,0.14436955428010506,0.14364743855491863,0.14357290439631554,0.14391986432275305,0.14486981527902926,0.146289142327155,0.14798860417450913,0.14976472021700432,0.15121494179599007,0.15250521423809205,0.15365524888278626,0.15475847410629995,0.1559565360376931,0.1571705513328623,0.15879087410700113,0.16090990582735198,0.16351363749152675,0.16647119648031675,0.1693120032345386,0.172018000614389,0.1743336356606356,0.17603850794209333,0.1769858569229404,0.17688097953349313,0.1760618501886921,0.1747277710382114,0.1731253178463134,0.17149577411872965,0.16984230280160237,0.16849219899962609,0.16746298761336417,0.16667755661869577,0.1660056913145189,0.16519198306214536,0.1643135254386933,0.16331041208542454,0.16216681616780568,0.16091640537274243,0.15947398786641384,0.15815484813017913,0.15706785919883845,0.15628419564877474,0.155827119430966,0.1554678648990176,0.15538796715271463,0.15551809248604137,0.15576435843989647,0.15602990390712998,0.15602082946042298,0.1559629363487595,0.15591297565214743,0.15596582617762447,0.156232688383294,0.15657784820487844,0.15732328563228282,0.15849778149467883,0.16003875385608535,0.1617959924520449,0.16331539095331185,0.16467394255526271,0.1657753630671691,0.16662702293113307,0.16735929652079584,0.16795005597893928,0.16900112586686636,0.17084804188029643,0.17369328682636653,0.17749744629612269,0.1816626876114722,0.18577614596401437,0.18889007816276335,0.18988133278186897,0.18763559607144956,0.18104872003989314,0.1699387114367551,0.15446847232096983,0.1354445341751829,0.11427412176628178,0.09258935838790067,0.07269982335189476,0.056555916114806225,0.04567612298385802,0.04091264746111402,0.04211132982088204,0.04883778720941772,0.05980090424109931,0.07332989507756066,0.0876762317672551,0.10109590489934027,0.11274705462228365,0.12210967866598256,0.12919614983792926,0.1344398160733962,0.1383154338136202,0.14177509266803376,0.14540462171349827,0.14951537148977856,0.15411513828267778,0.15875577883942432,0.16331704551216755,0.16745998775046797,0.17096168822586605,0.17379046049195937,0.1758995593770951,0.17786800645441508,0.1800883460373178,0.18285735256978577,0.18626469114946187,0.1900418838808062,0.19388204867713127,0.1970989002024089,0.19893197886737612,0.1987389218069644,0.19607515078918775,0.19111644544551967,0.18422172943996543,0.1760090270871435,0.16722941946467693,0.15853449978785197,0.1507133297421433,0.14417762136661863,0.13914747136253272,0.13571991712238946,0.13383206831721006,0.13364535939522942,0.13502047616783525,0.13763933098372363,0.1409817393611153,0.14430115201670604,0.14696312102189002,0.14832730024583535,0.14805335057350597,0.14624356159984114,0.14342682306443036,0.14047679648969302,0.13821299070754678,0.13711813112801202,0.13711822178821975,0.13752336499001072,0.1374320087966917,0.135924384352966,0.13261620923964695,0.12799288197659833,0.12336671865475143,0.12079377174434833,0.12207293464820482,0.12812204159790813,0.13839481570228324,0.1506136934708519,0.16140901458046059,0.16673945875195734,0.16314176598056446,0.14879674942796817,0.12411533272884503,0.0921315812566515,0.057433456147730995,0.0252153328147361,0.0,0.0,0.0,0.0,0.0
0.9746159661601465,1.0206395699593946,0.9719201239093354,0.8422071809121252,0.6593138176423272,0.4575291839426042,0.269307153544174,0.11814445363194952,0.015175534937539953,-0.040708538446037106,-0.059557598274938145,-0.05533557004063962,-0.04135885216664167,-0.026802172796626656,-0.015640804574733592,-0.007563083839597047,-4.54723199422987e-05,0.009212874315358286,0.020862065506944923,0.03350875195635709,0.044431430595744004,0.050883828397036895,0.05126822535278017,0.04580267889827008,0.03636839194824616,0.02573225125762994,0.016496050277530486,0.01029934719749509,0.007395867049411605,0.006834725460622008,0.007033071919515843,0.006420306792833984,0.004141535377608305,0.00014537836108324467,-0.004934628788024177,-0.010168163012063981,-0.014831265668513791,-0.018522349330091607,-0.021410370148674807,-0.02409363044306014,-0.027369397943643823,-0.03205478226898152,-0.03855115617681991,-0.04691862627220498,-0.056835199632455424,-0.06767587189568547,-0.07870748770182025,-0.08898596465679391,-0.09766740579411205,-0.10410569326517696,-0.1079823458477271,-0.10996775242978679,-0.1095591337611524,-0.10766063045839351,-0.10535064347087572,-0.10351594827246602,-0.10289290372076795,-0.10281767909899354,-0.10268595630564228,-0.10168731470767281,-0.09904955069720493,-0.09432352903912085,-0.08739138820081857,-0.07854030298834873,-0.06839626971452323,-0.05777078940115317,-0.04754953106771698,-0.03825960505048188,-0.03012633896706366,-0.02301072092460498,-0.016492028105101402,-0.01013326898948699,-0.0033017185029435327,0.004361042206556261,0.01293366950880527,0.022193635344917518,0.03156880326602457,0.040572582446942396,0.04867350306457667,0.05549262154221845,0.06087929879493643,0.06483150012498667,0.06773689210759591,0.07005628964995497,0.07225681320874017,0.07468798348264795,0.07739956546521366,0.08039091963430582,0.08344631468020117,0.08625422446643935,0.08849666817035946,0.08984050666079961,0.09026661093902329,0.08991261771963362,0.08906488832790252,0.0880707260450241,0.0872320876982752,0.08672622565359255,0.08665013855042521,0.08698766092239095,0.08764478391968876,0.0885788553290832,0.08956902575237892,0.09056946630939147,0.09158750459845803,0.09264822134411253,0.09379501729126556,0.09491193516590352,0.09595650533334485,0.0968825024952831,0.0976516587685363,0.09824404376449733,0.09862840853757518,0.0988909631121239,0.09914017101066631,0.0994597219366826,0.09981775353313688,0.1002007542364685,0.1005845988625518,0.10094557315798021,0.10126778510482888,0.10143336653144286,0.10153676340903887,0.10164504954379072,0.10181856236339644,0.1020771120975683,0.102250291844994,0.1023972425412923,0.10250893087297798,0.10263183919927309,0.1028864390903077,0.10330393017660039,0.10428469025006439,0.10609032689654228,0.10887435082120046,0.11257700712905751,0.11668525696712584,0.1206944685209667,0.12368728479296531,0.12457528521868771,0.12226757516780729,0.11572276033631124,0.10465249416419348,0.08921014353605505,0.0702049800431553,0.04905571771877525,0.02746635275062868,0.007657870493128859,-0.008427291530719172,-0.019297413248796056,-0.024156139730256775,-0.023179989526394464,-0.016985401376663784,-0.0069290583891805,0.005314854791635194,0.018076204844934163,0.029827627269001823,0.03989489433790975,0.04805580953378264,0.054630061187050036,0.0603085494201251,0.06576075780223233,0.07189493474210312,0.0791769770722105,0.08767511787021179,0.09705999769758775,0.1065362408584325,0.11552717171402638,0.12334666137689396,0.1295068790407168,0.1338114459750504,0.13620079345089128,0.13724239007279246,0.1374904702909152,0.13750531765751625,0.1377212137766417,0.13819226379412136,0.13908116380084498,0.1401818765095975,0.14115451299591267,0.14163098157823298,0.14116483438340277,0.13979984251429683,0.13760978433572305,0.13482773521445282,0.13178561181842818,0.12868924568084797,0.12601432640874963,0.12396880649428865,0.1226259312043283,0.12194024205862337,0.12164991970853009,0.12177353494000719,0.1221693556433059,0.12271343733748226,0.1233097555235514,0.12378242861344166,0.12418620449674767,0.12449319811997374,0.12467094204154035,0.12467926898847945,0.1244051180133381,0.123866686357155,0.12309898870064838,0.12216988558084091,0.12116192722434231,0.12004684528633715,0.119010248322469,0.11817855737807338,0.117683590599089,0.11764458546020519,0.11799541437294442,0.1189298502773562,0.12045788620674665,0.12250719090575625,0.12491103083989968,0.12725811911321472,0.12942098705645616,0.13111262201181967,0.13208553240302037,0.1321774762195942,0.13117976409096224,0.12937818517549235,0.12698142046627467,0.12425722770699499,0.12148089425202871,0.11871504840515709,0.11630110037854804,0.11426573166854757,0.11249867928875192,0.11078431228446321,0.1086917246968741,0.10619079574191366,0.10314526985819554,0.09954577656968173,0.09553348341094837,0.09122684495935912,0.08719516742279938,0.0838381271475929,0.0814759670177916,0.08028265453743354,0.08009586837555133,0.08091959032622675,0.08245063339065593,0.08431550211415707,0.08616137085382165,0.0876745675950314,0.0888803613711121,0.08984565863216515,0.09078789660033491,0.0920400871702098,0.09391634239334803,0.0968621850757527,0.10103099627726106,0.10633032021442346,0.11240547512208889,0.11861803876275268,0.12438215745273837,0.1289890954702739,0.1318780276578926,0.13277086307396796,0.13167378506146504,0.1290767585628251,0.12553107374598307,0.12160391561075008,0.11773942264403871,0.11411266313831163,0.11088021414188542,0.1079435411938699,0.10520656335551477,0.10270798221410944,0.10060491063553932,0.09937190806561609,0.09930069646172986,0.1004427121831763,0.10249024614403322,0.1047193789200898,0.10638851095984843,0.10670492847126382,0.10526071378850724,0.10227251007395702,0.09856005614455016,0.0955451167661886,0.09453149523977185,0.09629926765071134,0.10069528563981653,0.10642866419484563,0.11144918650243357,0.11321660905626679,0.1095071697341341,0.09911806120567603,0.08228489450033936,0.060893396132367064,0.037884222430053766,0.01661038277902087,0.0,0.0,0.0,0.0,0.0
0.3085795442711841,0.3245307166911006,0.3105777997737194,0.2707113621332353,0.21344222812110053,0.14951824079608778,0.08924045542640713,0.040646221069987956,0.008066632494086625,-0.007899696124935183,-0.009543062679008554,-0.0007982008668920952,0.014438730829114692,0.03302202560439133,0.052968661229350594,0.07326097815594557,0.0932415593804218,0.11242094086664602,0.12997556151052916,0.14485255943719072,0.15606501899089967,0.1629691674992086,0.1658256101097516,0.16559535108213302,0.16373977489653704,0.1617847300468842,0.16077513241365712,0.1612700023524506,0.16307023740315837,0.16545421023482967,0.16750444110286875,0.16835760639468117,0.167735723129419,0.16579775066417857,0.16307613409148702,0.16023875493641473,0.15774648539415986,0.15593410950985817,0.15476008653303708,0.15391792851520125,0.1529730687699607,0.15143985421146358,0.14913551628959826,0.14605640471042927,0.14239638993807666,0.13846673055244874,0.13451861252328842,0.13090960993794418,0.12787345463652808,0.12554563118707326,0.12396039233493679,0.1228158081907077,0.12235673640258099,0.12240665221309925,0.12274569973532401,0.12316343246949155,0.12332802919656972,0.12335414288772109,0.12320776009081053,0.1228784376671995,0.12236647260404632,0.12158757768948686,0.12061810510370369,0.11951415470813671,0.11834267374447752,0.11716458222142566,0.11589995668185979,0.11471513311803634,0.11364737315385204,0.11272363720219393,0.111962691838805,0.11121543803399055,0.1106940769477805,0.11038980516409817,0.11026182389752148,0.11024548598322735,0.1101003376152627,0.10995336668538003,0.10971400237646524,0.10927479793231278,0.10852828012764971,0.10722468922113784,0.10553286464483928,0.10345650733007032,0.10104585663841632,0.09841080381774853,0.09556441137883233,0.09293001845968034,0.09073196917899495,0.08915008930351999,0.08829332750784732,0.08803150830713902,0.0884974591908837,0.08954275398818588,0.0909497267323274,0.0924780567616299,0.09376784212354854,0.0948581922379144,0.09568732030674176,0.09626491829856618,0.09666278601541246,0.09685343910446571,0.09713352445496433,0.09760520314374696,0.09830666341029788,0.09920327606019182,0.10000630543210966,0.10079249901341375,0.10143170700894623,0.10178931331888039,0.10174376610497117,0.10096540334055384,0.09967855627123648,0.09796454976491069,0.09596254813758465,0.09384622425304077,0.09171806146454221,0.08983406275027388,0.08825631690222163,0.08697613680743606,0.08594868240111038,0.08522402988089814,0.08474213256569885,0.08439583238229975,0.08407355333674085,0.08369267274679668,0.08320739433354418,0.08271138860001645,0.0822326897453789,0.0818006969420119,0.08143666309248296,0.0810174929276544,0.08069111354884581,0.0804364043608298,0.08021198361767568,0.07997355220055906,0.07954923336009859,0.07911775521699432,0.07874732809650588,0.07852177295230965,0.07851044130863515,0.0785728523412158,0.07883900987443523,0.07921758978057615,0.0795592332449933,0.07970588272925894,0.07940433457585941,0.07891012720493054,0.07856267795215005,0.07895757609935503,0.08090132414988273,0.08512470682134247,0.09261998120537773,0.10390189165019627,0.11892525597361579,0.13689869600809304,0.1560435481177365,0.17415742661784156,0.18834131150351346,0.19551667470610087,0.19289606786630334,0.1783366398798932,0.15126767286116055,0.11250880958867675,0.06449112103710244,0.011069067670664106,-0.04305612692451734,-0.09253687192624402,-0.13254397739712562,-0.1593285110778185,-0.17075793252497512,-0.16671386451893142,-0.1486697885829753,-0.11975100761212039,-0.08404960705661806,-0.04593985703808295,-0.00952507397740955,0.022294287659683696,0.047750235059587094,0.06638688414895917,0.07887821844880925,0.08654726154732255,0.09131473280245801,0.09488481971778355,0.09853732958014719,0.10295336210595064,0.10808488302701907,0.1136767699256082,0.11909937953182036,0.12370537858720033,0.12702850576309205,0.1287778785582975,0.12924348764653168,0.1288367554546801,0.12807093016973184,0.12740801002050198,0.12699952319576982,0.12705040067564774,0.1274124108619497,0.1277781516797305,0.12778751427791193,0.12699272032828285,0.12541103505756926,0.12311572563318876,0.12034347519435305,0.11741919652600546,0.11449013978327806,0.11198622904481115,0.10999226085449272,0.10842021777630093,0.10705087877409901,0.10541972671435063,0.10353587353190151,0.1012562625425907,0.0985595293747879,0.09555960242215694,0.09238023072586238,0.08938675825357198,0.08687840985739942,0.08507575721096146,0.0840683260702149,0.08379177621893447,0.08399697974540517,0.08452326520312983,0.08522324708988276,0.08597034326589965,0.08658906364150343,0.08705085344480067,0.08737675368715615,0.08762840684914623,0.08787236046158442,0.08800867101991046,0.08819031313446957,0.08840067070616017,0.08859490557276563,0.08872603045221925,0.08863787329995591,0.08853526751042456,0.08854037393509406,0.08882441077644623,0.08957970044285407,0.09084187036037984,0.09289627660093679,0.09575403330867895,0.09929046603207298,0.10325477770261397,0.10723504927443796,0.11095790677188662,0.11401957657895934,0.11607900626930874,0.11692985496237389,0.11647698418336133,0.11498894895066433,0.11272665669039171,0.11000446805000336,0.10713331841925411,0.10431365855322806,0.10184443153203634,0.09982589758862292,0.09830745994355201,0.09733678187613434,0.09693049689095307,0.09727134757581131,0.0983805369206063,0.10016193660088672,0.10237307770716869,0.10459310710620129,0.1064857218218131,0.1076713240876955,0.10795172531598915,0.10740937353820301,0.10637214857073132,0.10547629361289879,0.10525796753321007,0.1060216480413086,0.10769041297004685,0.10973383817278198,0.11146060053455113,0.11204458717542368,0.11090828865549628,0.10797145240189067,0.10369226924160736,0.0991128798548919,0.0953137271800485,0.09309136458290881,0.09260771988207996,0.09317487749119702,0.09352322978072568,0.09192419492773792,0.08679708437426105,0.07724398736226924,0.06336797901860027,0.04651609581916079,0.028782175141799465,0.012573904689737701,0.0,0.0,0.0,0.0,0.0
