'Elapsed time','ECG'
'hh:mm:ss.mmm','mV'
'0:00.000',-0.273
'0:00.004',-0.307
'0:00.008',-0.297
'0:00.012',-0.320
'0:00.016',-0.333
'0:00.020',-0.335
'0:00.024',-0.338
'0:00.028',-0.325
'0:00.032',-0.328
'0:00.036',-0.295
'0:00.040',-0.345
'0:00.044',-0.278
'0:00.048',-0.328
'0:00.052',-0.347
'0:00.056',-0.375
'0:00.060',-0.328
'0:00.064',-0.300
'0:00.068',-0.307
'0:00.072',-0.297
'0:00.076',-0.285
'0:00.080',-0.278
'0:00.084',-0.297
'0:00.088',-0.300
'0:00.092',-0.247
'0:00.096',-0.260
'0:00.100',-0.263
'0:00.104',-0.225
'0:00.108',-0.210
'0:00.112',-0.215
'0:00.116',-0.215
'0:00.120',-0.240
'0:00.124',-0.203
'0:00.128',-0.212
'0:00.132',-0.207
'0:00.136',-0.170
'0:00.140',-0.200
'0:00.144',-0.195
'0:00.148',-0.188
'0:00.152',-0.198
'0:00.156',-0.228
'0:00.160',-0.225
'0:00.164',-0.285
'0:00.168',-0.250
'0:00.172',-0.250
'0:00.176',-0.228
'0:00.180',-0.207
'0:00.184',-0.237
'0:00.188',-0.253
'0:00.192',-0.228
'0:00.196',-0.233
'0:00.200',-0.188
'0:00.204',-0.185
'0:00.208',-0.200
'0:00.212',-0.160
'0:00.216',-0.122
'0:00.220',-0.125
'0:00.224',-0.100
'0:00.228',-0.022
'0:00.232',0.095
'0:00.236',0.312
'0:00.240',0.588
'0:00.244',0.978
'0:00.248',1.353
'0:00.252',1.770
'0:00.256',2.112
'0:00.260',2.350
'0:00.264',2.283
'0:00.268',2.000
'0:00.272',1.500
'0:00.276',0.978
'0:00.280',0.537
'0:00.284',0.138
'0:00.288',-0.122
'0:00.292',-0.198
'0:00.296',-0.250
'0:00.300',-0.287
'0:00.304',-0.212
'0:00.308',-0.263
'0:00.312',-0.273
'0:00.316',-0.307
'0:00.320',-0.325
'0:00.324',-0.347
'0:00.328',-0.340
'0:00.332',-0.333
'0:00.336',-0.328
'0:00.340',-0.360
'0:00.344',-0.378
'0:00.348',-0.390
'0:00.352',-0.390
'0:00.356',-0.420
'0:00.360',-0.388
'0:00.364',-0.422
'0:00.368',-0.400
'0:00.372',-0.412
'0:00.376',-0.415
'0:00.380',-0.438
'0:00.384',-0.435
'0:00.388',-0.432
'0:00.392',-0.425
'0:00.396',-0.438
'0:00.400',-0.435
'0:00.404',-0.422
'0:00.408',-0.395
'0:00.412',-0.440
'0:00.416',-0.460
'0:00.420',-0.440
'0:00.424',-0.487
'0:00.428',-0.425
'0:00.432',-0.412
'0:00.436',-0.388
'0:00.440',-0.388
'0:00.444',-0.453
'0:00.448',-0.432
'0:00.452',-0.448
'0:00.456',-0.438
'0:00.460',-0.415
'0:00.464',-0.440
'0:00.468',-0.362
'0:00.472',-0.407
'0:00.476',-0.388
'0:00.480',-0.415
'0:00.484',-0.422
'0:00.488',-0.438
'0:00.492',-0.425
'0:00.496',-0.435
'0:00.500',-0.370
'0:00.504',-0.398
'0:00.508',-0.388
'0:00.512',-0.412
'0:00.516',-0.412
'0:00.520',-0.400
'0:00.524',-0.398
'0:00.528',-0.445
'0:00.532',-0.383
'0:00.536',-0.395
'0:00.540',-0.370
'0:00.544',-0.378
'0:00.548',-0.420
'0:00.552',-0.427
'0:00.556',-0.398
'0:00.560',-0.388
'0:00.564',-0.375
'0:00.568',-0.338
'0:00.572',-0.347
'0:00.576',-0.315
'0:00.580',-0.328
'0:00.584',-0.328
'0:00.588',-0.312
'0:00.592',-0.215
'0:00.596',-0.247
'0:00.600',-0.177
'0:00.604',-0.150
'0:00.608',-0.147
'0:00.612',-0.138
'0:00.616',-0.128
'0:00.620',-0.160
'0:00.624',-0.170
'0:00.628',-0.122
'0:00.632',-0.115
'0:00.636',-0.102
'0:00.640',-0.122
'0:00.644',-0.133
'0:00.648',-0.110
'0:00.652',-0.165
'0:00.656',-0.175
'0:00.660',-0.172
'0:00.664',-0.170
'0:00.668',-0.135
'0:00.672',-0.165
'0:00.676',-0.195
'0:00.680',-0.185
'0:00.684',-0.220
'0:00.688',-0.188
'0:00.692',-0.203
'0:00.696',-0.233
'0:00.700',-0.198
'0:00.704',-0.212
'0:00.708',-0.207
'0:00.712',-0.188
'0:00.716',-0.185
'0:00.720',-0.212
'0:00.724',-0.212
'0:00.728',-0.200
'0:00.732',-0.195
'0:00.736',-0.212
'0:00.740',-0.200
'0:00.744',-0.182
'0:00.748',-0.250
'0:00.752',-0.212
'0:00.756',-0.237
'0:00.760',-0.233
'0:00.764',-0.207
'0:00.768',-0.237
'0:00.772',-0.220
'0:00.776',-0.223
'0:00.780',-0.215
'0:00.784',-0.263
'0:00.788',-0.285
'0:00.792',-0.260
'0:00.796',-0.250
'0:00.800',-0.258
'0:00.804',-0.258
'0:00.808',-0.273
'0:00.812',-0.275
'0:00.816',-0.310
'0:00.820',-0.290
'0:00.824',-0.290
'0:00.828',-0.287
'0:00.832',-0.312
'0:00.836',-0.297
'0:00.840',-0.312
'0:00.844',-0.290
'0:00.848',-0.320
'0:00.852',-0.340
'0:00.856',-0.350
'0:00.860',-0.345
'0:00.864',-0.315
'0:00.868',-0.312
'0:00.872',-0.310
'0:00.876',-0.287
'0:00.880',-0.310
'0:00.884',-0.312
'0:00.888',-0.372
'0:00.892',-0.338
'0:00.896',-0.347
'0:00.900',-0.340
'0:00.904',-0.325
'0:00.908',-0.333
'0:00.912',-0.365
'0:00.916',-0.347
'0:00.920',-0.338
'0:00.924',-0.385
'0:00.928',-0.307
'0:00.932',-0.375
'0:00.936',-0.350
'0:00.940',-0.352
'0:00.944',-0.340
'0:00.948',-0.365
'0:00.952',-0.350
'0:00.956',-0.383
'0:00.960',-0.350
'0:00.964',-0.350
'0:00.968',-0.338
'0:00.972',-0.362
'0:00.976',-0.372
'0:00.980',-0.352
'0:00.984',-0.395
'0:00.988',-0.383
'0:00.992',-0.360
'0:00.996',-0.378
'0:01.000',-0.372
'0:01.004',-0.352
'0:01.008',-0.365
'0:01.012',-0.383
'0:01.016',-0.352
'0:01.020',-0.347
'0:01.024',-0.383
'0:01.028',-0.378
'0:01.032',-0.378
'0:01.036',-0.345
'0:01.040',-0.352
'0:01.044',-0.362
'0:01.048',-0.412
'0:01.052',-0.390
'0:01.056',-0.362
'0:01.060',-0.372
'0:01.064',-0.357
'0:01.068',-0.350
'0:01.072',-0.338
'0:01.076',-0.365
'0:01.080',-0.328
'0:01.084',-0.395
'0:01.088',-0.390
'0:01.092',-0.362
'0:01.096',-0.372
'0:01.100',-0.357
'0:01.104',-0.345
'0:01.108',-0.362
'0:01.112',-0.388
'0:01.116',-0.383
'0:01.120',-0.378
'0:01.124',-0.378
'0:01.128',-0.345
'0:01.132',-0.350
'0:01.136',-0.297
'0:01.140',-0.312
'0:01.144',-0.360
'0:01.148',-0.360
'0:01.152',-0.362
'0:01.156',-0.352
'0:01.160',-0.335
'0:01.164',-0.300
'0:01.168',-0.263
'0:01.172',-0.258
'0:01.176',-0.250
'0:01.180',-0.287
'0:01.184',-0.270
'0:01.188',-0.265
'0:01.192',-0.285
'0:01.196',-0.278
'0:01.200',-0.265
'0:01.204',-0.223
'0:01.208',-0.247
'0:01.212',-0.273
'0:01.216',-0.253
'0:01.220',-0.287
'0:01.224',-0.295
'0:01.228',-0.287
'0:01.232',-0.297
'0:01.236',-0.312
'0:01.240',-0.290
'0:01.244',-0.325
'0:01.248',-0.312
'0:01.252',-0.320
'0:01.256',-0.340
'0:01.260',-0.345
'0:01.264',-0.312
'0:01.268',-0.265
'0:01.272',-0.250
'0:01.276',-0.263
'0:01.280',-0.265
'0:01.284',-0.263
'0:01.288',-0.285
'0:01.292',-0.235
'0:01.296',-0.223
'0:01.300',-0.175
'0:01.304',-0.120
'0:01.308',0.075
'0:01.312',0.302
'0:01.316',0.657
'0:01.320',1.075
'0:01.324',1.545
'0:01.328',1.875
'0:01.332',2.013
'0:01.336',1.772
'0:01.340',1.315
'0:01.344',0.745
'0:01.348',0.203
'0:01.352',-0.190
'0:01.356',-0.347
'0:01.360',-0.445
'0:01.364',-0.432
'0:01.368',-0.350
'0:01.372',-0.340
'0:01.376',-0.362
'0:01.380',-0.365
'0:01.384',-0.398
'0:01.388',-0.427
'0:01.392',-0.438
'0:01.396',-0.432
'0:01.400',-0.497
'0:01.404',-0.427
'0:01.408',-0.450
'0:01.412',-0.510
'0:01.416',-0.507
'0:01.420',-0.487
'0:01.424',-0.507
'0:01.428',-0.522
'0:01.432',-0.502
'0:01.436',-0.522
'0:01.440',-0.475
'0:01.444',-0.525
'0:01.448',-0.532
'0:01.452',-0.583
'0:01.456',-0.552
'0:01.460',-0.550
'0:01.464',-0.545
'0:01.468',-0.550
'0:01.472',-0.562
'0:01.476',-0.552
'0:01.480',-0.588
'0:01.484',-0.583
'0:01.488',-0.578
'0:01.492',-0.562
'0:01.496',-0.532
'0:01.500',-0.565
'0:01.504',-0.535
'0:01.508',-0.550
'0:01.512',-0.575
'0:01.516',-0.590
'0:01.520',-0.573
'0:01.524',-0.585
'0:01.528',-0.573
'0:01.532',-0.578
'0:01.536',-0.557
'0:01.540',-0.560
'0:01.544',-0.595
'0:01.548',-0.578
'0:01.552',-0.583
'0:01.556',-0.600
'0:01.560',-0.600
'0:01.564',-0.608
'0:01.568',-0.583
'0:01.572',-0.608
'0:01.576',-0.640
'0:01.580',-0.660
'0:01.584',-0.647
'0:01.588',-0.690
'0:01.592',-0.665
'0:01.596',-0.665
'0:01.600',-0.627
'0:01.604',-0.627
'0:01.608',-0.632
'0:01.612',-0.637
'0:01.616',-0.657
'0:01.620',-0.672
'0:01.624',-0.677
'0:01.628',-0.647
'0:01.632',-0.645
'0:01.636',-0.635
'0:01.640',-0.608
'0:01.644',-0.652
'0:01.648',-0.650
'0:01.652',-0.670
'0:01.656',-0.625
'0:01.660',-0.623
'0:01.664',-0.625
'0:01.668',-0.557
'0:01.672',-0.545
'0:01.676',-0.532
'0:01.680',-0.490
'0:01.684',-0.500
'0:01.688',-0.512
'0:01.692',-0.470
'0:01.696',-0.445
'0:01.700',-0.412
'0:01.704',-0.412
'0:01.708',-0.407
'0:01.712',-0.427
'0:01.716',-0.448
'0:01.720',-0.472
'0:01.724',-0.453
'0:01.728',-0.482
'0:01.732',-0.427
'0:01.736',-0.427
'0:01.740',-0.500
'0:01.744',-0.487
'0:01.748',-0.522
'0:01.752',-0.570
'0:01.756',-0.550
'0:01.760',-0.570
'0:01.764',-0.578
'0:01.768',-0.532
'0:01.772',-0.547
'0:01.776',-0.550
'0:01.780',-0.565
'0:01.784',-0.600
'0:01.788',-0.595
'0:01.792',-0.600
'0:01.796',-0.608
'0:01.800',-0.570
'0:01.804',-0.565
'0:01.808',-0.583
'0:01.812',-0.595
'0:01.816',-0.603
'0:01.820',-0.608
'0:01.824',-0.603
'0:01.828',-0.608
'0:01.832',-0.598
'0:01.836',-0.600
'0:01.840',-0.583
'0:01.844',-0.603
'0:01.848',-0.615
'0:01.852',-0.660
'0:01.856',-0.645
'0:01.860',-0.660
'0:01.864',-0.608
'0:01.868',-0.615
'0:01.872',-0.650
'0:01.876',-0.652
'0:01.880',-0.640
'0:01.884',-0.662
'0:01.888',-0.657
'0:01.892',-0.657
'0:01.896',-0.660
'0:01.900',-0.665
'0:01.904',-0.682
'0:01.908',-0.675
'0:01.912',-0.738
'0:01.916',-0.723
'0:01.920',-0.720
'0:01.924',-0.703
'0:01.928',-0.750
'0:01.932',-0.733
'0:01.936',-0.713
'0:01.940',-0.695
'0:01.944',-0.738
'0:01.948',-0.740
'0:01.952',-0.777
'0:01.956',-0.797
'0:01.960',-0.772
'0:01.964',-0.765
'0:01.968',-0.762
'0:01.972',-0.752
'0:01.976',-0.782
'0:01.980',-0.775
'0:01.984',-0.775
'0:01.988',-0.838
'0:01.992',-0.815
'0:01.996',-0.810
'0:02.000',-0.812
'0:02.004',-0.833
'0:02.008',-0.823
'0:02.012',-0.835
'0:02.016',-0.877
'0:02.020',-0.882
'0:02.024',-0.882
'0:02.028',-0.877
'0:02.032',-0.865
'0:02.036',-0.835
'0:02.040',-0.858
'0:02.044',-0.860
'0:02.048',-0.895
'0:02.052',-0.882
'0:02.056',-0.890
'0:02.060',-0.875
'0:02.064',-0.863
'0:02.068',-0.858
'0:02.072',-0.853
'0:02.076',-0.900
'0:02.080',-0.877
'0:02.084',-0.895
'0:02.088',-0.882
'0:02.092',-0.882
'0:02.096',-0.865
'0:02.100',-0.870
'0:02.104',-0.900
'0:02.108',-0.850
'0:02.112',-0.877
'0:02.116',-0.882
'0:02.120',-0.910
'0:02.124',-0.920
'0:02.128',-0.907
'0:02.132',-0.865
'0:02.136',-0.877
'0:02.140',-0.875
'0:02.144',-0.890
'0:02.148',-0.907
'0:02.152',-0.907
'0:02.156',-0.915
'0:02.160',-0.897
'0:02.164',-0.912
'0:02.168',-0.895
'0:02.172',-0.902
'0:02.176',-0.925
'0:02.180',-0.910
'0:02.184',-0.925
'0:02.188',-0.935
'0:02.192',-0.935
'0:02.196',-0.910
'0:02.200',-0.927
'0:02.204',-0.925
'0:02.208',-0.935
'0:02.212',-0.948
'0:02.216',-0.973
'0:02.220',-0.988
'0:02.224',-0.953
'0:02.228',-0.983
'0:02.232',-0.965
'0:02.236',-0.975
'0:02.240',-0.925
'0:02.244',-0.988
'0:02.248',-1.008
'0:02.252',-1.000
'0:02.256',-0.990
'0:02.260',-0.970
'0:02.264',-0.998
'0:02.268',-0.985
'0:02.272',-0.988
'0:02.276',-1.000
'0:02.280',-1.002
'0:02.284',-1.000
'0:02.288',-0.983
'0:02.292',-1.012
'0:02.296',-0.970
'0:02.300',-0.953
'0:02.304',-0.940
'0:02.308',-0.985
'0:02.312',-1.015
'0:02.316',-1.020
'0:02.320',-1.048
'0:02.324',-1.028
'0:02.328',-1.050
'0:02.332',-1.010
'0:02.336',-1.038
'0:02.340',-1.077
'0:02.344',-1.103
'0:02.348',-1.127
'0:02.352',-1.140
'0:02.356',-1.175
'0:02.360',-1.170
'0:02.364',-1.145
'0:02.368',-1.140
'0:02.372',-1.150
'0:02.376',-1.145
'0:02.380',-1.165
'0:02.384',-1.173
'0:02.388',-1.175
'0:02.392',-1.133
'0:02.396',-1.137
'0:02.400',-1.077
'0:02.404',-1.012
'0:02.408',-0.848
'0:02.412',-0.637
'0:02.416',-0.250
'0:02.420',0.200
'0:02.424',0.700
'0:02.428',1.150
'0:02.432',1.420
'0:02.436',1.415
'0:02.440',1.123
'0:02.444',0.627
'0:02.448',0.077
'0:02.452',-0.438
'0:02.456',-0.828
'0:02.460',-1.120
'0:02.464',-1.240
'0:02.468',-1.290
'0:02.472',-1.308
'0:02.476',-1.300
'0:02.480',-1.320
'0:02.484',-1.365
'0:02.488',-1.383
'0:02.492',-1.385
'0:02.496',-1.410
'0:02.500',-1.440
'0:02.504',-1.423
'0:02.508',-1.452
'0:02.512',-1.450
'0:02.516',-1.458
'0:02.520',-1.512
'0:02.524',-1.488
'0:02.528',-1.478
'0:02.532',-1.472
'0:02.536',-1.472
'0:02.540',-1.460
'0:02.544',-1.522
'0:02.548',-1.508
'0:02.552',-1.512
'0:02.556',-1.485
'0:02.560',-1.478
'0:02.564',-1.482
'0:02.568',-1.472
'0:02.572',-1.440
'0:02.576',-1.440
'0:02.580',-1.475
'0:02.584',-1.485
'0:02.588',-1.510
'0:02.592',-1.498
'0:02.596',-1.475
'0:02.600',-1.462
'0:02.604',-1.450
'0:02.608',-1.465
'0:02.612',-1.462
'0:02.616',-1.427
'0:02.620',-1.438
'0:02.624',-1.438
'0:02.628',-1.433
'0:02.632',-1.438
'0:02.636',-1.395
'0:02.640',-1.403
'0:02.644',-1.407
'0:02.648',-1.397
'0:02.652',-1.413
'0:02.656',-1.397
'0:02.660',-1.400
'0:02.664',-1.363
'0:02.668',-1.340
'0:02.672',-1.312
'0:02.676',-1.335
'0:02.680',-1.377
'0:02.684',-1.327
'0:02.688',-1.350
'0:02.692',-1.315
'0:02.696',-1.327
'0:02.700',-1.285
'0:02.704',-1.245
'0:02.708',-1.282
'0:02.712',-1.300
'0:02.716',-1.285
'0:02.720',-1.295
'0:02.724',-1.288
'0:02.728',-1.240
'0:02.732',-1.258
'0:02.736',-1.208
'0:02.740',-1.208
'0:02.744',-1.225
'0:02.748',-1.235
'0:02.752',-1.212
'0:02.756',-1.200
'0:02.760',-1.195
'0:02.764',-1.115
'0:02.768',-1.100
'0:02.772',-1.052
'0:02.776',-1.032
'0:02.780',-1.025
'0:02.784',-0.975
'0:02.788',-0.960
'0:02.792',-0.900
'0:02.796',-0.900
'0:02.800',-0.873
'0:02.804',-0.863
'0:02.808',-0.825
'0:02.812',-0.873
'0:02.816',-0.877
'0:02.820',-0.858
'0:02.824',-0.887
'0:02.828',-0.860
'0:02.832',-0.870
'0:02.836',-0.858
'0:02.840',-0.825
'0:02.844',-0.882
'0:02.848',-0.863
'0:02.852',-0.870
'0:02.856',-0.823
'0:02.860',-0.828
'0:02.864',-0.877
'0:02.868',-0.860
'0:02.872',-0.838
'0:02.876',-0.825
'0:02.880',-0.825
'0:02.884',-0.848
'0:02.888',-0.853
'0:02.892',-0.825
'0:02.896',-0.828
'0:02.900',-0.790
'0:02.904',-0.815
'0:02.908',-0.790
'0:02.912',-0.807
'0:02.916',-0.825
'0:02.920',-0.823
'0:02.924',-0.797
'0:02.928',-0.785
'0:02.932',-0.775
'0:02.936',-0.752
'0:02.940',-0.775
'0:02.944',-0.762
'0:02.948',-0.750
'0:02.952',-0.797
'0:02.956',-0.815
'0:02.960',-0.782
'0:02.964',-0.790
'0:02.968',-0.752
'0:02.972',-0.757
'0:02.976',-0.740
'0:02.980',-0.762
'0:02.984',-0.797
'0:02.988',-0.775
'0:02.992',-0.757
'0:02.996',-0.762
'0:03.000',-0.757
'0:03.004',-0.720
'0:03.008',-0.752
'0:03.012',-0.748
'0:03.016',-0.775
'0:03.020',-0.772
'0:03.024',-0.785
'0:03.028',-0.735
'0:03.032',-0.740
'0:03.036',-0.713
'0:03.040',-0.725
'0:03.044',-0.745
'0:03.048',-0.775
'0:03.052',-0.762
'0:03.056',-0.762
'0:03.060',-0.760
'0:03.064',-0.738
'0:03.068',-0.738
'0:03.072',-0.720
'0:03.076',-0.762
'0:03.080',-0.728
'0:03.084',-0.757
'0:03.088',-0.760
'0:03.092',-0.745
'0:03.096',-0.738
'0:03.100',-0.733
'0:03.104',-0.733
'0:03.108',-0.690
'0:03.112',-0.710
'0:03.116',-0.715
'0:03.120',-0.723
'0:03.124',-0.688
'0:03.128',-0.735
'0:03.132',-0.720
'0:03.136',-0.708
'0:03.140',-0.700
'0:03.144',-0.698
'0:03.148',-0.715
'0:03.152',-0.720
'0:03.156',-0.713
'0:03.160',-0.733
'0:03.164',-0.713
'0:03.168',-0.690
'0:03.172',-0.698
'0:03.176',-0.708
'0:03.180',-0.690
'0:03.184',-0.725
'0:03.188',-0.703
'0:03.192',-0.723
'0:03.196',-0.715
'0:03.200',-0.677
'0:03.204',-0.688
'0:03.208',-0.708
'0:03.212',-0.703
'0:03.216',-0.670
'0:03.220',-0.723
'0:03.224',-0.688
'0:03.228',-0.710
'0:03.232',-0.682
'0:03.236',-0.635
'0:03.240',-0.657
'0:03.244',-0.682
'0:03.248',-0.662
'0:03.252',-0.695
'0:03.256',-0.688
'0:03.260',-0.660
'0:03.264',-0.627
'0:03.268',-0.623
'0:03.272',-0.660
'0:03.276',-0.632
'0:03.280',-0.652
'0:03.284',-0.625
'0:03.288',-0.625
'0:03.292',-0.670
'0:03.296',-0.632
'0:03.300',-0.637
'0:03.304',-0.632
'0:03.308',-0.625
'0:03.312',-0.610
'0:03.316',-0.623
'0:03.320',-0.665
'0:03.324',-0.635
'0:03.328',-0.603
'0:03.332',-0.588
'0:03.336',-0.578
'0:03.340',-0.557
'0:03.344',-0.610
'0:03.348',-0.578
'0:03.352',-0.595
'0:03.356',-0.560
'0:03.360',-0.527
'0:03.364',-0.500
'0:03.368',-0.500
'0:03.372',-0.512
'0:03.376',-0.472
'0:03.380',-0.487
'0:03.384',-0.500
'0:03.388',-0.465
'0:03.392',-0.445
'0:03.396',-0.450
'0:03.400',-0.415
'0:03.404',-0.422
'0:03.408',-0.420
'0:03.412',-0.410
'0:03.416',-0.425
'0:03.420',-0.422
'0:03.424',-0.420
'0:03.428',-0.453
'0:03.432',-0.427
'0:03.436',-0.410
'0:03.440',-0.425
'0:03.444',-0.465
'0:03.448',-0.435
'0:03.452',-0.415
'0:03.456',-0.415
'0:03.460',-0.390
'0:03.464',-0.370
'0:03.468',-0.338
'0:03.472',-0.340
'0:03.476',-0.328
'0:03.480',-0.323
'0:03.484',-0.338
'0:03.488',-0.310
'0:03.492',-0.282
'0:03.496',-0.237
'0:03.500',-0.122
'0:03.504',0.037
'0:03.508',0.278
'0:03.512',0.613
'0:03.516',1.045
'0:03.520',1.470
'0:03.524',1.972
'0:03.528',2.288
'0:03.532',2.395
'0:03.536',2.145
'0:03.540',1.660
'0:03.544',1.065
'0:03.548',0.475
'0:03.552',-0.007
'0:03.556',-0.250
'0:03.560',-0.347
'0:03.564',-0.378
'0:03.568',-0.362
'0:03.572',-0.328
'0:03.576',-0.295
'0:03.580',-0.333
'0:03.584',-0.345
'0:03.588',-0.388
'0:03.592',-0.412
'0:03.596',-0.410
'0:03.600',-0.432
'0:03.604',-0.427
'0:03.608',-0.432
'0:03.612',-0.435
'0:03.616',-0.445
'0:03.620',-0.435
'0:03.624',-0.400
'0:03.628',-0.458
'0:03.632',-0.432
'0:03.636',-0.403
'0:03.640',-0.375
'0:03.644',-0.440
'0:03.648',-0.440
'0:03.652',-0.448
'0:03.656',-0.450
'0:03.660',-0.445
'0:03.664',-0.460
'0:03.668',-0.453
'0:03.672',-0.453
'0:03.676',-0.445
'0:03.680',-0.448
'0:03.684',-0.458
'0:03.688',-0.460
'0:03.692',-0.465
'0:03.696',-0.403
'0:03.700',-0.425
'0:03.704',-0.390
'0:03.708',-0.400
'0:03.712',-0.388
'0:03.716',-0.425
'0:03.720',-0.463
'0:03.724',-0.450
'0:03.728',-0.427
'0:03.732',-0.422
'0:03.736',-0.375
'0:03.740',-0.390
'0:03.744',-0.388
'0:03.748',-0.410
'0:03.752',-0.407
'0:03.756',-0.435
'0:03.760',-0.395
'0:03.764',-0.388
'0:03.768',-0.372
'0:03.772',-0.362
'0:03.776',-0.357
'0:03.780',-0.385
'0:03.784',-0.385
'0:03.788',-0.403
'0:03.792',-0.375
'0:03.796',-0.370
'0:03.800',-0.352
'0:03.804',-0.362
'0:03.808',-0.347
'0:03.812',-0.360
'0:03.816',-0.335
'0:03.820',-0.390
'0:03.824',-0.320
'0:03.828',-0.325
'0:03.832',-0.285
'0:03.836',-0.263
'0:03.840',-0.253
'0:03.844',-0.225
'0:03.848',-0.200
'0:03.852',-0.177
'0:03.856',-0.163
'0:03.860',-0.125
'0:03.864',-0.100
'0:03.868',-0.085
'0:03.872',-0.062
'0:03.876',-0.060
'0:03.880',-0.062
'0:03.884',-0.095
'0:03.888',-0.083
'0:03.892',-0.075
'0:03.896',-0.085
'0:03.900',-0.090
'0:03.904',-0.062
'0:03.908',-0.077
'0:03.912',-0.100
'0:03.916',-0.087
'0:03.920',-0.125
'0:03.924',-0.107
'0:03.928',-0.113
'0:03.932',-0.070
'0:03.936',-0.095
'0:03.940',-0.102
'0:03.944',-0.100
'0:03.948',-0.113
'0:03.952',-0.095
'0:03.956',-0.122
'0:03.960',-0.090
'0:03.964',-0.077
'0:03.968',-0.077
'0:03.972',-0.087
'0:03.976',-0.100
'0:03.980',-0.098
'0:03.984',-0.100
'0:03.988',-0.125
'0:03.992',-0.075
'0:03.996',-0.075
'0:04.000',-0.083
'0:04.004',-0.072
'0:04.008',-0.098
'0:04.012',-0.090
'0:04.016',-0.138
'0:04.020',-0.140
'0:04.024',-0.100
'0:04.028',-0.115
'0:04.032',-0.113
'0:04.036',-0.110
'0:04.040',-0.110
'0:04.044',-0.125
'0:04.048',-0.147
'0:04.052',-0.147
'0:04.056',-0.185
'0:04.060',-0.163
'0:04.064',-0.145
'0:04.068',-0.113
'0:04.072',-0.140
'0:04.076',-0.140
'0:04.080',-0.135
'0:04.084',-0.182
'0:04.088',-0.158
'0:04.092',-0.165
'0:04.096',-0.185
'0:04.100',-0.150
'0:04.104',-0.150
'0:04.108',-0.158
'0:04.112',-0.172
'0:04.116',-0.188
'0:04.120',-0.190
'0:04.124',-0.182
'0:04.128',-0.175
'0:04.132',-0.185
'0:04.136',-0.172
'0:04.140',-0.133
'0:04.144',-0.175
'0:04.148',-0.160
'0:04.152',-0.203
'0:04.156',-0.185
'0:04.160',-0.188
'0:04.164',-0.145
'0:04.168',-0.177
'0:04.172',-0.140
'0:04.176',-0.160
'0:04.180',-0.182
'0:04.184',-0.207
'0:04.188',-0.172
'0:04.192',-0.210
'0:04.196',-0.212
'0:04.200',-0.177
'0:04.204',-0.158
'0:04.208',-0.158
'0:04.212',-0.210
'0:04.216',-0.212
'0:04.220',-0.212
'0:04.224',-0.175
'0:04.228',-0.182
'0:04.232',-0.170
'0:04.236',-0.138
'0:04.240',-0.150
'0:04.244',-0.177
'0:04.248',-0.172
'0:04.252',-0.165
'0:04.256',-0.185
'0:04.260',-0.185
'0:04.264',-0.147
'0:04.268',-0.140
'0:04.272',-0.145
'0:04.276',-0.122
'0:04.280',-0.158
'0:04.284',-0.188
'0:04.288',-0.150
'0:04.292',-0.163
'0:04.296',-0.140
'0:04.300',-0.135
'0:04.304',-0.140
'0:04.308',-0.140
'0:04.312',-0.163
'0:04.316',-0.175
'0:04.320',-0.163
'0:04.324',-0.163
'0:04.328',-0.160
'0:04.332',-0.138
'0:04.336',-0.120
'0:04.340',-0.095
'0:04.344',-0.113
'0:04.348',-0.125
'0:04.352',-0.122
'0:04.356',-0.102
'0:04.360',-0.128
'0:04.364',-0.110
'0:04.368',-0.085
'0:04.372',-0.087
'0:04.376',-0.115
'0:04.380',-0.125
'0:04.384',-0.133
'0:04.388',-0.083
'0:04.392',-0.100
'0:04.396',-0.077
'0:04.400',-0.085
'0:04.404',-0.035
'0:04.408',-0.015
'0:04.412',-0.028
'0:04.416',-0.058
'0:04.420',0.007
'0:04.424',-0.028
'0:04.428',0.007
'0:04.432',0.013
'0:04.436',0.028
'0:04.440',0.015
'0:04.444',0.015
'0:04.448',0.028
'0:04.452',0.000
'0:04.456',0.022
'0:04.460',0.015
'0:04.464',0.035
'0:04.468',0.013
'0:04.472',-0.033
'0:04.476',0.022
'0:04.480',-0.048
'0:04.484',-0.033
'0:04.488',-0.058
'0:04.492',-0.028
'0:04.496',-0.022
'0:04.500',0.020
'0:04.504',0.007
'0:04.508',0.015
'0:04.512',0.025
'0:04.516',0.035
'0:04.520',0.022
'0:04.524',0.033
'0:04.528',0.062
'0:04.532',0.102
'0:04.536',0.095
'0:04.540',0.147
'0:04.544',0.133
'0:04.548',0.260
'0:04.552',0.385
'0:04.556',0.625
'0:04.560',0.983
'0:04.564',1.482
'0:04.568',1.970
'0:04.572',2.410
'0:04.576',2.565
'0:04.580',2.498
'0:04.584',2.070
'0:04.588',1.522
'0:04.592',0.897
'0:04.596',0.458
'0:04.600',0.140
'0:04.604',-0.022
'0:04.608',0.000
'0:04.612',-0.035
'0:04.616',-0.010
'0:04.620',0.000
'0:04.624',0.010
'0:04.628',-0.015
'0:04.632',0.003
'0:04.636',-0.050
'0:04.640',-0.050
'0:04.644',-0.077
'0:04.648',-0.110
'0:04.652',-0.098
'0:04.656',-0.100
'0:04.660',-0.122
'0:04.664',-0.115
'0:04.668',-0.060
'0:04.672',-0.113
'0:04.676',-0.095
'0:04.680',-0.110
'0:04.684',-0.147
'0:04.688',-0.128
'0:04.692',-0.113
'0:04.696',-0.115
'0:04.700',-0.100
'0:04.704',-0.102
'0:04.708',-0.125
'0:04.712',-0.140
'0:04.716',-0.113
'0:04.720',-0.150
'0:04.724',-0.133
'0:04.728',-0.107
'0:04.732',-0.147
'0:04.736',-0.098
'0:04.740',-0.113
'0:04.744',-0.120
'0:04.748',-0.147
'0:04.752',-0.150
'0:04.756',-0.115
'0:04.760',-0.147
'0:04.764',-0.138
'0:04.768',-0.113
'0:04.772',-0.062
'0:04.776',-0.095
'0:04.780',-0.120
'0:04.784',-0.135
'0:04.788',-0.110
'0:04.792',-0.115
'0:04.796',-0.122
'0:04.800',-0.115
'0:04.804',-0.100
'0:04.808',-0.113
'0:04.812',-0.083
'0:04.816',-0.120
'0:04.820',-0.147
'0:04.824',-0.120
'0:04.828',-0.133
'0:04.832',-0.125
'0:04.836',-0.113
'0:04.840',-0.122
'0:04.844',-0.107
'0:04.848',-0.150
'0:04.852',-0.133
'0:04.856',-0.147
'0:04.860',-0.120
'0:04.864',-0.128
'0:04.868',-0.085
'0:04.872',-0.083
'0:04.876',-0.072
'0:04.880',-0.085
'0:04.884',-0.083
'0:04.888',-0.120
'0:04.892',-0.065
'0:04.896',-0.020
'0:04.900',0.000
'0:04.904',0.052
'0:04.908',0.110
'0:04.912',0.077
'0:04.916',0.095
'0:04.920',0.048
'0:04.924',0.077
'0:04.928',0.113
'0:04.932',0.152
'0:04.936',0.150
'0:04.940',0.170
'0:04.944',0.175
'0:04.948',0.138
'0:04.952',0.135
'0:04.956',0.107
'0:04.960',0.140
'0:04.964',0.113
'0:04.968',0.140
'0:04.972',0.122
'0:04.976',0.133
'0:04.980',0.102
'0:04.984',0.065
'0:04.988',0.052
'0:04.992',0.072
'0:04.996',0.090
'0:05.000',0.098
'0:05.004',0.100
'0:05.008',0.085
'0:05.012',0.070
'0:05.016',0.095
'0:05.020',0.048
'0:05.024',0.045
'0:05.028',0.090
'0:05.032',0.058
'0:05.036',0.077
'0:05.040',0.098
'0:05.044',0.052
'0:05.048',0.060
'0:05.052',0.050
'0:05.056',0.028
'0:05.060',0.040
'0:05.064',0.040
'0:05.068',0.050
'0:05.072',0.077
'0:05.076',0.060
'0:05.080',0.050
'0:05.084',-0.010
'0:05.088',0.013
'0:05.092',0.020
'0:05.096',0.025
'0:05.100',0.035
'0:05.104',0.062
'0:05.108',-0.015
'0:05.112',-0.010
'0:05.116',0.003
'0:05.120',-0.040
'0:05.124',-0.015
'0:05.128',-0.033
'0:05.132',0.007
'0:05.136',-0.033
'0:05.140',0.000
'0:05.144',-0.060
'0:05.148',-0.015
'0:05.152',-0.022
'0:05.156',-0.035
'0:05.160',-0.048
'0:05.164',-0.028
'0:05.168',-0.015
'0:05.172',-0.015
'0:05.176',-0.022
'0:05.180',-0.048
'0:05.184',-0.062
'0:05.188',-0.083
'0:05.192',-0.070
'0:05.196',-0.058
'0:05.200',-0.045
'0:05.204',-0.037
'0:05.208',-0.045
'0:05.212',-0.065
'0:05.216',-0.077
'0:05.220',-0.075
'0:05.224',-0.083
'0:05.228',-0.095
'0:05.232',-0.050
'0:05.236',-0.052
'0:05.240',-0.040
'0:05.244',-0.045
'0:05.248',-0.062
'0:05.252',-0.087
'0:05.256',-0.062
'0:05.260',-0.065
'0:05.264',-0.037
'0:05.268',-0.033
'0:05.272',-0.028
'0:05.276',-0.048
'0:05.280',-0.087
'0:05.284',-0.087
'0:05.288',-0.075
'0:05.292',-0.065
'0:05.296',-0.115
'0:05.300',-0.070
'0:05.304',-0.040
'0:05.308',-0.075
'0:05.312',-0.087
'0:05.316',-0.095
'0:05.320',-0.125
'0:05.324',-0.075
'0:05.328',-0.113
'0:05.332',-0.072
'0:05.336',-0.060
'0:05.340',-0.062
'0:05.344',-0.060
'0:05.348',-0.070
'0:05.352',-0.120
'0:05.356',-0.075
'0:05.360',-0.102
'0:05.364',-0.062
'0:05.368',-0.075
'0:05.372',-0.077
'0:05.376',-0.095
'0:05.380',-0.110
'0:05.384',-0.075
'0:05.388',-0.113
'0:05.392',-0.098
'0:05.396',-0.072
'0:05.400',-0.060
'0:05.404',-0.062
'0:05.408',-0.050
'0:05.412',-0.075
'0:05.416',-0.050
'0:05.420',-0.095
'0:05.424',-0.083
'0:05.428',-0.045
'0:05.432',-0.033
'0:05.436',-0.048
'0:05.440',-0.062
'0:05.444',-0.025
'0:05.448',-0.045
'0:05.452',-0.052
'0:05.456',-0.025
'0:05.460',-0.045
'0:05.464',-0.007
'0:05.468',0.022
'0:05.472',0.015
'0:05.476',0.022
'0:05.480',0.022
'0:05.484',0.015
'0:05.488',0.010
'0:05.492',0.035
'0:05.496',0.025
'0:05.500',0.035
'0:05.504',0.062
'0:05.508',0.090
'0:05.512',0.022
'0:05.516',0.045
'0:05.520',-0.020
'0:05.524',0.020
'0:05.528',0.028
'0:05.532',-0.015
'0:05.536',0.007
'0:05.540',0.000
'0:05.544',0.000
'0:05.548',-0.062
'0:05.552',-0.015
'0:05.556',-0.025
'0:05.560',-0.015
'0:05.564',0.022
'0:05.568',0.037
'0:05.572',0.040
'0:05.576',0.052
'0:05.580',0.070
'0:05.584',0.058
'0:05.588',0.095
'0:05.592',0.120
'0:05.596',0.237
'0:05.600',0.445
'0:05.604',0.752
'0:05.608',1.200
'0:05.612',1.637
'0:05.616',2.170
'0:05.620',2.400
'0:05.624',2.320
'0:05.628',1.927
'0:05.632',1.350
'0:05.636',0.765
'0:05.640',0.323
'0:05.644',-0.022
'0:05.648',-0.110
'0:05.652',-0.133
'0:05.656',-0.083
'0:05.660',-0.075
'0:05.664',-0.022
'0:05.668',-0.040
'0:05.672',-0.050
'0:05.676',-0.125
'0:05.680',-0.113
'0:05.684',-0.185
'0:05.688',-0.152
'0:05.692',-0.175
'0:05.696',-0.158
'0:05.700',-0.145
'0:05.704',-0.158
'0:05.708',-0.120
'0:05.712',-0.188
'0:05.716',-0.152
'0:05.720',-0.188
'0:05.724',-0.172
'0:05.728',-0.220
'0:05.732',-0.198
'0:05.736',-0.177
'0:05.740',-0.212
'0:05.744',-0.210
'0:05.748',-0.207
'0:05.752',-0.228
'0:05.756',-0.212
'0:05.760',-0.210
'0:05.764',-0.220
'0:05.768',-0.203
'0:05.772',-0.207
'0:05.776',-0.203
'0:05.780',-0.235
'0:05.784',-0.215
'0:05.788',-0.250
'0:05.792',-0.212
'0:05.796',-0.225
'0:05.800',-0.195
'0:05.804',-0.195
'0:05.808',-0.200
'0:05.812',-0.212
'0:05.816',-0.207
'0:05.820',-0.200
'0:05.824',-0.245
'0:05.828',-0.195
'0:05.832',-0.220
'0:05.836',-0.182
'0:05.840',-0.190
'0:05.844',-0.215
'0:05.848',-0.228
'0:05.852',-0.240
'0:05.856',-0.203
'0:05.860',-0.223
'0:05.864',-0.182
'0:05.868',-0.163
'0:05.872',-0.200
'0:05.876',-0.190
'0:05.880',-0.237
'0:05.884',-0.278
'0:05.888',-0.245
'0:05.892',-0.237
'0:05.896',-0.215
'0:05.900',-0.220
'0:05.904',-0.210
'0:05.908',-0.212
'0:05.912',-0.237
'0:05.916',-0.215
'0:05.920',-0.240
'0:05.924',-0.195
'0:05.928',-0.172
'0:05.932',-0.175
'0:05.936',-0.125
'0:05.940',-0.115
'0:05.944',-0.128
'0:05.948',-0.128
'0:05.952',-0.085
'0:05.956',-0.077
'0:05.960',-0.020
'0:05.964',0.010
'0:05.968',0.028
'0:05.972',0.052
'0:05.976',0.028
'0:05.980',0.007
'0:05.984',0.022
'0:05.988',0.013
'0:05.992',0.025
'0:05.996',0.010
'0:06.000',0.000
'0:06.004',0.003
'0:06.008',-0.013
'0:06.012',-0.010
'0:06.016',-0.033
'0:06.020',-0.050
'0:06.024',-0.048
'0:06.028',-0.058
'0:06.032',-0.050
'0:06.036',-0.072
'0:06.040',-0.060
'0:06.044',-0.033
'0:06.048',-0.040
'0:06.052',-0.083
'0:06.056',-0.072
'0:06.060',-0.083
'0:06.064',-0.025
'0:06.068',-0.033
'0:06.072',-0.035
'0:06.076',-0.035
'0:06.080',-0.070
'0:06.084',-0.062
'0:06.088',-0.070
'0:06.092',-0.062
'0:06.096',-0.040
'0:06.100',-0.062
'0:06.104',-0.015
'0:06.108',-0.013
'0:06.112',-0.050
'0:06.116',-0.048
'0:06.120',-0.075
'0:06.124',-0.077
'0:06.128',-0.045
'0:06.132',-0.050
'0:06.136',-0.045
'0:06.140',-0.072
'0:06.144',-0.062
'0:06.148',-0.107
'0:06.152',-0.110
'0:06.156',-0.113
'0:06.160',-0.087
'0:06.164',-0.122
'0:06.168',-0.110
'0:06.172',-0.090
'0:06.176',-0.100
'0:06.180',-0.122
'0:06.184',-0.125
'0:06.188',-0.122
'0:06.192',-0.120
'0:06.196',-0.150
'0:06.200',-0.133
'0:06.204',-0.090
'0:06.208',-0.100
'0:06.212',-0.140
'0:06.216',-0.163
'0:06.220',-0.138
'0:06.224',-0.152
'0:06.228',-0.158
'0:06.232',-0.133
'0:06.236',-0.083
'0:06.240',-0.113
'0:06.244',-0.140
'0:06.248',-0.133
'0:06.252',-0.165
'0:06.256',-0.188
'0:06.260',-0.150
'0:06.264',-0.125
'0:06.268',-0.122
'0:06.272',-0.115
'0:06.276',-0.135
'0:06.280',-0.125
'0:06.284',-0.175
'0:06.288',-0.177
'0:06.292',-0.138
'0:06.296',-0.138
'0:06.300',-0.125
'0:06.304',-0.160
'0:06.308',-0.152
'0:06.312',-0.133
'0:06.316',-0.150
'0:06.320',-0.170
'0:06.324',-0.158
'0:06.328',-0.120
'0:06.332',-0.135
'0:06.336',-0.145
'0:06.340',-0.100
'0:06.344',-0.128
'0:06.348',-0.140
'0:06.352',-0.165
'0:06.356',-0.147
'0:06.360',-0.158
'0:06.364',-0.160
'0:06.368',-0.150
'0:06.372',-0.110
'0:06.376',-0.125
'0:06.380',-0.145
'0:06.384',-0.140
'0:06.388',-0.160
'0:06.392',-0.150
'0:06.396',-0.150
'0:06.400',-0.125
'0:06.404',-0.138
'0:06.408',-0.147
'0:06.412',-0.152
'0:06.416',-0.140
'0:06.420',-0.165
'0:06.424',-0.140
'0:06.428',-0.128
'0:06.432',-0.122
'0:06.436',-0.115
'0:06.440',-0.140
'0:06.444',-0.122
'0:06.448',-0.125
'0:06.452',-0.140
'0:06.456',-0.152
'0:06.460',-0.160
'0:06.464',-0.107
'0:06.468',-0.100
'0:06.472',-0.113
'0:06.476',-0.113
'0:06.480',-0.138
'0:06.484',-0.125
'0:06.488',-0.145
'0:06.492',-0.087
'0:06.496',-0.113
'0:06.500',-0.083
'0:06.504',-0.062
'0:06.508',-0.060
'0:06.512',-0.065
'0:06.516',-0.052
'0:06.520',-0.072
'0:06.524',-0.060
'0:06.528',-0.015
'0:06.532',-0.013
'0:06.536',-0.010
'0:06.540',-0.007
'0:06.544',-0.015
'0:06.548',-0.033
'0:06.552',-0.058
'0:06.556',-0.013
'0:06.560',-0.037
'0:06.564',0.013
'0:06.568',0.025
'0:06.572',-0.013
'0:06.576',0.015
'0:06.580',-0.037
'0:06.584',-0.040
'0:06.588',-0.048
'0:06.592',-0.045
'0:06.596',-0.048
'0:06.600',-0.028
'0:06.604',-0.015
'0:06.608',-0.013
'0:06.612',-0.028
'0:06.616',-0.020
'0:06.620',0.007
'0:06.624',0.007
'0:06.628',0.000
'0:06.632',0.025
'0:06.636',0.033
'0:06.640',0.075
'0:06.644',0.058
'0:06.648',0.115
'0:06.652',0.300
'0:06.656',0.550
'0:06.660',0.907
'0:06.664',1.360
'0:06.668',1.873
'0:06.672',2.275
'0:06.676',2.462
'0:06.680',2.373
'0:06.684',2.027
'0:06.688',1.475
'0:06.692',0.970
'0:06.696',0.472
'0:06.700',0.175
'0:06.704',0.045
'0:06.708',-0.010
'0:06.712',-0.028
'0:06.716',-0.058
'0:06.720',-0.022
'0:06.724',-0.013
'0:06.728',-0.048
'0:06.732',-0.037
'0:06.736',-0.060
'0:06.740',-0.085
'0:06.744',-0.102
'0:06.748',-0.125
'0:06.752',-0.125
'0:06.756',-0.152
'0:06.760',-0.150
'0:06.764',-0.098
'0:06.768',-0.128
'0:06.772',-0.165
'0:06.776',-0.152
'0:06.780',-0.165
'0:06.784',-0.200
'0:06.788',-0.198
'0:06.792',-0.200
'0:06.796',-0.163
'0:06.800',-0.177
'0:06.804',-0.188
'0:06.808',-0.210
'0:06.812',-0.182
'0:06.816',-0.212
'0:06.820',-0.210
'0:06.824',-0.220
'0:06.828',-0.175
'0:06.832',-0.195
'0:06.836',-0.175
'0:06.840',-0.170
'0:06.844',-0.190
'0:06.848',-0.190
'0:06.852',-0.203
'0:06.856',-0.182
'0:06.860',-0.182
'0:06.864',-0.182
'0:06.868',-0.140
'0:06.872',-0.163
'0:06.876',-0.158
'0:06.880',-0.190
'0:06.884',-0.215
'0:06.888',-0.182
'0:06.892',-0.182
'0:06.896',-0.185
'0:06.900',-0.175
'0:06.904',-0.147
'0:06.908',-0.150
'0:06.912',-0.150
'0:06.916',-0.170
'0:06.920',-0.163
'0:06.924',-0.163
'0:06.928',-0.170
'0:06.932',-0.158
'0:06.936',-0.135
'0:06.940',-0.175
'0:06.944',-0.198
'0:06.948',-0.188
'0:06.952',-0.182
'0:06.956',-0.203
'0:06.960',-0.203
'0:06.964',-0.158
'0:06.968',-0.160
'0:06.972',-0.198
'0:06.976',-0.163
'0:06.980',-0.200
'0:06.984',-0.182
'0:06.988',-0.200
'0:06.992',-0.177
'0:06.996',-0.135
'0:07.000',-0.125
'0:07.004',-0.090
'0:07.008',-0.113
'0:07.012',-0.075
'0:07.016',-0.090
'0:07.020',-0.050
'0:07.024',-0.020
'0:07.028',0.010
'0:07.032',0.033
'0:07.036',0.077
'0:07.040',0.087
'0:07.044',0.110
'0:07.048',0.095
'0:07.052',0.072
'0:07.056',0.107
'0:07.060',0.135
'0:07.064',0.120
'0:07.068',0.140
'0:07.072',0.122
'0:07.076',0.113
'0:07.080',0.062
'0:07.084',0.035
'0:07.088',0.058
'0:07.092',0.052
'0:07.096',0.062
'0:07.100',0.070
'0:07.104',0.062
'0:07.108',0.070
'0:07.112',0.033
'0:07.116',0.025
'0:07.120',0.020
'0:07.124',0.040
'0:07.128',0.022
'0:07.132',0.058
'0:07.136',0.075
'0:07.140',0.060
'0:07.144',0.015
'0:07.148',0.025
'0:07.152',0.010
'0:07.156',0.015
'0:07.160',0.050
'0:07.164',0.028
'0:07.168',0.022
'0:07.172',0.022
'0:07.176',0.058
'0:07.180',0.022
'0:07.184',0.033
'0:07.188',-0.028
'0:07.192',0.025
'0:07.196',0.000
'0:07.200',0.033
'0:07.204',-0.010
'0:07.208',0.020
'0:07.212',-0.010
'0:07.216',-0.020
'0:07.220',-0.015
'0:07.224',0.013
'0:07.228',-0.010
'0:07.232',0.000
'0:07.236',0.000
'0:07.240',-0.037
'0:07.244',-0.020
'0:07.248',-0.037
'0:07.252',-0.050
'0:07.256',-0.062
'0:07.260',-0.072
'0:07.264',-0.062
'0:07.268',-0.020
'0:07.272',-0.033
'0:07.276',-0.070
'0:07.280',-0.075
'0:07.284',-0.065
'0:07.288',-0.077
'0:07.292',-0.065
'0:07.296',-0.113
'0:07.300',-0.070
'0:07.304',-0.050
'0:07.308',-0.062
'0:07.312',-0.072
'0:07.316',-0.087
'0:07.320',-0.050
'0:07.324',-0.087
'0:07.328',-0.095
'0:07.332',-0.115
'0:07.336',-0.083
'0:07.340',-0.072
'0:07.344',-0.085
'0:07.348',-0.107
'0:07.352',-0.107
'0:07.356',-0.115
'0:07.360',-0.100
'0:07.364',-0.098
'0:07.368',-0.113
'0:07.372',-0.090
'0:07.376',-0.107
'0:07.380',-0.107
'0:07.384',-0.098
'0:07.388',-0.125
'0:07.392',-0.102
'0:07.396',-0.110
'0:07.400',-0.110
'0:07.404',-0.098
'0:07.408',-0.087
'0:07.412',-0.150
'0:07.416',-0.100
'0:07.420',-0.122
'0:07.424',-0.115
'0:07.428',-0.083
'0:07.432',-0.090
'0:07.436',-0.098
'0:07.440',-0.100
'0:07.444',-0.107
'0:07.448',-0.120
'0:07.452',-0.128
'0:07.456',-0.110
'0:07.460',-0.138
'0:07.464',-0.135
'0:07.468',-0.100
'0:07.472',-0.098
'0:07.476',-0.087
'0:07.480',-0.087
'0:07.484',-0.135
'0:07.488',-0.085
'0:07.492',-0.145
'0:07.496',-0.100
'0:07.500',-0.102
'0:07.504',-0.072
'0:07.508',-0.125
'0:07.512',-0.110
'0:07.516',-0.115
'0:07.520',-0.113
'0:07.524',-0.138
'0:07.528',-0.083
'0:07.532',-0.107
'0:07.536',-0.083
'0:07.540',-0.090
'0:07.544',-0.095
'0:07.548',-0.113
'0:07.552',-0.113
'0:07.556',-0.083
'0:07.560',-0.058
'0:07.564',-0.060
'0:07.568',-0.028
'0:07.572',0.003
'0:07.576',-0.013
'0:07.580',-0.010
'0:07.584',-0.020
'0:07.588',-0.028
'0:07.592',-0.033
'0:07.596',-0.025
'0:07.600',0.022
'0:07.604',0.007
'0:07.608',0.028
'0:07.612',-0.048
'0:07.616',0.028
'0:07.620',-0.020
'0:07.624',0.022
'0:07.628',0.000
'0:07.632',-0.020
'0:07.636',0.048
'0:07.640',0.000
'0:07.644',-0.028
'0:07.648',-0.050
'0:07.652',-0.083
'0:07.656',-0.037
'0:07.660',-0.052
'0:07.664',-0.013
'0:07.668',0.022
'0:07.672',0.010
'0:07.676',0.037
'0:07.680',0.013
'0:07.684',0.052
'0:07.688',0.065
'0:07.692',0.060
'0:07.696',0.147
'0:07.700',0.190
'0:07.704',0.328
'0:07.708',0.575
'0:07.712',0.912
'0:07.716',1.320
'0:07.720',1.762
'0:07.724',2.197
'0:07.728',2.485
'0:07.732',2.500
'0:07.736',2.260
'0:07.740',1.810
'0:07.744',1.308
'0:07.748',0.848
'0:07.752',0.477
'0:07.756',0.225
'0:07.760',0.087
'0:07.764',0.048
'0:07.768',0.035
'0:07.772',0.045
'0:07.776',0.022
'0:07.780',-0.045
'0:07.784',-0.058
'0:07.788',-0.062
'0:07.792',-0.098
'0:07.796',-0.083
'0:07.800',-0.100
'0:07.804',-0.128
'0:07.808',-0.120
'0:07.812',-0.145
'0:07.816',-0.145
'0:07.820',-0.170
'0:07.824',-0.135
'0:07.828',-0.147
'0:07.832',-0.160
'0:07.836',-0.175
'0:07.840',-0.172
'0:07.844',-0.198
'0:07.848',-0.190
'0:07.852',-0.198
'0:07.856',-0.200
'0:07.860',-0.195
'0:07.864',-0.182
'0:07.868',-0.177
'0:07.872',-0.175
'0:07.876',-0.233
'0:07.880',-0.198
'0:07.884',-0.223
'0:07.888',-0.203
'0:07.892',-0.235
'0:07.896',-0.212
'0:07.900',-0.175
'0:07.904',-0.152
'0:07.908',-0.185
'0:07.912',-0.210
'0:07.916',-0.190
'0:07.920',-0.203
'0:07.924',-0.210
'0:07.928',-0.177
'0:07.932',-0.172
'0:07.936',-0.190
'0:07.940',-0.185
'0:07.944',-0.198
'0:07.948',-0.200
'0:07.952',-0.200
'0:07.956',-0.207
'0:07.960',-0.207
'0:07.964',-0.182
'0:07.968',-0.138
'0:07.972',-0.172
'0:07.976',-0.165
'0:07.980',-0.175
'0:07.984',-0.210
'0:07.988',-0.203
'0:07.992',-0.215
'0:07.996',-0.203
'0:08.000',-0.195
'0:08.004',-0.182
'0:08.008',-0.207
'0:08.012',-0.188
'0:08.016',-0.172
'0:08.020',-0.198
'0:08.024',-0.203
'0:08.028',-0.182
'0:08.032',-0.152
'0:08.036',-0.182
'0:08.040',-0.138
'0:08.044',-0.163
'0:08.048',-0.172
'0:08.052',-0.150
'0:08.056',-0.140
'0:08.060',-0.098
'0:08.064',-0.075
'0:08.068',-0.010
'0:08.072',-0.010
'0:08.076',0.040
'0:08.080',0.022
'0:08.084',0.052
'0:08.088',0.037
'0:08.092',0.058
'0:08.096',0.075
'0:08.100',0.113
'0:08.104',0.072
'0:08.108',0.062
'0:08.112',0.090
'0:08.116',0.028
'0:08.120',0.035
'0:08.124',0.050
'0:08.128',0.028
'0:08.132',0.035
'0:08.136',0.037
'0:08.140',0.040
'0:08.144',-0.020
'0:08.148',-0.015
'0:08.152',0.003
'0:08.156',0.007
'0:08.160',-0.028
'0:08.164',0.025
'0:08.168',0.020
'0:08.172',0.007
'0:08.176',0.010
'0:08.180',0.000
'0:08.184',-0.020
'0:08.188',-0.007
'0:08.192',0.010
'0:08.196',-0.013
'0:08.200',0.013
'0:08.204',0.015
'0:08.208',-0.013
'0:08.212',0.022
'0:08.216',-0.020
'0:08.220',-0.040
'0:08.224',-0.048
'0:08.228',0.003
'0:08.232',-0.025
'0:08.236',-0.007
'0:08.240',-0.045
'0:08.244',-0.048
'0:08.248',-0.072
'0:08.252',-0.115
'0:08.256',-0.075
'0:08.260',-0.062
'0:08.264',-0.060
'0:08.268',-0.045
'0:08.272',-0.035
'0:08.276',-0.077
'0:08.280',-0.072
'0:08.284',-0.115
'0:08.288',-0.075
'0:08.292',-0.085
'0:08.296',-0.095
'0:08.300',-0.070
'0:08.304',-0.072
'0:08.308',-0.100
'0:08.312',-0.095
'0:08.316',-0.115
'0:08.320',-0.122
'0:08.324',-0.102
'0:08.328',-0.085
'0:08.332',-0.077
'0:08.336',-0.098
'0:08.340',-0.090
'0:08.344',-0.125
'0:08.348',-0.122
'0:08.352',-0.150
'0:08.356',-0.133
'0:08.360',-0.120
'0:08.364',-0.102
'0:08.368',-0.070
'0:08.372',-0.113
'0:08.376',-0.125
'0:08.380',-0.150
'0:08.384',-0.147
'0:08.388',-0.138
'0:08.392',-0.128
'0:08.396',-0.113
'0:08.400',-0.077
'0:08.404',-0.113
'0:08.408',-0.113
'0:08.412',-0.140
'0:08.416',-0.133
'0:08.420',-0.128
'0:08.424',-0.135
'0:08.428',-0.147
'0:08.432',-0.138
'0:08.436',-0.145
'0:08.440',-0.107
'0:08.444',-0.140
'0:08.448',-0.122
'0:08.452',-0.128
'0:08.456',-0.110
'0:08.460',-0.120
'0:08.464',-0.113
'0:08.468',-0.140
'0:08.472',-0.152
'0:08.476',-0.140
'0:08.480',-0.152
'0:08.484',-0.158
'0:08.488',-0.163
'0:08.492',-0.160
'0:08.496',-0.140
'0:08.500',-0.138
'0:08.504',-0.122
'0:08.508',-0.133
'0:08.512',-0.115
'0:08.516',-0.163
'0:08.520',-0.163
'0:08.524',-0.147
'0:08.528',-0.172
'0:08.532',-0.170
'0:08.536',-0.133
'0:08.540',-0.125
'0:08.544',-0.165
'0:08.548',-0.170
'0:08.552',-0.190
'0:08.556',-0.147
'0:08.560',-0.165
'0:08.564',-0.163
'0:08.568',-0.113
'0:08.572',-0.147
'0:08.576',-0.128
'0:08.580',-0.163
'0:08.584',-0.158
'0:08.588',-0.165
'0:08.592',-0.138
'0:08.596',-0.100
'0:08.600',-0.065
'0:08.604',-0.090
'0:08.608',-0.083
'0:08.612',-0.115
'0:08.616',-0.095
'0:08.620',-0.052
'0:08.624',-0.062
'0:08.628',-0.062
'0:08.632',-0.052
'0:08.636',-0.058
'0:08.640',-0.037
'0:08.644',-0.050
'0:08.648',-0.060
'0:08.652',-0.075
'0:08.656',-0.058
'0:08.660',-0.060
'0:08.664',-0.050
'0:08.668',-0.022
'0:08.672',-0.035
'0:08.676',-0.070
'0:08.680',-0.040
'0:08.684',-0.087
'0:08.688',-0.107
'0:08.692',-0.077
'0:08.696',-0.077
'0:08.700',-0.070
'0:08.704',-0.075
'0:08.708',-0.050
'0:08.712',-0.077
'0:08.716',-0.058
'0:08.720',-0.062
'0:08.724',-0.025
'0:08.728',-0.033
'0:08.732',-0.013
'0:08.736',0.003
'0:08.740',0.025
'0:08.744',0.048
'0:08.748',0.075
'0:08.752',0.225
'0:08.756',0.388
'0:08.760',0.665
'0:08.764',1.062
'0:08.768',1.475
'0:08.772',1.925
'0:08.776',2.250
'0:08.780',2.390
'0:08.784',2.310
'0:08.788',1.995
'0:08.792',1.522
'0:08.796',1.113
'0:08.800',0.698
'0:08.804',0.385
'0:08.808',0.138
'0:08.812',-0.033
'0:08.816',-0.062
'0:08.820',-0.095
'0:08.824',-0.107
'0:08.828',-0.125
'0:08.832',-0.110
'0:08.836',-0.147
'0:08.840',-0.160
'0:08.844',-0.198
'0:08.848',-0.250
'0:08.852',-0.225
'0:08.856',-0.212
'0:08.860',-0.207
'0:08.864',-0.233
'0:08.868',-0.220
'0:08.872',-0.250
'0:08.876',-0.247
'0:08.880',-0.237
'0:08.884',-0.287
'0:08.888',-0.273
'0:08.892',-0.295
'0:08.896',-0.273
'0:08.900',-0.278
'0:08.904',-0.273
'0:08.908',-0.270
'0:08.912',-0.285
'0:08.916',-0.297
'0:08.920',-0.300
'0:08.924',-0.300
'0:08.928',-0.323
'0:08.932',-0.287
'0:08.936',-0.297
'0:08.940',-0.287
'0:08.944',-0.307
'0:08.948',-0.315
'0:08.952',-0.340
'0:08.956',-0.295
'0:08.960',-0.285
'0:08.964',-0.307
'0:08.968',-0.273
'0:08.972',-0.320
'0:08.976',-0.302
'0:08.980',-0.325
'0:08.984',-0.315
'0:08.988',-0.310
'0:08.992',-0.302
'0:08.996',-0.323
'0:09.000',-0.282
'0:09.004',-0.270
'0:09.008',-0.265
'0:09.012',-0.302
'0:09.016',-0.297
'0:09.020',-0.295
'0:09.024',-0.290
'0:09.028',-0.307
'0:09.032',-0.263
'0:09.036',-0.247
'0:09.040',-0.233
'0:09.044',-0.290
'0:09.048',-0.312
'0:09.052',-0.312
'0:09.056',-0.302
'0:09.060',-0.290
'0:09.064',-0.315
'0:09.068',-0.250
'0:09.072',-0.307
'0:09.076',-0.310
'0:09.080',-0.302
'0:09.084',-0.340
'0:09.088',-0.323
'0:09.092',-0.295
'0:09.096',-0.278
'0:09.100',-0.247
'0:09.104',-0.258
'0:09.108',-0.240
'0:09.112',-0.237
'0:09.116',-0.215
'0:09.120',-0.207
'0:09.124',-0.165
'0:09.128',-0.122
'0:09.132',-0.083
'0:09.136',-0.095
'0:09.140',-0.050
'0:09.144',-0.052
'0:09.148',-0.020
'0:09.152',-0.060
'0:09.156',-0.050
'0:09.160',-0.065
'0:09.164',-0.028
'0:09.168',-0.010
'0:09.172',-0.007
'0:09.176',-0.015
'0:09.180',-0.058
'0:09.184',-0.065
'0:09.188',-0.058
'0:09.192',-0.085
'0:09.196',-0.075
'0:09.200',-0.077
'0:09.204',-0.070
'0:09.208',-0.095
'0:09.212',-0.107
'0:09.216',-0.098
'0:09.220',-0.087
'0:09.224',-0.125
'0:09.228',-0.102
'0:09.232',-0.083
'0:09.236',-0.085
'0:09.240',-0.100
'0:09.244',-0.133
'0:09.248',-0.095
'0:09.252',-0.147
'0:09.256',-0.135
'0:09.260',-0.138
'0:09.264',-0.120
'0:09.268',-0.083
'0:09.272',-0.133
'0:09.276',-0.125
'0:09.280',-0.125
'0:09.284',-0.128
'0:09.288',-0.113
'0:09.292',-0.138
'0:09.296',-0.120
'0:09.300',-0.135
'0:09.304',-0.100
'0:09.308',-0.128
'0:09.312',-0.125
'0:09.316',-0.182
'0:09.320',-0.165
'0:09.324',-0.150
'0:09.328',-0.172
'0:09.332',-0.172
'0:09.336',-0.152
'0:09.340',-0.165
'0:09.344',-0.200
'0:09.348',-0.203
'0:09.352',-0.233
'0:09.356',-0.212
'0:09.360',-0.207
'0:09.364',-0.207
'0:09.368',-0.215
'0:09.372',-0.223
'0:09.376',-0.198
'0:09.380',-0.225
'0:09.384',-0.247
'0:09.388',-0.240
'0:09.392',-0.245
'0:09.396',-0.212
'0:09.400',-0.200
'0:09.404',-0.203
'0:09.408',-0.225
'0:09.412',-0.207
'0:09.416',-0.240
'0:09.420',-0.237
'0:09.424',-0.235
'0:09.428',-0.247
'0:09.432',-0.260
'0:09.436',-0.235
'0:09.440',-0.235
'0:09.444',-0.228
'0:09.448',-0.223
'0:09.452',-0.270
'0:09.456',-0.275
'0:09.460',-0.235
'0:09.464',-0.225
'0:09.468',-0.225
'0:09.472',-0.263
'0:09.476',-0.237
'0:09.480',-0.297
'0:09.484',-0.275
'0:09.488',-0.270
'0:09.492',-0.258
'0:09.496',-0.297
'0:09.500',-0.275
'0:09.504',-0.287
'0:09.508',-0.263
'0:09.512',-0.295
'0:09.516',-0.307
'0:09.520',-0.310
'0:09.524',-0.312
'0:09.528',-0.275
'0:09.532',-0.263
'0:09.536',-0.253
'0:09.540',-0.285
'0:09.544',-0.273
'0:09.548',-0.265
'0:09.552',-0.278
'0:09.556',-0.297
'0:09.560',-0.265
'0:09.564',-0.290
'0:09.568',-0.273
'0:09.572',-0.270
'0:09.576',-0.312
'0:09.580',-0.282
'0:09.584',-0.333
'0:09.588',-0.323
'0:09.592',-0.335
'0:09.596',-0.287
'0:09.600',-0.247
'0:09.604',-0.302
'0:09.608',-0.315
'0:09.612',-0.307
'0:09.616',-0.307
'0:09.620',-0.312
'0:09.624',-0.315
'0:09.628',-0.302
'0:09.632',-0.312
'0:09.636',-0.275
'0:09.640',-0.297
'0:09.644',-0.282
'0:09.648',-0.312
'0:09.652',-0.315
'0:09.656',-0.265
'0:09.660',-0.320
'0:09.664',-0.270
'0:09.668',-0.240
'0:09.672',-0.253
'0:09.676',-0.285
'0:09.680',-0.290
'0:09.684',-0.300
'0:09.688',-0.297
'0:09.692',-0.312
'0:09.696',-0.273
'0:09.700',-0.237
'0:09.704',-0.228
'0:09.708',-0.225
'0:09.712',-0.207
'0:09.716',-0.228
'0:09.720',-0.228
'0:09.724',-0.215
'0:09.728',-0.228
'0:09.732',-0.210
'0:09.736',-0.182
'0:09.740',-0.212
'0:09.744',-0.185
'0:09.748',-0.182
'0:09.752',-0.203
'0:09.756',-0.235
'0:09.760',-0.172
'0:09.764',-0.198
'0:09.768',-0.145
'0:09.772',-0.207
'0:09.776',-0.210
'0:09.780',-0.203
'0:09.784',-0.235
'0:09.788',-0.260
'0:09.792',-0.228
'0:09.796',-0.253
'0:09.800',-0.170
'0:09.804',-0.200
'0:09.808',-0.190
'0:09.812',-0.185
'0:09.816',-0.207
'0:09.820',-0.207
'0:09.824',-0.182
'0:09.828',-0.177
'0:09.832',-0.138
'0:09.836',-0.122
'0:09.840',-0.135
'0:09.844',-0.135
'0:09.848',-0.133
'0:09.852',-0.052
'0:09.856',0.058
'0:09.860',0.278
'0:09.864',0.588
'0:09.868',1.073
'0:09.872',1.585
'0:09.876',2.047
'0:09.880',2.322
'0:09.884',2.220
'0:09.888',1.827
'0:09.892',1.235
'0:09.896',0.698
'0:09.900',0.195
'0:09.904',-0.113
'0:09.908',-0.258
'0:09.912',-0.302
'0:09.916',-0.287
'0:09.920',-0.253
'0:09.924',-0.223
'0:09.928',-0.235
'0:09.932',-0.247
'0:09.936',-0.245
'0:09.940',-0.237
'0:09.944',-0.282
'0:09.948',-0.320
'0:09.952',-0.323
'0:09.956',-0.300
'0:09.960',-0.320
'0:09.964',-0.347
'0:09.968',-0.378
'0:09.972',-0.357
'0:09.976',-0.388
'0:09.980',-0.352
'0:09.984',-0.360
'0:09.988',-0.362
'0:09.992',-0.375
'0:09.996',-0.375
'0:10.000',-0.350
'0:10.004',-0.390
'0:10.008',-0.352
'0:10.012',-0.372
'0:10.016',-0.383
'0:10.020',-0.375
'0:10.024',-0.333
'0:10.028',-0.365
'0:10.032',-0.365
'0:10.036',-0.338
'0:10.040',-0.370
'0:10.044',-0.333
'0:10.048',-0.362
'0:10.052',-0.378
'0:10.056',-0.390
'0:10.060',-0.375
'0:10.064',-0.362
'0:10.068',-0.323
'0:10.072',-0.340
'0:10.076',-0.340
'0:10.080',-0.325
'0:10.084',-0.347
'0:10.088',-0.323
'0:10.092',-0.350
'0:10.096',-0.312
'0:10.100',-0.297
'0:10.104',-0.312
'0:10.108',-0.297
'0:10.112',-0.352
'0:10.116',-0.345
'0:10.120',-0.335
'0:10.124',-0.335
'0:10.128',-0.340
'0:10.132',-0.287
'0:10.136',-0.302
'0:10.140',-0.302
'0:10.144',-0.328
'0:10.148',-0.333
'0:10.152',-0.352
'0:10.156',-0.352
'0:10.160',-0.340
'0:10.164',-0.352
'0:10.168',-0.352
'0:10.172',-0.345
'0:10.176',-0.357
'0:10.180',-0.347
'0:10.184',-0.340
'0:10.188',-0.340
'0:10.192',-0.340
'0:10.196',-0.320
'0:10.200',-0.263
'0:10.204',-0.282
'0:10.208',-0.260
'0:10.212',-0.245
'0:10.216',-0.273
'0:10.220',-0.198
'0:10.224',-0.150
'0:10.228',-0.175
'0:10.232',-0.072
'0:10.236',-0.048
'0:10.240',-0.070
'0:10.244',-0.085
'0:10.248',-0.050
'0:10.252',-0.060
'0:10.256',-0.040
'0:10.260',-0.033
'0:10.264',0.013
'0:10.268',-0.020
'0:10.272',-0.013
'0:10.276',-0.037
'0:10.280',-0.075
'0:10.284',-0.107
'0:10.288',-0.107
'0:10.292',-0.077
'0:10.296',-0.100
'0:10.300',-0.083
'0:10.304',-0.102
'0:10.308',-0.087
'0:10.312',-0.113
'0:10.316',-0.133
'0:10.320',-0.107
'0:10.324',-0.113
'0:10.328',-0.045
'0:10.332',-0.098
'0:10.336',-0.087
'0:10.340',-0.048
'0:10.344',-0.110
'0:10.348',-0.102
'0:10.352',-0.140
'0:10.356',-0.072
'0:10.360',-0.077
'0:10.364',-0.113
'0:10.368',-0.085
'0:10.372',-0.087
'0:10.376',-0.085
'0:10.380',-0.125
'0:10.384',-0.138
'0:10.388',-0.128
'0:10.392',-0.102
'0:10.396',-0.125
'0:10.400',-0.100
'0:10.404',-0.100
'0:10.408',-0.120
'0:10.412',-0.145
'0:10.416',-0.177
'0:10.420',-0.147
'0:10.424',-0.165
'0:10.428',-0.110
'0:10.432',-0.100
'0:10.436',-0.133
'0:10.440',-0.128
'0:10.444',-0.163
'0:10.448',-0.170
'0:10.452',-0.185
'0:10.456',-0.182
'0:10.460',-0.160
'0:10.464',-0.122
'0:10.468',-0.150
'0:10.472',-0.182
'0:10.476',-0.182
'0:10.480',-0.177
'0:10.484',-0.182
'0:10.488',-0.233
'0:10.492',-0.182
'0:10.496',-0.163
'0:10.500',-0.195
'0:10.504',-0.190
'0:10.508',-0.175
'0:10.512',-0.237
'0:10.516',-0.220
'0:10.520',-0.225
'0:10.524',-0.223
'0:10.528',-0.198
'0:10.532',-0.163
'0:10.536',-0.188
'0:10.540',-0.177
'0:10.544',-0.188
'0:10.548',-0.220
'0:10.552',-0.233
'0:10.556',-0.200
'0:10.560',-0.225
'0:10.564',-0.188
'0:10.568',-0.190
'0:10.572',-0.177
'0:10.576',-0.190
'0:10.580',-0.203
'0:10.584',-0.215
'0:10.588',-0.220
'0:10.592',-0.237
'0:10.596',-0.228
'0:10.600',-0.195
'0:10.604',-0.182
'0:10.608',-0.225
'0:10.612',-0.228
'0:10.616',-0.245
'0:10.620',-0.195
'0:10.624',-0.225
'0:10.628',-0.200
'0:10.632',-0.170
'0:10.636',-0.160
'0:10.640',-0.188
'0:10.644',-0.175
'0:10.648',-0.200
'0:10.652',-0.207
'0:10.656',-0.172
'0:10.660',-0.195
'0:10.664',-0.250
'0:10.668',-0.163
'0:10.672',-0.207
'0:10.676',-0.223
'0:10.680',-0.225
'0:10.684',-0.225
'0:10.688',-0.237
'0:10.692',-0.235
'0:10.696',-0.210
'0:10.700',-0.200
'0:10.704',-0.212
'0:10.708',-0.212
'0:10.712',-0.215
'0:10.716',-0.182
'0:10.720',-0.233
'0:10.724',-0.225
'0:10.728',-0.210
'0:10.732',-0.195
'0:10.736',-0.200
'0:10.740',-0.233
'0:10.744',-0.210
'0:10.748',-0.200
'0:10.752',-0.240
'0:10.756',-0.188
'0:10.760',-0.188
'0:10.764',-0.160
'0:10.768',-0.147
'0:10.772',-0.145
'0:10.776',-0.177
'0:10.780',-0.140
'0:10.784',-0.163
'0:10.788',-0.140
'0:10.792',-0.135
'0:10.796',-0.133
'0:10.800',-0.095
'0:10.804',-0.125
'0:10.808',-0.095
'0:10.812',-0.120
'0:10.816',-0.125
'0:10.820',-0.110
'0:10.824',-0.110
'0:10.828',-0.110
'0:10.832',-0.095
'0:10.836',-0.065
'0:10.840',-0.100
'0:10.844',-0.100
'0:10.848',-0.133
'0:10.852',-0.147
'0:10.856',-0.125
'0:10.860',-0.113
'0:10.864',-0.135
'0:10.868',-0.100
'0:10.872',-0.095
'0:10.876',-0.128
'0:10.880',-0.163
'0:10.884',-0.128
'0:10.888',-0.125
'0:10.892',-0.107
'0:10.896',-0.100
'0:10.900',-0.060
'0:10.904',-0.065
'0:10.908',-0.062
'0:10.912',-0.015
'0:10.916',0.013
'0:10.920',0.138
'0:10.924',0.335
'0:10.928',0.698
'0:10.932',1.145
'0:10.936',1.690
'0:10.940',2.163
'0:10.944',2.458
'0:10.948',2.458
'0:10.952',2.107
'0:10.956',1.600
'0:10.960',1.010
'0:10.964',0.573
'0:10.968',0.163
'0:10.972',-0.075
'0:10.976',-0.140
'0:10.980',-0.110
'0:10.984',-0.107
'0:10.988',-0.120
'0:10.992',-0.133
'0:10.996',-0.110
'0:11.000',-0.135
'0:11.004',-0.182
'0:11.008',-0.188
'0:11.012',-0.207
'0:11.016',-0.228
'0:11.020',-0.245
'0:11.024',-0.245
'0:11.028',-0.225
'0:11.032',-0.198
'0:11.036',-0.212
'0:11.040',-0.235
'0:11.044',-0.250
'0:11.048',-0.263
'0:11.052',-0.278
'0:11.056',-0.300
'0:11.060',-0.258
'0:11.064',-0.200
'0:11.068',-0.228
'0:11.072',-0.295
'0:11.076',-0.278
'0:11.080',-0.275
'0:11.084',-0.315
'0:11.088',-0.320
'0:11.092',-0.287
'0:11.096',-0.273
'0:11.100',-0.273
'0:11.104',-0.245
'0:11.108',-0.260
'0:11.112',-0.290
'0:11.116',-0.273
'0:11.120',-0.278
'0:11.124',-0.278
'0:11.128',-0.285
'0:11.132',-0.253
'0:11.136',-0.265
'0:11.140',-0.282
'0:11.144',-0.275
'0:11.148',-0.290
'0:11.152',-0.320
'0:11.156',-0.275
'0:11.160',-0.270
'0:11.164',-0.253
'0:11.168',-0.258
'0:11.172',-0.263
'0:11.176',-0.265
'0:11.180',-0.300
'0:11.184',-0.270
'0:11.188',-0.290
'0:11.192',-0.223
'0:11.196',-0.278
'0:11.200',-0.253
'0:11.204',-0.263
'0:11.208',-0.250
'0:11.212',-0.270
'0:11.216',-0.275
'0:11.220',-0.333
'0:11.224',-0.307
'0:11.228',-0.250
'0:11.232',-0.278
'0:11.236',-0.275
'0:11.240',-0.307
'0:11.244',-0.273
'0:11.248',-0.297
'0:11.252',-0.312
'0:11.256',-0.297
'0:11.260',-0.237
'0:11.264',-0.212
'0:11.268',-0.212
'0:11.272',-0.207
'0:11.276',-0.140
'0:11.280',-0.125
'0:11.284',-0.128
'0:11.288',-0.158
'0:11.292',-0.077
'0:11.296',-0.095
'0:11.300',-0.020
'0:11.304',0.000
'0:11.308',-0.025
'0:11.312',0.010
'0:11.316',-0.028
'0:11.320',-0.015
'0:11.324',-0.040
'0:11.328',-0.035
'0:11.332',-0.048
'0:11.336',-0.040
'0:11.340',-0.035
'0:11.344',-0.052
'0:11.348',-0.075
'0:11.352',-0.072
'0:11.356',-0.077
'0:11.360',-0.058
'0:11.364',-0.083
'0:11.368',-0.040
'0:11.372',-0.052
'0:11.376',-0.100
'0:11.380',-0.062
'0:11.384',-0.072
'0:11.388',-0.077
'0:11.392',-0.060
'0:11.396',-0.062
'0:11.400',-0.045
'0:11.404',-0.062
'0:11.408',-0.065
'0:11.412',-0.060
'0:11.416',-0.100
'0:11.420',-0.095
'0:11.424',-0.083
'0:11.428',-0.098
'0:11.432',-0.058
'0:11.436',-0.065
'0:11.440',-0.085
'0:11.444',-0.085
'0:11.448',-0.100
'0:11.452',-0.110
'0:11.456',-0.098
'0:11.460',-0.077
'0:11.464',-0.087
'0:11.468',-0.070
'0:11.472',-0.062
'0:11.476',-0.083
'0:11.480',-0.122
'0:11.484',-0.115
'0:11.488',-0.122
'0:11.492',-0.100
'0:11.496',-0.125
'0:11.500',-0.113
'0:11.504',-0.107
'0:11.508',-0.107
'0:11.512',-0.125
'0:11.516',-0.163
'0:11.520',-0.147
'0:11.524',-0.165
'0:11.528',-0.133
'0:11.532',-0.147
'0:11.536',-0.107
'0:11.540',-0.140
'0:11.544',-0.175
'0:11.548',-0.177
'0:11.552',-0.172
'0:11.556',-0.177
'0:11.560',-0.163
'0:11.564',-0.152
'0:11.568',-0.152
'0:11.572',-0.172
'0:11.576',-0.158
'0:11.580',-0.190
'0:11.584',-0.223
'0:11.588',-0.177
'0:11.592',-0.190
'0:11.596',-0.172
'0:11.600',-0.158
'0:11.604',-0.145
'0:11.608',-0.188
'0:11.612',-0.160
'0:11.616',-0.182
'0:11.620',-0.185
'0:11.624',-0.198
'0:11.628',-0.177
'0:11.632',-0.165
'0:11.636',-0.138
'0:11.640',-0.175
'0:11.644',-0.188
'0:11.648',-0.188
'0:11.652',-0.195
'0:11.656',-0.200
'0:11.660',-0.177
'0:11.664',-0.165
'0:11.668',-0.182
'0:11.672',-0.165
'0:11.676',-0.177
'0:11.680',-0.200
'0:11.684',-0.198
'0:11.688',-0.190
'0:11.692',-0.225
'0:11.696',-0.188
'0:11.700',-0.198
'0:11.704',-0.163
'0:11.708',-0.207
'0:11.712',-0.175
'0:11.716',-0.215
'0:11.720',-0.223
'0:11.724',-0.198
'0:11.728',-0.185
'0:11.732',-0.165
'0:11.736',-0.172
'0:11.740',-0.172
'0:11.744',-0.175
'0:11.748',-0.195
'0:11.752',-0.172
'0:11.756',-0.175
'0:11.760',-0.190
'0:11.764',-0.182
'0:11.768',-0.145
'0:11.772',-0.125
'0:11.776',-0.177
'0:11.780',-0.152
'0:11.784',-0.185
'0:11.788',-0.188
'0:11.792',-0.163
'0:11.796',-0.165
'0:11.800',-0.163
'0:11.804',-0.125
'0:11.808',-0.113
'0:11.812',-0.145
'0:11.816',-0.138
'0:11.820',-0.147
'0:11.824',-0.140
'0:11.828',-0.107
'0:11.832',-0.095
'0:11.836',-0.077
'0:11.840',-0.090
'0:11.844',-0.083
'0:11.848',-0.100
'0:11.852',-0.083
'0:11.856',-0.113
'0:11.860',-0.087
'0:11.864',-0.050
'0:11.868',-0.033
'0:11.872',-0.020
'0:11.876',-0.048
'0:11.880',-0.033
'0:11.884',-0.077
'0:11.888',-0.070
'0:11.892',-0.065
'0:11.896',-0.085
'0:11.900',-0.048
'0:11.904',-0.075
'0:11.908',-0.087
'0:11.912',-0.133
'0:11.916',-0.140
'0:11.920',-0.138
'0:11.924',-0.140
'0:11.928',-0.098
'0:11.932',-0.090
'0:11.936',-0.100
'0:11.940',-0.095
'0:11.944',-0.087
'0:11.948',-0.058
'0:11.952',-0.052
'0:11.956',-0.040
'0:11.960',-0.037
'0:11.964',0.015
'0:11.968',0.107
'0:11.972',0.275
'0:11.976',0.525
'0:11.980',0.863
'0:11.984',1.262
'0:11.988',1.690
'0:11.992',2.078
'0:11.996',2.250
'0:12.000',2.175
'0:12.004',1.815
'0:12.008',1.375
'0:12.012',0.802
'0:12.016',0.375
'0:12.020',0.152
'0:12.024',-0.050
'0:12.028',-0.070
'0:12.032',-0.070
'0:12.036',-0.100
'0:12.040',-0.083
'0:12.044',-0.075
'0:12.048',-0.128
'0:12.052',-0.158
'0:12.056',-0.163
'0:12.060',-0.182
'0:12.064',-0.172
'0:12.068',-0.207
'0:12.072',-0.188
'0:12.076',-0.240
'0:12.080',-0.235
'0:12.084',-0.273
'0:12.088',-0.282
'0:12.092',-0.250
'0:12.096',-0.240
'0:12.100',-0.273
'0:12.104',-0.225
'0:12.108',-0.273
'0:12.112',-0.282
'0:12.116',-0.312
'0:12.120',-0.300
'0:12.124',-0.285
'0:12.128',-0.290
'0:12.132',-0.260
'0:12.136',-0.253
'0:12.140',-0.290
'0:12.144',-0.282
'0:12.148',-0.250
'0:12.152',-0.282
'0:12.156',-0.278
'0:12.160',-0.312
'0:12.164',-0.258
'0:12.168',-0.265
'0:12.172',-0.273
'0:12.176',-0.278
'0:12.180',-0.273
'0:12.184',-0.328
'0:12.188',-0.302
'0:12.192',-0.250
'0:12.196',-0.275
'0:12.200',-0.285
'0:12.204',-0.247
'0:12.208',-0.247
'0:12.212',-0.300
'0:12.216',-0.297
'0:12.220',-0.278
'0:12.224',-0.300
'0:12.228',-0.275
'0:12.232',-0.287
'0:12.236',-0.250
'0:12.240',-0.247
'0:12.244',-0.265
'0:12.248',-0.315
'0:12.252',-0.307
'0:12.256',-0.295
'0:12.260',-0.300
'0:12.264',-0.287
'0:12.268',-0.247
'0:12.272',-0.265
'0:12.276',-0.282
'0:12.280',-0.273
'0:12.284',-0.290
'0:12.288',-0.287
'0:12.292',-0.310
'0:12.296',-0.237
'0:12.300',-0.265
'0:12.304',-0.247
'0:12.308',-0.225
'0:12.312',-0.253
'0:12.316',-0.247
'0:12.320',-0.250
'0:12.324',-0.190
'0:12.328',-0.170
'0:12.332',-0.125
'0:12.336',-0.077
'0:12.340',-0.048
'0:12.344',-0.052
'0:12.348',-0.058
'0:12.352',-0.040
'0:12.356',-0.033
'0:12.360',-0.040
'0:12.364',-0.015
'0:12.368',-0.025
'0:12.372',-0.040
'0:12.376',-0.048
'0:12.380',-0.048
'0:12.384',-0.100
'0:12.388',-0.083
'0:12.392',-0.077
'0:12.396',-0.070
'0:12.400',-0.090
'0:12.404',-0.072
'0:12.408',-0.100
'0:12.412',-0.113
'0:12.416',-0.122
'0:12.420',-0.138
'0:12.424',-0.125
'0:12.428',-0.133
'0:12.432',-0.090
'0:12.436',-0.098
'0:12.440',-0.107
'0:12.444',-0.120
'0:12.448',-0.140
'0:12.452',-0.115
'0:12.456',-0.125
'0:12.460',-0.107
'0:12.464',-0.110
'0:12.468',-0.107
'0:12.472',-0.138
'0:12.476',-0.122
'0:12.480',-0.125
'0:12.484',-0.160
'0:12.488',-0.163
'0:12.492',-0.133
'0:12.496',-0.152
'0:12.500',-0.125
'0:12.504',-0.102
'0:12.508',-0.160
'0:12.512',-0.175
'0:12.516',-0.163
'0:12.520',-0.210
'0:12.524',-0.147
'0:12.528',-0.190
'0:12.532',-0.163
'0:12.536',-0.133
'0:12.540',-0.190
'0:12.544',-0.147
'0:12.548',-0.172
'0:12.552',-0.190
'0:12.556',-0.247
'0:12.560',-0.220
'0:12.564',-0.195
'0:12.568',-0.195
'0:12.572',-0.190
'0:12.576',-0.247
'0:12.580',-0.200
'0:12.584',-0.220
'0:12.588',-0.265
'0:12.592',-0.253
'0:12.596',-0.247
'0:12.600',-0.223
'0:12.604',-0.220
'0:12.608',-0.258
'0:12.612',-0.263
'0:12.616',-0.270
'0:12.620',-0.237
'0:12.624',-0.263
'0:12.628',-0.223
'0:12.632',-0.245
'0:12.636',-0.240
'0:12.640',-0.245
'0:12.644',-0.253
'0:12.648',-0.265
'0:12.652',-0.275
'0:12.656',-0.258
'0:12.660',-0.260
'0:12.664',-0.287
'0:12.668',-0.278
'0:12.672',-0.263
'0:12.676',-0.287
'0:12.680',-0.282
'0:12.684',-0.287
'0:12.688',-0.275
'0:12.692',-0.263
'0:12.696',-0.273
'0:12.700',-0.287
'0:12.704',-0.240
'0:12.708',-0.258
'0:12.712',-0.285
'0:12.716',-0.335
'0:12.720',-0.300
'0:12.724',-0.290
'0:12.728',-0.275
'0:12.732',-0.250
'0:12.736',-0.263
'0:12.740',-0.273
'0:12.744',-0.250
'0:12.748',-0.295
'0:12.752',-0.297
'0:12.756',-0.260
'0:12.760',-0.258
'0:12.764',-0.278
'0:12.768',-0.265
'0:12.772',-0.260
'0:12.776',-0.278
'0:12.780',-0.265
'0:12.784',-0.290
'0:12.788',-0.297
'0:12.792',-0.285
'0:12.796',-0.270
'0:12.800',-0.275
'0:12.804',-0.260
'0:12.808',-0.282
'0:12.812',-0.265
'0:12.816',-0.290
'0:12.820',-0.273
'0:12.824',-0.297
'0:12.828',-0.275
'0:12.832',-0.233
'0:12.836',-0.270
'0:12.840',-0.285
'0:12.844',-0.265
'0:12.848',-0.258
'0:12.852',-0.302
'0:12.856',-0.290
'0:12.860',-0.263
'0:12.864',-0.265
'0:12.868',-0.247
'0:12.872',-0.260
'0:12.876',-0.247
'0:12.880',-0.258
'0:12.884',-0.237
'0:12.888',-0.240
'0:12.892',-0.223
'0:12.896',-0.185
'0:12.900',-0.195
'0:12.904',-0.163
'0:12.908',-0.207
'0:12.912',-0.195
'0:12.916',-0.190
'0:12.920',-0.172
'0:12.924',-0.188
'0:12.928',-0.185
'0:12.932',-0.150
'0:12.936',-0.150
'0:12.940',-0.138
'0:12.944',-0.172
'0:12.948',-0.190
'0:12.952',-0.223
'0:12.956',-0.195
'0:12.960',-0.235
'0:12.964',-0.210
'0:12.968',-0.195
'0:12.972',-0.235
'0:12.976',-0.212
'0:12.980',-0.235
'0:12.984',-0.228
'0:12.988',-0.235
'0:12.992',-0.188
'0:12.996',-0.207
'0:13.000',-0.133
'0:13.004',-0.138
'0:13.008',-0.163
'0:13.012',-0.138
'0:13.016',-0.125
'0:13.020',-0.035
'0:13.024',-0.013
'0:13.028',0.140
'0:13.032',0.385
'0:13.036',0.708
'0:13.040',1.040
'0:13.044',1.488
'0:13.048',1.897
'0:13.052',2.190
'0:13.056',2.348
'0:13.060',2.272
'0:13.064',1.958
'0:13.068',1.573
'0:13.072',1.083
'0:13.076',0.635
'0:13.080',0.260
'0:13.084',0.013
'0:13.088',-0.133
'0:13.092',-0.198
'0:13.096',-0.210
'0:13.100',-0.228
'0:13.104',-0.212
'0:13.108',-0.265
'0:13.112',-0.282
'0:13.116',-0.345
'0:13.120',-0.360
'0:13.124',-0.352
'0:13.128',-0.345
'0:13.132',-0.333
'0:13.136',-0.365
'0:13.140',-0.375
'0:13.144',-0.400
'0:13.148',-0.400
'0:13.152',-0.412
'0:13.156',-0.395
'0:13.160',-0.390
'0:13.164',-0.407
'0:13.168',-0.400
'0:13.172',-0.365
'0:13.176',-0.410
'0:13.180',-0.420
'0:13.184',-0.448
'0:13.188',-0.440
'0:13.192',-0.410
'0:13.196',-0.427
'0:13.200',-0.400
'0:13.204',-0.400
'0:13.208',-0.412
'0:13.212',-0.438
'0:13.216',-0.445
'0:13.220',-0.422
'0:13.224',-0.445
'0:13.228',-0.415
'0:13.232',-0.400
'0:13.236',-0.410
'0:13.240',-0.448
'0:13.244',-0.388
'0:13.248',-0.390
'0:13.252',-0.420
'0:13.256',-0.383
'0:13.260',-0.432
'0:13.264',-0.357
'0:13.268',-0.370
'0:13.272',-0.410
'0:13.276',-0.425
'0:13.280',-0.412
'0:13.284',-0.395
'0:13.288',-0.400
'0:13.292',-0.400
'0:13.296',-0.388
'0:13.300',-0.407
'0:13.304',-0.372
'0:13.308',-0.375
'0:13.312',-0.365
'0:13.316',-0.395
'0:13.320',-0.425
'0:13.324',-0.400
'0:13.328',-0.395
'0:13.332',-0.390
'0:13.336',-0.378
'0:13.340',-0.400
'0:13.344',-0.420
'0:13.348',-0.425
'0:13.352',-0.407
'0:13.356',-0.375
'0:13.360',-0.385
'0:13.364',-0.385
'0:13.368',-0.365
'0:13.372',-0.315
'0:13.376',-0.328
'0:13.380',-0.282
'0:13.384',-0.278
'0:13.388',-0.233
'0:13.392',-0.225
'0:13.396',-0.175
'0:13.400',-0.150
'0:13.404',-0.133
'0:13.408',-0.128
'0:13.412',-0.135
'0:13.416',-0.135
'0:13.420',-0.165
'0:13.424',-0.140
'0:13.428',-0.138
'0:13.432',-0.095
'0:13.436',-0.147
'0:13.440',-0.120
'0:13.444',-0.140
'0:13.448',-0.177
'0:13.452',-0.172
'0:13.456',-0.170
'0:13.460',-0.177
'0:13.464',-0.165
'0:13.468',-0.133
'0:13.472',-0.165
'0:13.476',-0.203
'0:13.480',-0.165
'0:13.484',-0.165
'0:13.488',-0.190
'0:13.492',-0.158
'0:13.496',-0.177
'0:13.500',-0.147
'0:13.504',-0.177
'0:13.508',-0.158
'0:13.512',-0.175
'0:13.516',-0.152
'0:13.520',-0.175
'0:13.524',-0.175
'0:13.528',-0.150
'0:13.532',-0.133
'0:13.536',-0.140
'0:13.540',-0.145
'0:13.544',-0.163
'0:13.548',-0.188
'0:13.552',-0.163
'0:13.556',-0.165
'0:13.560',-0.145
'0:13.564',-0.140
'0:13.568',-0.150
'0:13.572',-0.138
'0:13.576',-0.163
'0:13.580',-0.188
'0:13.584',-0.200
'0:13.588',-0.207
'0:13.592',-0.207
'0:13.596',-0.175
'0:13.600',-0.177
'0:13.604',-0.190
'0:13.608',-0.188
'0:13.612',-0.212
'0:13.616',-0.223
'0:13.620',-0.240
'0:13.624',-0.225
'0:13.628',-0.210
'0:13.632',-0.195
'0:13.636',-0.198
'0:13.640',-0.220
'0:13.644',-0.235
'0:13.648',-0.250
'0:13.652',-0.245
'0:13.656',-0.250
'0:13.660',-0.240
'0:13.664',-0.263
'0:13.668',-0.203
'0:13.672',-0.237
'0:13.676',-0.240
'0:13.680',-0.270
'0:13.684',-0.278
'0:13.688',-0.273
'0:13.692',-0.225
'0:13.696',-0.237
'0:13.700',-0.223
'0:13.704',-0.250
'0:13.708',-0.237
'0:13.712',-0.245
'0:13.716',-0.260
'0:13.720',-0.275
'0:13.724',-0.258
'0:13.728',-0.250
'0:13.732',-0.250
'0:13.736',-0.253
'0:13.740',-0.258
'0:13.744',-0.263
'0:13.748',-0.278
'0:13.752',-0.278
'0:13.756',-0.260
'0:13.760',-0.233
'0:13.764',-0.270
'0:13.768',-0.260
'0:13.772',-0.228
'0:13.776',-0.220
'0:13.780',-0.245
'0:13.784',-0.290
'0:13.788',-0.278
'0:13.792',-0.295
'0:13.796',-0.253
'0:13.800',-0.245
'0:13.804',-0.235
'0:13.808',-0.258
'0:13.812',-0.263
'0:13.816',-0.297
'0:13.820',-0.275
'0:13.824',-0.240
'0:13.828',-0.282
'0:13.832',-0.253
'0:13.836',-0.273
'0:13.840',-0.245
'0:13.844',-0.260
'0:13.848',-0.302
'0:13.852',-0.287
'0:13.856',-0.265
'0:13.860',-0.263
'0:13.864',-0.260
'0:13.868',-0.233
'0:13.872',-0.247
'0:13.876',-0.233
'0:13.880',-0.240
'0:13.884',-0.287
'0:13.888',-0.285
'0:13.892',-0.273
'0:13.896',-0.250
'0:13.900',-0.273
'0:13.904',-0.260
'0:13.908',-0.282
'0:13.912',-0.265
'0:13.916',-0.285
'0:13.920',-0.250
'0:13.924',-0.263
'0:13.928',-0.247
'0:13.932',-0.247
'0:13.936',-0.250
'0:13.940',-0.237
'0:13.944',-0.275
'0:13.948',-0.263
'0:13.952',-0.290
'0:13.956',-0.265
'0:13.960',-0.235
'0:13.964',-0.233
'0:13.968',-0.200
'0:13.972',-0.198
'0:13.976',-0.188
'0:13.980',-0.175
'0:13.984',-0.198
'0:13.988',-0.175
'0:13.992',-0.165
'0:13.996',-0.177
'0:14.000',-0.140
'0:14.004',-0.138
'0:14.008',-0.145
'0:14.012',-0.150
'0:14.016',-0.158
'0:14.020',-0.140
'0:14.024',-0.138
'0:14.028',-0.138
'0:14.032',-0.140
'0:14.036',-0.120
'0:14.040',-0.128
'0:14.044',-0.152
'0:14.048',-0.165
'0:14.052',-0.182
'0:14.056',-0.165
'0:14.060',-0.175
'0:14.064',-0.188
'0:14.068',-0.145
'0:14.072',-0.160
'0:14.076',-0.177
'0:14.080',-0.188
'0:14.084',-0.207
'0:14.088',-0.170
'0:14.092',-0.170
'0:14.096',-0.152
'0:14.100',-0.138
'0:14.104',-0.102
'0:14.108',-0.150
'0:14.112',-0.113
'0:14.116',-0.107
'0:14.120',-0.120
'0:14.124',-0.090
'0:14.128',0.000
'0:14.132',0.107
'0:14.136',0.352
'0:14.140',0.613
'0:14.144',1.035
'0:14.148',1.532
'0:14.152',1.938
'0:14.156',2.175
'0:14.160',2.095
'0:14.164',1.778
'0:14.168',1.163
'0:14.172',0.627
'0:14.176',0.138
'0:14.180',-0.152
'0:14.184',-0.282
'0:14.188',-0.285
'0:14.192',-0.247
'0:14.196',-0.170
'0:14.200',-0.147
'0:14.204',-0.185
'0:14.208',-0.210
'0:14.212',-0.237
'0:14.216',-0.278
'0:14.220',-0.315
'0:14.224',-0.297
'0:14.228',-0.310
'0:14.232',-0.278
'0:14.236',-0.265
'0:14.240',-0.335
'0:14.244',-0.302
'0:14.248',-0.345
'0:14.252',-0.340
'0:14.256',-0.347
'0:14.260',-0.338
'0:14.264',-0.312
'0:14.268',-0.312
'0:14.272',-0.325
'0:14.276',-0.338
'0:14.280',-0.365
'0:14.284',-0.338
'0:14.288',-0.352
'0:14.292',-0.350
'0:14.296',-0.360
'0:14.300',-0.328
'0:14.304',-0.347
'0:14.308',-0.340
'0:14.312',-0.365
'0:14.316',-0.362
'0:14.320',-0.347
'0:14.324',-0.370
'0:14.328',-0.347
'0:14.332',-0.340
'0:14.336',-0.310
'0:14.340',-0.282
'0:14.344',-0.307
'0:14.348',-0.333
'0:14.352',-0.362
'0:14.356',-0.310
'0:14.360',-0.340
'0:14.364',-0.315
'0:14.368',-0.307
'0:14.372',-0.307
'0:14.376',-0.335
'0:14.380',-0.360
'0:14.384',-0.320
'0:14.388',-0.338
'0:14.392',-0.323
'0:14.396',-0.320
'0:14.400',-0.323
'0:14.404',-0.312
'0:14.408',-0.310
'0:14.412',-0.335
'0:14.416',-0.370
'0:14.420',-0.347
'0:14.424',-0.372
'0:14.428',-0.340
'0:14.432',-0.333
'0:14.436',-0.333
'0:14.440',-0.325
'0:14.444',-0.333
'0:14.448',-0.378
'0:14.452',-0.357
'0:14.456',-0.340
'0:14.460',-0.345
'0:14.464',-0.328
'0:14.468',-0.307
'0:14.472',-0.287
'0:14.476',-0.323
'0:14.480',-0.315
'0:14.484',-0.270
'0:14.488',-0.253
'0:14.492',-0.247
'0:14.496',-0.235
'0:14.500',-0.152
'0:14.504',-0.150
'0:14.508',-0.128
'0:14.512',-0.140
'0:14.516',-0.077
'0:14.520',-0.087
'0:14.524',-0.075
'0:14.528',-0.052
'0:14.532',-0.028
'0:14.536',-0.040
'0:14.540',-0.037
'0:14.544',-0.052
'0:14.548',-0.048
'0:14.552',-0.072
'0:14.556',-0.077
'0:14.560',-0.077
'0:14.564',-0.050
'0:14.568',-0.065
'0:14.572',-0.075
'0:14.576',-0.110
'0:14.580',-0.072
'0:14.584',-0.120
'0:14.588',-0.098
'0:14.592',-0.087
'0:14.596',-0.095
'0:14.600',-0.102
'0:14.604',-0.077
'0:14.608',-0.115
'0:14.612',-0.120
'0:14.616',-0.100
'0:14.620',-0.120
'0:14.624',-0.115
'0:14.628',-0.070
'0:14.632',-0.100
'0:14.636',-0.107
'0:14.640',-0.100
'0:14.644',-0.125
'0:14.648',-0.115
'0:14.652',-0.140
'0:14.656',-0.107
'0:14.660',-0.152
'0:14.664',-0.107
'0:14.668',-0.113
'0:14.672',-0.133
'0:14.676',-0.122
'0:14.680',-0.145
'0:14.684',-0.140
'0:14.688',-0.158
'0:14.692',-0.128
'0:14.696',-0.125
'0:14.700',-0.152
'0:14.704',-0.122
'0:14.708',-0.150
'0:14.712',-0.175
'0:14.716',-0.177
'0:14.720',-0.150
'0:14.724',-0.158
'0:14.728',-0.133
'0:14.732',-0.147
'0:14.736',-0.147
'0:14.740',-0.185
'0:14.744',-0.185
'0:14.748',-0.212
'0:14.752',-0.212
'0:14.756',-0.190
'0:14.760',-0.190
'0:14.764',-0.170
'0:14.768',-0.210
'0:14.772',-0.200
'0:14.776',-0.198
'0:14.780',-0.223
'0:14.784',-0.228
'0:14.788',-0.212
'0:14.792',-0.228
'0:14.796',-0.203
'0:14.800',-0.203
'0:14.804',-0.200
'0:14.808',-0.223
'0:14.812',-0.225
'0:14.816',-0.247
'0:14.820',-0.228
'0:14.824',-0.235
'0:14.828',-0.198
'0:14.832',-0.182
'0:14.836',-0.237
'0:14.840',-0.225
'0:14.844',-0.233
'0:14.848',-0.237
'0:14.852',-0.270
'0:14.856',-0.253
'0:14.860',-0.250
'0:14.864',-0.195
'0:14.868',-0.225
'0:14.872',-0.200
'0:14.876',-0.228
'0:14.880',-0.233
'0:14.884',-0.282
'0:14.888',-0.245
'0:14.892',-0.235
'0:14.896',-0.260
'0:14.900',-0.225
'0:14.904',-0.228
'0:14.908',-0.235
'0:14.912',-0.245
'0:14.916',-0.263
'0:14.920',-0.287
'0:14.924',-0.237
'0:14.928',-0.207
'0:14.932',-0.212
'0:14.936',-0.225
'0:14.940',-0.237
'0:14.944',-0.233
'0:14.948',-0.245
'0:14.952',-0.220
'0:14.956',-0.247
'0:14.960',-0.250
'0:14.964',-0.212
'0:14.968',-0.245
'0:14.972',-0.240
'0:14.976',-0.263
'0:14.980',-0.240
'0:14.984',-0.258
'0:14.988',-0.237
'0:14.992',-0.245
'0:14.996',-0.245
'0:15.000',-0.220
'0:15.004',-0.185
'0:15.008',-0.245
'0:15.012',-0.245
'0:15.016',-0.245
'0:15.020',-0.228
'0:15.024',-0.212
'0:15.028',-0.185
'0:15.032',-0.177
'0:15.036',-0.200
'0:15.040',-0.163
'0:15.044',-0.138
'0:15.048',-0.152
'0:15.052',-0.170
'0:15.056',-0.175
'0:15.060',-0.170
'0:15.064',-0.160
'0:15.068',-0.128
'0:15.072',-0.120
'0:15.076',-0.150
'0:15.080',-0.145
'0:15.084',-0.147
'0:15.088',-0.138
'0:15.092',-0.163
'0:15.096',-0.122
'0:15.100',-0.072
'0:15.104',-0.098
'0:15.108',-0.115
'0:15.112',-0.113
'0:15.116',-0.175
'0:15.120',-0.182
'0:15.124',-0.185
'0:15.128',-0.175
'0:15.132',-0.172
'0:15.136',-0.185
'0:15.140',-0.172
'0:15.144',-0.165
'0:15.148',-0.185
'0:15.152',-0.177
'0:15.156',-0.188
'0:15.160',-0.163
'0:15.164',-0.120
'0:15.168',-0.087
'0:15.172',-0.115
'0:15.176',-0.098
'0:15.180',-0.085
'0:15.184',-0.033
'0:15.188',0.165
'0:15.192',0.425
'0:15.196',0.858
'0:15.200',1.323
'0:15.204',1.798
'0:15.208',2.050
'0:15.212',1.962
'0:15.216',1.583
'0:15.220',1.050
'0:15.224',0.520
'0:15.228',0.113
'0:15.232',-0.138
'0:15.236',-0.195
'0:15.240',-0.240
'0:15.244',-0.210
'0:15.248',-0.198
'0:15.252',-0.200
'0:15.256',-0.165
'0:15.260',-0.225
'0:15.264',-0.228
'0:15.268',-0.237
'0:15.272',-0.278
'0:15.276',-0.307
'0:15.280',-0.285
'0:15.284',-0.310
'0:15.288',-0.307
'0:15.292',-0.312
'0:15.296',-0.335
'0:15.300',-0.325
'0:15.304',-0.278
'0:15.308',-0.315
'0:15.312',-0.360
'0:15.316',-0.328
'0:15.320',-0.378
'0:15.324',-0.335
'0:15.328',-0.365
'0:15.332',-0.350
'0:15.336',-0.360
'0:15.340',-0.345
'0:15.344',-0.340
'0:15.348',-0.372
'0:15.352',-0.383
'0:15.356',-0.375
'0:15.360',-0.370
'0:15.364',-0.310
'0:15.368',-0.378
'0:15.372',-0.347
'0:15.376',-0.365
'0:15.380',-0.378
'0:15.384',-0.362
'0:15.388',-0.335
'0:15.392',-0.345
'0:15.396',-0.350
'0:15.400',-0.328
'0:15.404',-0.320
'0:15.408',-0.362
'0:15.412',-0.333
'0:15.416',-0.378
'0:15.420',-0.347
'0:15.424',-0.328
'0:15.428',-0.347
'0:15.432',-0.310
'0:15.436',-0.328
'0:15.440',-0.350
'0:15.444',-0.362
'0:15.448',-0.352
'0:15.452',-0.372
'0:15.456',-0.362
'0:15.460',-0.333
'0:15.464',-0.333
'0:15.468',-0.357
'0:15.472',-0.347
'0:15.476',-0.350
'0:15.480',-0.370
'0:15.484',-0.420
'0:15.488',-0.378
'0:15.492',-0.365
'0:15.496',-0.335
'0:15.500',-0.320
'0:15.504',-0.333
'0:15.508',-0.340
'0:15.512',-0.350
'0:15.516',-0.362
'0:15.520',-0.357
'0:15.524',-0.338
'0:15.528',-0.302
'0:15.532',-0.258
'0:15.536',-0.258
'0:15.540',-0.240
'0:15.544',-0.200
'0:15.548',-0.200
'0:15.552',-0.185
'0:15.556',-0.145
'0:15.560',-0.107
'0:15.564',-0.052
'0:15.568',-0.083
'0:15.572',-0.087
'0:15.576',-0.090
'0:15.580',-0.113
'0:15.584',-0.125
'0:15.588',-0.062
'0:15.592',-0.107
'0:15.596',-0.110
'0:15.600',-0.077
'0:15.604',-0.128
'0:15.608',-0.135
'0:15.612',-0.145
'0:15.616',-0.172
'0:15.620',-0.175
'0:15.624',-0.188
'0:15.628',-0.163
'0:15.632',-0.182
'0:15.636',-0.152
'0:15.640',-0.128
'0:15.644',-0.163
'0:15.648',-0.175
'0:15.652',-0.190
'0:15.656',-0.182
'0:15.660',-0.177
'0:15.664',-0.150
'0:15.668',-0.163
'0:15.672',-0.160
'0:15.676',-0.195
'0:15.680',-0.177
'0:15.684',-0.212
'0:15.688',-0.212
'0:15.692',-0.203
'0:15.696',-0.172
'0:15.700',-0.215
'0:15.704',-0.163
'0:15.708',-0.223
'0:15.712',-0.190
'0:15.716',-0.212
'0:15.720',-0.225
'0:15.724',-0.225
'0:15.728',-0.237
'0:15.732',-0.233
'0:15.736',-0.190
'0:15.740',-0.225
'0:15.744',-0.253
'0:15.748',-0.278
'0:15.752',-0.258
'0:15.756',-0.260
'0:15.760',-0.253
'0:15.764',-0.228
'0:15.768',-0.225
'0:15.772',-0.260
'0:15.776',-0.265
'0:15.780',-0.282
'0:15.784',-0.290
'0:15.788',-0.285
'0:15.792',-0.275
'0:15.796',-0.290
'0:15.800',-0.258
'0:15.804',-0.275
'0:15.808',-0.312
'0:15.812',-0.290
'0:15.816',-0.315
'0:15.820',-0.335
'0:15.824',-0.302
'0:15.828',-0.290
'0:15.832',-0.315
'0:15.836',-0.260
'0:15.840',-0.260
'0:15.844',-0.323
'0:15.848',-0.320
'0:15.852',-0.325
'0:15.856',-0.350
'0:15.860',-0.345
'0:15.864',-0.340
'0:15.868',-0.310
'0:15.872',-0.325
'0:15.876',-0.333
'0:15.880',-0.345
'0:15.884',-0.362
'0:15.888',-0.347
'0:15.892',-0.352
'0:15.896',-0.352
'0:15.900',-0.312
'0:15.904',-0.335
'0:15.908',-0.282
'0:15.912',-0.345
'0:15.916',-0.347
'0:15.920',-0.340
'0:15.924',-0.345
'0:15.928',-0.347
'0:15.932',-0.307
'0:15.936',-0.347
'0:15.940',-0.312
'0:15.944',-0.325
'0:15.948',-0.345
'0:15.952',-0.362
'0:15.956',-0.345
'0:15.960',-0.323
'0:15.964',-0.310
'0:15.968',-0.328
'0:15.972',-0.300
'0:15.976',-0.345
'0:15.980',-0.328
'0:15.984',-0.372
'0:15.988',-0.338
'0:15.992',-0.328
'0:15.996',-0.347
'0:16.000',-0.320
'0:16.004',-0.310
'0:16.008',-0.347
'0:16.012',-0.345
'0:16.016',-0.362
'0:16.020',-0.365
'0:16.024',-0.350
'0:16.028',-0.350
'0:16.032',-0.328
'0:16.036',-0.323
'0:16.040',-0.340
'0:16.044',-0.350
'0:16.048',-0.345
'0:16.052',-0.335
'0:16.056',-0.323
'0:16.060',-0.335
'0:16.064',-0.312
'0:16.068',-0.295
'0:16.072',-0.282
'0:16.076',-0.275
'0:16.080',-0.290
'0:16.084',-0.323
'0:16.088',-0.278
'0:16.092',-0.273
'0:16.096',-0.225
'0:16.100',-0.237
'0:16.104',-0.247
'0:16.108',-0.258
'0:16.112',-0.263
'0:16.116',-0.273
'0:16.120',-0.223
'0:16.124',-0.190
'0:16.128',-0.240
'0:16.132',-0.212
'0:16.136',-0.200
'0:16.140',-0.223
'0:16.144',-0.228
'0:16.148',-0.265
'0:16.152',-0.275
'0:16.156',-0.275
'0:16.160',-0.273
'0:16.164',-0.258
'0:16.168',-0.250
'0:16.172',-0.278
'0:16.176',-0.273
'0:16.180',-0.312
'0:16.184',-0.275
'0:16.188',-0.278
'0:16.192',-0.240
'0:16.196',-0.207
'0:16.200',-0.198
'0:16.204',-0.203
'0:16.208',-0.233
'0:16.212',-0.228
'0:16.216',-0.200
'0:16.220',-0.185
'0:16.224',-0.045
'0:16.228',0.128
'0:16.232',0.458
'0:16.236',0.845
'0:16.240',1.335
'0:16.244',1.732
'0:16.248',2.035
'0:16.252',2.013
'0:16.256',1.762
'0:16.260',1.275
'0:16.264',0.810
'0:16.268',0.370
'0:16.272',0.010
'0:16.276',-0.190
'0:16.280',-0.263
'0:16.284',-0.307
'0:16.288',-0.307
'0:16.292',-0.295
'0:16.296',-0.275
'0:16.300',-0.307
'0:16.304',-0.315
'0:16.308',-0.383
'0:16.312',-0.388
'0:16.316',-0.448
'0:16.320',-0.412
'0:16.324',-0.410
'0:16.328',-0.395
'0:16.332',-0.435
'0:16.336',-0.395
'0:16.340',-0.435
'0:16.344',-0.420
'0:16.348',-0.460
'0:16.352',-0.460
'0:16.356',-0.463
'0:16.360',-0.470
'0:16.364',-0.450
'0:16.368',-0.458
'0:16.372',-0.438
'0:16.376',-0.472
'0:16.380',-0.475
'0:16.384',-0.545
'0:16.388',-0.472
'0:16.392',-0.477
'0:16.396',-0.470
'0:16.400',-0.450
'0:16.404',-0.458
'0:16.408',-0.482
'0:16.412',-0.472
'0:16.416',-0.512
'0:16.420',-0.497
'0:16.424',-0.477
'0:16.428',-0.477
'0:16.432',-0.477
'0:16.436',-0.482
'0:16.440',-0.460
'0:16.444',-0.520
'0:16.448',-0.485
'0:16.452',-0.497
'0:16.456',-0.470
'0:16.460',-0.495
'0:16.464',-0.458
'0:16.468',-0.458
'0:16.472',-0.460
'0:16.476',-0.497
'0:16.480',-0.490
'0:16.484',-0.482
'0:16.488',-0.495
'0:16.492',-0.475
'0:16.496',-0.458
'0:16.500',-0.427
'0:16.504',-0.453
'0:16.508',-0.448
'0:16.512',-0.482
'0:16.516',-0.490
'0:16.520',-0.460
'0:16.524',-0.465
'0:16.528',-0.477
'0:16.532',-0.470
'0:16.536',-0.453
'0:16.540',-0.487
'0:16.544',-0.490
'0:16.548',-0.512
'0:16.552',-0.515
'0:16.556',-0.475
'0:16.560',-0.510
'0:16.564',-0.450
'0:16.568',-0.470
'0:16.572',-0.448
'0:16.576',-0.482
'0:16.580',-0.477
'0:16.584',-0.472
'0:16.588',-0.463
'0:16.592',-0.410
'0:16.596',-0.357
'0:16.600',-0.345
'0:16.604',-0.325
'0:16.608',-0.297
'0:16.612',-0.263
'0:16.616',-0.290
'0:16.620',-0.250
'0:16.624',-0.240
'0:16.628',-0.228
'0:16.632',-0.200
'0:16.636',-0.195
'0:16.640',-0.223
'0:16.644',-0.200
'0:16.648',-0.225
'0:16.652',-0.265
'0:16.656',-0.237
'0:16.660',-0.245
'0:16.664',-0.240
'0:16.668',-0.223
'0:16.672',-0.235
'0:16.676',-0.223
'0:16.680',-0.273
'0:16.684',-0.300
'0:16.688',-0.250
'0:16.692',-0.287
'0:16.696',-0.245
'0:16.700',-0.250
'0:16.704',-0.265
'0:16.708',-0.240
'0:16.712',-0.250
'0:16.716',-0.260
'0:16.720',-0.297
'0:16.724',-0.237
'0:16.728',-0.258
'0:16.732',-0.215
'0:16.736',-0.225
'0:16.740',-0.247
'0:16.744',-0.250
'0:16.748',-0.247
'0:16.752',-0.260
'0:16.756',-0.290
'0:16.760',-0.270
'0:16.764',-0.250
'0:16.768',-0.212
'0:16.772',-0.235
'0:16.776',-0.250
'0:16.780',-0.278
'0:16.784',-0.270
'0:16.788',-0.247
'0:16.792',-0.265
'0:16.796',-0.275
'0:16.800',-0.240
'0:16.804',-0.263
'0:16.808',-0.312
'0:16.812',-0.290
'0:16.816',-0.307
'0:16.820',-0.315
'0:16.824',-0.290
'0:16.828',-0.335
'0:16.832',-0.297
'0:16.836',-0.325
'0:16.840',-0.307
'0:16.844',-0.312
'0:16.848',-0.338
'0:16.852',-0.350
'0:16.856',-0.345
'0:16.860',-0.302
'0:16.864',-0.315
'0:16.868',-0.315
'0:16.872',-0.350
'0:16.876',-0.362
'0:16.880',-0.340
'0:16.884',-0.378
'0:16.888',-0.347
'0:16.892',-0.345
'0:16.896',-0.333
'0:16.900',-0.360
'0:16.904',-0.328
'0:16.908',-0.328
'0:16.912',-0.345
'0:16.916',-0.403
'0:16.920',-0.378
'0:16.924',-0.362
'0:16.928',-0.347
'0:16.932',-0.365
'0:16.936',-0.340
'0:16.940',-0.378
'0:16.944',-0.352
'0:16.948',-0.412
'0:16.952',-0.415
'0:16.956',-0.410
'0:16.960',-0.350
'0:16.964',-0.365
'0:16.968',-0.360
'0:16.972',-0.340
'0:16.976',-0.362
'0:16.980',-0.390
'0:16.984',-0.372
'0:16.988',-0.350
'0:16.992',-0.388
'0:16.996',-0.362
'0:17.000',-0.328
'0:17.004',-0.345
'0:17.008',-0.338
'0:17.012',-0.385
'0:17.016',-0.412
'0:17.020',-0.410
'0:17.024',-0.365
'0:17.028',-0.362
'0:17.032',-0.350
'0:17.036',-0.323
'0:17.040',-0.350
'0:17.044',-0.362
'0:17.048',-0.378
'0:17.052',-0.375
'0:17.056',-0.375
'0:17.060',-0.347
'0:17.064',-0.362
'0:17.068',-0.362
'0:17.072',-0.350
'0:17.076',-0.347
'0:17.080',-0.378
'0:17.084',-0.388
'0:17.088',-0.362
'0:17.092',-0.370
'0:17.096',-0.335
'0:17.100',-0.295
'0:17.104',-0.320
'0:17.108',-0.325
'0:17.112',-0.357
'0:17.116',-0.372
'0:17.120',-0.385
'0:17.124',-0.350
'0:17.128',-0.365
'0:17.132',-0.340
'0:17.136',-0.320
'0:17.140',-0.340
'0:17.144',-0.357
'0:17.148',-0.370
'0:17.152',-0.360
'0:17.156',-0.297
'0:17.160',-0.375
'0:17.164',-0.295
'0:17.168',-0.315
'0:17.172',-0.270
'0:17.176',-0.278
'0:17.180',-0.310
'0:17.184',-0.333
'0:17.188',-0.315
'0:17.192',-0.302
'0:17.196',-0.265
'0:17.200',-0.245
'0:17.204',-0.228
'0:17.208',-0.235
'0:17.212',-0.258
'0:17.216',-0.237
'0:17.220',-0.235
'0:17.224',-0.233
'0:17.228',-0.203
'0:17.232',-0.188
'0:17.236',-0.188
'0:17.240',-0.172
'0:17.244',-0.177
'0:17.248',-0.190
'0:17.252',-0.177
'0:17.256',-0.177
'0:17.260',-0.207
'0:17.264',-0.207
'0:17.268',-0.200
'0:17.272',-0.228
'0:17.276',-0.200
'0:17.280',-0.258
'0:17.284',-0.263
'0:17.288',-0.237
'0:17.292',-0.237
'0:17.296',-0.220
'0:17.300',-0.182
'0:17.304',-0.228
'0:17.308',-0.200
'0:17.312',-0.220
'0:17.316',-0.203
'0:17.320',-0.188
'0:17.324',-0.170
'0:17.328',-0.120
'0:17.332',-0.133
'0:17.336',-0.147
'0:17.340',-0.100
'0:17.344',-0.072
'0:17.348',0.010
'0:17.352',0.133
'0:17.356',0.375
'0:17.360',0.745
'0:17.364',1.183
'0:17.368',1.600
'0:17.372',2.062
'0:17.376',2.300
'0:17.380',2.283
'0:17.384',2.033
'0:17.388',1.548
'0:17.392',0.975
'0:17.396',0.460
'0:17.400',0.083
'0:17.404',-0.175
'0:17.408',-0.273
'0:17.412',-0.275
'0:17.416',-0.287
'0:17.420',-0.258
'0:17.424',-0.240
'0:17.428',-0.273
'0:17.432',-0.278
'0:17.436',-0.315
'0:17.440',-0.335
'0:17.444',-0.338
'0:17.448',-0.388
'0:17.452',-0.400
'0:17.456',-0.357
'0:17.460',-0.388
'0:17.464',-0.375
'0:17.468',-0.400
'0:17.472',-0.378
'0:17.476',-0.362
'0:17.480',-0.390
'0:17.484',-0.412
'0:17.488',-0.432
'0:17.492',-0.395
'0:17.496',-0.403
'0:17.500',-0.425
'0:17.504',-0.372
'0:17.508',-0.388
'0:17.512',-0.390
'0:17.516',-0.398
'0:17.520',-0.383
'0:17.524',-0.415
'0:17.528',-0.422
'0:17.532',-0.385
'0:17.536',-0.362
'0:17.540',-0.407
'0:17.544',-0.412
'0:17.548',-0.448
'0:17.552',-0.420
'0:17.556',-0.412
'0:17.560',-0.400
'0:17.564',-0.415
'0:17.568',-0.378
'0:17.572',-0.372
'0:17.576',-0.415
'0:17.580',-0.422
'0:17.584',-0.410
'0:17.588',-0.383
'0:17.592',-0.400
'0:17.596',-0.375
'0:17.600',-0.365
'0:17.604',-0.388
'0:17.608',-0.370
'0:17.612',-0.412
'0:17.616',-0.400
'0:17.620',-0.400
'0:17.624',-0.415
'0:17.628',-0.403
'0:17.632',-0.360
'0:17.636',-0.362
'0:17.640',-0.365
'0:17.644',-0.403
'0:17.648',-0.420
'0:17.652',-0.412
'0:17.656',-0.383
'0:17.660',-0.388
'0:17.664',-0.395
'0:17.668',-0.362
'0:17.672',-0.388
'0:17.676',-0.383
'0:17.680',-0.410
'0:17.684',-0.410
'0:17.688',-0.350
'0:17.692',-0.338
'0:17.696',-0.310
'0:17.700',-0.290
'0:17.704',-0.265
'0:17.708',-0.198
'0:17.712',-0.210
'0:17.716',-0.220
'0:17.720',-0.175
'0:17.724',-0.175
'0:17.728',-0.163
'0:17.732',-0.077
'0:17.736',-0.077
'0:17.740',-0.100
'0:17.744',-0.128
'0:17.748',-0.138
'0:17.752',-0.163
'0:17.756',-0.122
'0:17.760',-0.122
'0:17.764',-0.113
'0:17.768',-0.125
'0:17.772',-0.138
'0:17.776',-0.115
'0:17.780',-0.158
'0:17.784',-0.150
'0:17.788',-0.150
'0:17.792',-0.145
'0:17.796',-0.160
'0:17.800',-0.163
'0:17.804',-0.140
'0:17.808',-0.160
'0:17.812',-0.150
'0:17.816',-0.177
'0:17.820',-0.170
'0:17.824',-0.177
'0:17.828',-0.133
'0:17.832',-0.125
'0:17.836',-0.128
'0:17.840',-0.138
'0:17.844',-0.138
'0:17.848',-0.145
'0:17.852',-0.175
'0:17.856',-0.190
'0:17.860',-0.177
'0:17.864',-0.147
'0:17.868',-0.138
'0:17.872',-0.160
'0:17.876',-0.185
'0:17.880',-0.223
'0:17.884',-0.212
'0:17.888',-0.195
'0:17.892',-0.190
'0:17.896',-0.188
'0:17.900',-0.182
'0:17.904',-0.220
'0:17.908',-0.195
'0:17.912',-0.233
'0:17.916',-0.247
'0:17.920',-0.253
'0:17.924',-0.228
'0:17.928',-0.210
'0:17.932',-0.245
'0:17.936',-0.225
'0:17.940',-0.240
'0:17.944',-0.225
'0:17.948',-0.247
'0:17.952',-0.247
'0:17.956',-0.270
'0:17.960',-0.253
'0:17.964',-0.240
'0:17.968',-0.258
'0:17.972',-0.247
'0:17.976',-0.253
'0:17.980',-0.250
'0:17.984',-0.265
'0:17.988',-0.233
'0:17.992',-0.260
'0:17.996',-0.270
'0:18.000',-0.212
'0:18.004',-0.275
'0:18.008',-0.253
'0:18.012',-0.258
'0:18.016',-0.282
'0:18.020',-0.315
'0:18.024',-0.250
'0:18.028',-0.287
'0:18.032',-0.258
'0:18.036',-0.263
'0:18.040',-0.240
'0:18.044',-0.275
'0:18.048',-0.265
'0:18.052',-0.278
'0:18.056',-0.285
'0:18.060',-0.270
'0:18.064',-0.253
'0:18.068',-0.297
'0:18.072',-0.273
'0:18.076',-0.258
'0:18.080',-0.297
'0:18.084',-0.300
'0:18.088',-0.300
'0:18.092',-0.287
'0:18.096',-0.295
'0:18.100',-0.285
'0:18.104',-0.275
'0:18.108',-0.282
'0:18.112',-0.297
'0:18.116',-0.282
'0:18.120',-0.300
'0:18.124',-0.247
'0:18.128',-0.282
'0:18.132',-0.273
'0:18.136',-0.270
'0:18.140',-0.300
'0:18.144',-0.278
'0:18.148',-0.275
'0:18.152',-0.302
'0:18.156',-0.278
'0:18.160',-0.290
'0:18.164',-0.295
'0:18.168',-0.265
'0:18.172',-0.263
'0:18.176',-0.265
'0:18.180',-0.290
'0:18.184',-0.295
'0:18.188',-0.282
'0:18.192',-0.265
'0:18.196',-0.273
'0:18.200',-0.278
'0:18.204',-0.290
'0:18.208',-0.320
'0:18.212',-0.290
'0:18.216',-0.278
'0:18.220',-0.295
'0:18.224',-0.287
'0:18.228',-0.320
'0:18.232',-0.225
'0:18.236',-0.233
'0:18.240',-0.300
'0:18.244',-0.250
'0:18.248',-0.300
'0:18.252',-0.260
'0:18.256',-0.278
'0:18.260',-0.297
'0:18.264',-0.237
'0:18.268',-0.220
'0:18.272',-0.212
'0:18.276',-0.188
'0:18.280',-0.228
'0:18.284',-0.212
'0:18.288',-0.247
'0:18.292',-0.203
'0:18.296',-0.195
'0:18.300',-0.158
'0:18.304',-0.170
'0:18.308',-0.177
'0:18.312',-0.165
'0:18.316',-0.172
'0:18.320',-0.152
'0:18.324',-0.140
'0:18.328',-0.147
'0:18.332',-0.158
'0:18.336',-0.125
'0:18.340',-0.160
'0:18.344',-0.198
'0:18.348',-0.207
'0:18.352',-0.200
'0:18.356',-0.223
'0:18.360',-0.210
'0:18.364',-0.210
'0:18.368',-0.188
'0:18.372',-0.177
'0:18.376',-0.215
'0:18.380',-0.228
'0:18.384',-0.207
'0:18.388',-0.215
'0:18.392',-0.195
'0:18.396',-0.160
'0:18.400',-0.172
'0:18.404',-0.158
'0:18.408',-0.135
'0:18.412',-0.138
'0:18.416',-0.175
'0:18.420',-0.100
'0:18.424',-0.033
'0:18.428',0.145
'0:18.432',0.415
'0:18.436',0.802
'0:18.440',1.298
'0:18.444',1.765
'0:18.448',2.083
'0:18.452',2.050
'0:18.456',1.738
'0:18.460',1.260
'0:18.464',0.708
'0:18.468',0.228
'0:18.472',-0.085
'0:18.476',-0.223
'0:18.480',-0.275
'0:18.484',-0.265
'0:18.488',-0.258
'0:18.492',-0.220
'0:18.496',-0.220
'0:18.500',-0.210
'0:18.504',-0.247
'0:18.508',-0.263
'0:18.512',-0.287
'0:18.516',-0.287
'0:18.520',-0.350
'0:18.524',-0.333
'0:18.528',-0.362
'0:18.532',-0.340
'0:18.536',-0.338
'0:18.540',-0.323
'0:18.544',-0.350
'0:18.548',-0.347
'0:18.552',-0.372
'0:18.556',-0.398
'0:18.560',-0.352
'0:18.564',-0.375
'0:18.568',-0.357
'0:18.572',-0.375
'0:18.576',-0.388
'0:18.580',-0.398
'0:18.584',-0.365
'0:18.588',-0.378
'0:18.592',-0.403
'0:18.596',-0.352
'0:18.600',-0.357
'0:18.604',-0.378
'0:18.608',-0.362
'0:18.612',-0.360
'0:18.616',-0.398
'0:18.620',-0.383
'0:18.624',-0.385
'0:18.628',-0.370
'0:18.632',-0.360
'0:18.636',-0.362
'0:18.640',-0.300
'0:18.644',-0.345
'0:18.648',-0.340
'0:18.652',-0.390
'0:18.656',-0.375
'0:18.660',-0.350
'0:18.664',-0.328
'0:18.668',-0.350
'0:18.672',-0.320
'0:18.676',-0.328
'0:18.680',-0.357
'0:18.684',-0.388
'0:18.688',-0.350
'0:18.692',-0.350
'0:18.696',-0.335
'0:18.700',-0.365
'0:18.704',-0.345
'0:18.708',-0.362
'0:18.712',-0.362
'0:18.716',-0.375
'0:18.720',-0.352
'0:18.724',-0.360
'0:18.728',-0.352
'0:18.732',-0.323
'0:18.736',-0.362
'0:18.740',-0.360
'0:18.744',-0.335
'0:18.748',-0.335
'0:18.752',-0.338
'0:18.756',-0.297
'0:18.760',-0.282
'0:18.764',-0.237
'0:18.768',-0.215
'0:18.772',-0.212
'0:18.776',-0.188
'0:18.780',-0.177
'0:18.784',-0.172
'0:18.788',-0.140
'0:18.792',-0.125
'0:18.796',-0.128
'0:18.800',-0.083
'0:18.804',-0.062
'0:18.808',-0.075
'0:18.812',-0.087
'0:18.816',-0.107
'0:18.820',-0.075
'0:18.824',-0.110
'0:18.828',-0.107
'0:18.832',-0.090
'0:18.836',-0.147
'0:18.840',-0.122
'0:18.844',-0.133
'0:18.848',-0.182
'0:18.852',-0.147
'0:18.856',-0.165
'0:18.860',-0.163
'0:18.864',-0.163
'0:18.868',-0.147
'0:18.872',-0.152
'0:18.876',-0.163
'0:18.880',-0.163
'0:18.884',-0.165
'0:18.888',-0.140
'0:18.892',-0.175
'0:18.896',-0.150
'0:18.900',-0.175
'0:18.904',-0.150
'0:18.908',-0.198
'0:18.912',-0.135
'0:18.916',-0.163
'0:18.920',-0.185
'0:18.924',-0.200
'0:18.928',-0.198
'0:18.932',-0.150
'0:18.936',-0.188
'0:18.940',-0.165
'0:18.944',-0.195
'0:18.948',-0.215
'0:18.952',-0.225
'0:18.956',-0.233
'0:18.960',-0.198
'0:18.964',-0.190
'0:18.968',-0.212
'0:18.972',-0.190
'0:18.976',-0.195
'0:18.980',-0.250
'0:18.984',-0.240
'0:18.988',-0.240
'0:18.992',-0.225
'0:18.996',-0.212
'0:19.000',-0.190
'0:19.004',-0.233
'0:19.008',-0.233
'0:19.012',-0.253
'0:19.016',-0.258
'0:19.020',-0.270
'0:19.024',-0.260
'0:19.028',-0.287
'0:19.032',-0.258
'0:19.036',-0.233
'0:19.040',-0.235
'0:19.044',-0.270
'0:19.048',-0.270
'0:19.052',-0.287
'0:19.056',-0.300
'0:19.060',-0.297
'0:19.064',-0.263
'0:19.068',-0.278
'0:19.072',-0.263
'0:19.076',-0.315
'0:19.080',-0.312
'0:19.084',-0.320
'0:19.088',-0.290
'0:19.092',-0.278
'0:19.096',-0.278
'0:19.100',-0.295
'0:19.104',-0.258
'0:19.108',-0.302
'0:19.112',-0.312
'0:19.116',-0.352
'0:19.120',-0.328
'0:19.124',-0.333
'0:19.128',-0.307
'0:19.132',-0.310
'0:19.136',-0.295
'0:19.140',-0.290
'0:19.144',-0.300
'0:19.148',-0.302
'0:19.152',-0.338
'0:19.156',-0.307
'0:19.160',-0.315
'0:19.164',-0.278
'0:19.168',-0.270
'0:19.172',-0.273
'0:19.176',-0.333
'0:19.180',-0.297
'0:19.184',-0.323
'0:19.188',-0.340
'0:19.192',-0.347
'0:19.196',-0.302
'0:19.200',-0.290
'0:19.204',-0.265
'0:19.208',-0.333
'0:19.212',-0.290
'0:19.216',-0.325
'0:19.220',-0.297
'0:19.224',-0.325
'0:19.228',-0.300
'0:19.232',-0.300
'0:19.236',-0.278
'0:19.240',-0.260
'0:19.244',-0.290
'0:19.248',-0.312
'0:19.252',-0.287
'0:19.256',-0.347
'0:19.260',-0.338
'0:19.264',-0.295
'0:19.268',-0.253
'0:19.272',-0.328
'0:19.276',-0.307
'0:19.280',-0.302
'0:19.284',-0.333
'0:19.288',-0.345
'0:19.292',-0.340
'0:19.296',-0.352
'0:19.300',-0.315
'0:19.304',-0.275
'0:19.308',-0.315
'0:19.312',-0.315
'0:19.316',-0.300
'0:19.320',-0.312
'0:19.324',-0.328
'0:19.328',-0.275
'0:19.332',-0.245
'0:19.336',-0.278
'0:19.340',-0.273
'0:19.344',-0.263
'0:19.348',-0.278
'0:19.352',-0.233
'0:19.356',-0.245
'0:19.360',-0.225
'0:19.364',-0.203
'0:19.368',-0.200
'0:19.372',-0.210
'0:19.376',-0.240
'0:19.380',-0.225
'0:19.384',-0.220
'0:19.388',-0.233
'0:19.392',-0.210
'0:19.396',-0.188
'0:19.400',-0.198
'0:19.404',-0.195
'0:19.408',-0.200
'0:19.412',-0.228
'0:19.416',-0.237
'0:19.420',-0.247
'0:19.424',-0.278
'0:19.428',-0.228
'0:19.432',-0.235
'0:19.436',-0.278
'0:19.440',-0.278
'0:19.444',-0.263
'0:19.448',-0.260
'0:19.452',-0.250
'0:19.456',-0.212
'0:19.460',-0.225
'0:19.464',-0.177
'0:19.468',-0.185
'0:19.472',-0.158
'0:19.476',-0.172
'0:19.480',-0.113
'0:19.484',-0.072
'0:19.488',0.085
'0:19.492',0.385
'0:19.496',0.738
'0:19.500',1.228
'0:19.504',1.758
'0:19.508',2.087
'0:19.512',2.175
'0:19.516',2.040
'0:19.520',1.603
'0:19.524',1.087
'0:19.528',0.590
'0:19.532',0.198
'0:19.536',-0.052
'0:19.540',-0.240
'0:19.544',-0.310
'0:19.548',-0.282
'0:19.552',-0.247
'0:19.556',-0.258
'0:19.560',-0.300
'0:19.564',-0.275
'0:19.568',-0.290
'0:19.572',-0.350
'0:19.576',-0.383
'0:19.580',-0.357
'0:19.584',-0.427
'0:19.588',-0.378
'0:19.592',-0.390
'0:19.596',-0.383
'0:19.600',-0.378
'0:19.604',-0.388
'0:19.608',-0.400
'0:19.612',-0.400
'0:19.616',-0.458
'0:19.620',-0.415
'0:19.624',-0.432
'0:19.628',-0.415
'0:19.632',-0.390
'0:19.636',-0.420
'0:19.640',-0.432
'0:19.644',-0.438
'0:19.648',-0.463
'0:19.652',-0.460
'0:19.656',-0.412
'0:19.660',-0.410
'0:19.664',-0.403
'0:19.668',-0.422
'0:19.672',-0.427
'0:19.676',-0.440
'0:19.680',-0.448
'0:19.684',-0.482
'0:19.688',-0.427
'0:19.692',-0.412
'0:19.696',-0.432
'0:19.700',-0.440
'0:19.704',-0.440
'0:19.708',-0.427
'0:19.712',-0.477
'0:19.716',-0.458
'0:19.720',-0.448
'0:19.724',-0.407
'0:19.728',-0.445
'0:19.732',-0.395
'0:19.736',-0.390
'0:19.740',-0.370
'0:19.744',-0.420
'0:19.748',-0.448
'0:19.752',-0.435
'0:19.756',-0.400
'0:19.760',-0.412
'0:19.764',-0.378
'0:19.768',-0.388
'0:19.772',-0.425
'0:19.776',-0.415
'0:19.780',-0.438
'0:19.784',-0.450
'0:19.788',-0.458
'0:19.792',-0.448
'0:19.796',-0.432
'0:19.800',-0.440
'0:19.804',-0.435
'0:19.808',-0.438
'0:19.812',-0.435
'0:19.816',-0.438
'0:19.820',-0.465
'0:19.824',-0.412
'0:19.828',-0.400
'0:19.832',-0.375
'0:19.836',-0.357
'0:19.840',-0.312
'0:19.844',-0.302
'0:19.848',-0.312
'0:19.852',-0.273
'0:19.856',-0.220
'0:19.860',-0.190
'0:19.864',-0.188
'0:19.868',-0.188
'0:19.872',-0.195
'0:19.876',-0.177
'0:19.880',-0.158
'0:19.884',-0.220
'0:19.888',-0.210
'0:19.892',-0.195
'0:19.896',-0.220
'0:19.900',-0.237
'0:19.904',-0.158
'0:19.908',-0.212
'0:19.912',-0.228
'0:19.916',-0.250
'0:19.920',-0.253
'0:19.924',-0.223
'0:19.928',-0.235
'0:19.932',-0.260
'0:19.936',-0.245
'0:19.940',-0.225
'0:19.944',-0.250
'0:19.948',-0.273
'0:19.952',-0.235
'0:19.956',-0.240
'0:19.960',-0.233
'0:19.964',-0.273
'0:19.968',-0.220
'0:19.972',-0.245
'0:19.976',-0.233
'0:19.980',-0.235
'0:19.984',-0.282
'0:19.988',-0.245
'0:19.992',-0.263
'0:19.996',-0.225
'0:20.000',-0.250
'0:20.004',-0.225
'0:20.008',-0.228
'0:20.012',-0.273
'0:20.016',-0.295
'0:20.020',-0.287
'0:20.024',-0.273
'0:20.028',-0.237
'0:20.032',-0.275
'0:20.036',-0.250
'0:20.040',-0.300
'0:20.044',-0.312
'0:20.048',-0.307
'0:20.052',-0.323
'0:20.056',-0.310
'0:20.060',-0.310
'0:20.064',-0.323
'0:20.068',-0.325
'0:20.072',-0.345
'0:20.076',-0.323
'0:20.080',-0.365
'0:20.084',-0.360
'0:20.088',-0.378
'0:20.092',-0.347
'0:20.096',-0.372
'0:20.100',-0.357
'0:20.104',-0.365
'0:20.108',-0.365
'0:20.112',-0.357
'0:20.116',-0.398
'0:20.120',-0.372
'0:20.124',-0.385
'0:20.128',-0.385
'0:20.132',-0.372
'0:20.136',-0.388
'0:20.140',-0.378
'0:20.144',-0.407
'0:20.148',-0.400
'0:20.152',-0.383
'0:20.156',-0.395
'0:20.160',-0.357
'0:20.164',-0.357
'0:20.168',-0.375
'0:20.172',-0.388
'0:20.176',-0.398
'0:20.180',-0.415
'0:20.184',-0.422
'0:20.188',-0.425
'0:20.192',-0.400
'0:20.196',-0.388
'0:20.200',-0.378
'0:20.204',-0.388
'0:20.208',-0.395
'0:20.212',-0.398
'0:20.216',-0.407
'0:20.220',-0.422
'0:20.224',-0.407
'0:20.228',-0.375
'0:20.232',-0.362
'0:20.236',-0.388
'0:20.240',-0.388
'0:20.244',-0.383
'0:20.248',-0.420
'0:20.252',-0.398
'0:20.256',-0.383
'0:20.260',-0.390
'0:20.264',-0.352
'0:20.268',-0.338
'0:20.272',-0.372
'0:20.276',-0.400
'0:20.280',-0.362
'0:20.284',-0.362
'0:20.288',-0.383
'0:20.292',-0.378
'0:20.296',-0.345
'0:20.300',-0.323
'0:20.304',-0.378
'0:20.308',-0.350
'0:20.312',-0.375
'0:20.316',-0.385
'0:20.320',-0.378
'0:20.324',-0.390
'0:20.328',-0.335
'0:20.332',-0.350
'0:20.336',-0.362
'0:20.340',-0.362
'0:20.344',-0.328
'0:20.348',-0.378
'0:20.352',-0.378
'0:20.356',-0.378
'0:20.360',-0.350
'0:20.364',-0.345
'0:20.368',-0.365
'0:20.372',-0.350
'0:20.376',-0.350
'0:20.380',-0.347
'0:20.384',-0.345
'0:20.388',-0.345
'0:20.392',-0.345
'0:20.396',-0.338
'0:20.400',-0.335
'0:20.404',-0.323
'0:20.408',-0.340
'0:20.412',-0.335
'0:20.416',-0.315
'0:20.420',-0.338
'0:20.424',-0.297
'0:20.428',-0.302
'0:20.432',-0.302
'0:20.436',-0.237
'0:20.440',-0.263
'0:20.444',-0.297
'0:20.448',-0.250
'0:20.452',-0.287
'0:20.456',-0.260
'0:20.460',-0.245
'0:20.464',-0.190
'0:20.468',-0.195
'0:20.472',-0.172
'0:20.476',-0.198
'0:20.480',-0.200
'0:20.484',-0.212
'0:20.488',-0.225
'0:20.492',-0.207
'0:20.496',-0.225
'0:20.500',-0.198
'0:20.504',-0.247
'0:20.508',-0.223
'0:20.512',-0.297
'0:20.516',-0.275
'0:20.520',-0.282
'0:20.524',-0.273
'0:20.528',-0.207
'0:20.532',-0.195
'0:20.536',-0.200
'0:20.540',-0.228
'0:20.544',-0.223
'0:20.548',-0.225
'0:20.552',-0.212
'0:20.556',-0.190
'0:20.560',-0.185
'0:20.564',-0.113
'0:20.568',-0.045
'0:20.572',0.058
'0:20.576',0.215
'0:20.580',0.435
'0:20.584',0.797
'0:20.588',1.220
'0:20.592',1.690
'0:20.596',2.035
'0:20.600',2.185
'0:20.604',2.135
'0:20.608',1.795
'0:20.612',1.320
'0:20.616',0.823
'0:20.620',0.412
'0:20.624',0.107
'0:20.628',-0.113
'0:20.632',-0.175
'0:20.636',-0.207
'0:20.640',-0.223
'0:20.644',-0.253
'0:20.648',-0.260
'0:20.652',-0.273
'0:20.656',-0.302
'0:20.660',-0.312
'0:20.664',-0.320
'0:20.668',-0.328
'0:20.672',-0.297
'0:20.676',-0.350
'0:20.680',-0.395
'0:20.684',-0.407
'0:20.688',-0.345
'0:20.692',-0.398
'0:20.696',-0.378
'0:20.700',-0.375
'0:20.704',-0.395
'0:20.708',-0.400
'0:20.712',-0.432
'0:20.716',-0.448
'0:20.720',-0.427
'0:20.724',-0.458
'0:20.728',-0.425
'0:20.732',-0.385
'0:20.736',-0.407
'0:20.740',-0.425
'0:20.744',-0.390
'0:20.748',-0.415
'0:20.752',-0.403
'0:20.756',-0.412
'0:20.760',-0.440
'0:20.764',-0.398
'0:20.768',-0.403
'0:20.772',-0.383
'0:20.776',-0.422
'0:20.780',-0.412
'0:20.784',-0.435
'0:20.788',-0.400
'0:20.792',-0.425
'0:20.796',-0.372
'0:20.800',-0.398
'0:20.804',-0.378
'0:20.808',-0.400
'0:20.812',-0.412
'0:20.816',-0.415
'0:20.820',-0.400
'0:20.824',-0.385
'0:20.828',-0.410
'0:20.832',-0.357
'0:20.836',-0.362
'0:20.840',-0.372
'0:20.844',-0.400
'0:20.848',-0.388
'0:20.852',-0.395
'0:20.856',-0.407
'0:20.860',-0.370
'0:20.864',-0.390
'0:20.868',-0.360
'0:20.872',-0.352
'0:20.876',-0.378
'0:20.880',-0.407
'0:20.884',-0.422
'0:20.888',-0.403
'0:20.892',-0.415
'0:20.896',-0.390
'0:20.900',-0.378
'0:20.904',-0.365
'0:20.908',-0.388
'0:20.912',-0.370
'0:20.916',-0.365
'0:20.920',-0.295
'0:20.924',-0.325
'0:20.928',-0.287
'0:20.932',-0.247
'0:20.936',-0.225
'0:20.940',-0.220
'0:20.944',-0.172
'0:20.948',-0.182
'0:20.952',-0.152
'0:20.956',-0.147
'0:20.960',-0.100
'0:20.964',-0.107
'0:20.968',-0.113
'0:20.972',-0.077
'0:20.976',-0.120
'0:20.980',-0.090
'0:20.984',-0.135
'0:20.988',-0.072
'0:20.992',-0.113
'0:20.996',-0.087
'0:21.000',-0.072
'0:21.004',-0.098
'0:21.008',-0.128
'0:21.012',-0.100
'0:21.016',-0.135
'0:21.020',-0.165
'0:21.024',-0.122
'0:21.028',-0.133
'0:21.032',-0.125
'0:21.036',-0.100
'0:21.040',-0.115
'0:21.044',-0.150
'0:21.048',-0.165
'0:21.052',-0.160
'0:21.056',-0.147
'0:21.060',-0.140
'0:21.064',-0.138
'0:21.068',-0.098
'0:21.072',-0.115
'0:21.076',-0.122
'0:21.080',-0.150
'0:21.084',-0.170
'0:21.088',-0.165
'0:21.092',-0.150
'0:21.096',-0.107
'0:21.100',-0.135
'0:21.104',-0.128
'0:21.108',-0.145
'0:21.112',-0.172
'0:21.116',-0.198
'0:21.120',-0.160
'0:21.124',-0.147
'0:21.128',-0.170
'0:21.132',-0.133
'0:21.136',-0.152
'0:21.140',-0.172
'0:21.144',-0.215
'0:21.148',-0.177
'0:21.152',-0.210
'0:21.156',-0.223
'0:21.160',-0.200
'0:21.164',-0.185
'0:21.168',-0.175
'0:21.172',-0.198
'0:21.176',-0.195
'0:21.180',-0.207
'0:21.184',-0.200
'0:21.188',-0.258
'0:21.192',-0.235
'0:21.196',-0.215
'0:21.200',-0.198
'0:21.204',-0.228
'0:21.208',-0.215
'0:21.212',-0.223
'0:21.216',-0.270
'0:21.220',-0.228
'0:21.224',-0.270
'0:21.228',-0.233
'0:21.232',-0.240
'0:21.236',-0.212
'0:21.240',-0.240
'0:21.244',-0.247
'0:21.248',-0.245
'0:21.252',-0.278
'0:21.256',-0.240
'0:21.260',-0.253
'0:21.264',-0.198
'0:21.268',-0.265
'0:21.272',-0.220
'0:21.276',-0.233
'0:21.280',-0.297
'0:21.284',-0.247
'0:21.288',-0.297
'0:21.292',-0.263
'0:21.296',-0.263
'0:21.300',-0.215
'0:21.304',-0.258
'0:21.308',-0.265
'0:21.312',-0.263
'0:21.316',-0.263
'0:21.320',-0.247
'0:21.324',-0.300
'0:21.328',-0.275
'0:21.332',-0.278
'0:21.336',-0.240
'0:21.340',-0.228
'0:21.344',-0.247
'0:21.348',-0.258
'0:21.352',-0.258
'0:21.356',-0.273
'0:21.360',-0.310
'0:21.364',-0.263
'0:21.368',-0.270
'0:21.372',-0.247
'0:21.376',-0.263
'0:21.380',-0.290
'0:21.384',-0.250
'0:21.388',-0.273
'0:21.392',-0.278
'0:21.396',-0.250
'0:21.400',-0.258
'0:21.404',-0.240
'0:21.408',-0.240
'0:21.412',-0.258
'0:21.416',-0.275
'0:21.420',-0.258
'0:21.424',-0.273
'0:21.428',-0.233
'0:21.432',-0.250
'0:21.436',-0.228
'0:21.440',-0.273
'0:21.444',-0.240
'0:21.448',-0.237
'0:21.452',-0.278
'0:21.456',-0.270
'0:21.460',-0.237
'0:21.464',-0.212
'0:21.468',-0.240
'0:21.472',-0.258
'0:21.476',-0.260
'0:21.480',-0.247
'0:21.484',-0.282
'0:21.488',-0.225
'0:21.492',-0.228
'0:21.496',-0.235
'0:21.500',-0.237
'0:21.504',-0.207
'0:21.508',-0.210
'0:21.512',-0.198
'0:21.516',-0.190
'0:21.520',-0.198
'0:21.524',-0.175
'0:21.528',-0.198
'0:21.532',-0.158
'0:21.536',-0.150
'0:21.540',-0.152
'0:21.544',-0.145
'0:21.548',-0.165
'0:21.552',-0.160
'0:21.556',-0.122
'0:21.560',-0.115
'0:21.564',-0.113
'0:21.568',-0.085
'0:21.572',-0.062
'0:21.576',-0.122
'0:21.580',-0.102
'0:21.584',-0.122
'0:21.588',-0.102
'0:21.592',-0.085
'0:21.596',-0.122
'0:21.600',-0.098
'0:21.604',-0.125
'0:21.608',-0.163
'0:21.612',-0.152
'0:21.616',-0.175
'0:21.620',-0.177
'0:21.624',-0.182
'0:21.628',-0.177
'0:21.632',-0.140
'0:21.636',-0.128
'0:21.640',-0.150
'0:21.644',-0.128
'0:21.648',-0.150
'0:21.652',-0.133
'0:21.656',-0.122
'0:21.660',-0.110
'0:21.664',-0.058
'0:21.668',-0.083
'0:21.672',-0.050
'0:21.676',0.015
'0:21.680',0.070
'0:21.684',0.245
'0:21.688',0.535
'0:21.692',0.902
'0:21.696',1.383
'0:21.700',1.812
'0:21.704',2.123
'0:21.708',2.150
'0:21.712',1.903
'0:21.716',1.450
'0:21.720',0.925
'0:21.724',0.435
'0:21.728',0.102
'0:21.732',-0.125
'0:21.736',-0.172
'0:21.740',-0.182
'0:21.744',-0.145
'0:21.748',-0.125
'0:21.752',-0.170
'0:21.756',-0.165
'0:21.760',-0.203
'0:21.764',-0.185
'0:21.768',-0.223
'0:21.772',-0.223
'0:21.776',-0.250
'0:21.780',-0.270
'0:21.784',-0.278
'0:21.788',-0.287
'0:21.792',-0.290
'0:21.796',-0.273
'0:21.800',-0.253
'0:21.804',-0.270
'0:21.808',-0.297
'0:21.812',-0.302
'0:21.816',-0.310
'0:21.820',-0.302
'0:21.824',-0.320
'0:21.828',-0.338
'0:21.832',-0.263
'0:21.836',-0.265
'0:21.840',-0.325
'0:21.844',-0.320
'0:21.848',-0.295
'0:21.852',-0.307
'0:21.856',-0.328
'0:21.860',-0.310
'0:21.864',-0.295
'0:21.868',-0.290
'0:21.872',-0.297
'0:21.876',-0.338
'0:21.880',-0.333
'0:21.884',-0.333
'0:21.888',-0.297
'0:21.892',-0.302
'0:21.896',-0.307
'0:21.900',-0.333
'0:21.904',-0.287
'0:21.908',-0.312
'0:21.912',-0.333
'0:21.916',-0.325
'0:21.920',-0.300
'0:21.924',-0.300
'0:21.928',-0.310
'0:21.932',-0.260
'0:21.936',-0.273
'0:21.940',-0.325
'0:21.944',-0.333
'0:21.948',-0.315
'0:21.952',-0.325
'0:21.956',-0.315
'0:21.960',-0.307
'0:21.964',-0.287
'0:21.968',-0.282
'0:21.972',-0.287
'0:21.976',-0.312
'0:21.980',-0.315
'0:21.984',-0.290
'0:21.988',-0.315
'0:21.992',-0.315
'0:21.996',-0.297
'0:22.000',-0.275
'0:22.004',-0.278
'0:22.008',-0.282
'0:22.012',-0.302
'0:22.016',-0.300
'0:22.020',-0.307
'0:22.024',-0.307
'0:22.028',-0.233
'0:22.032',-0.228
'0:22.036',-0.198
'0:22.040',-0.228
'0:22.044',-0.220
'0:22.048',-0.235
'0:22.052',-0.200
'0:22.056',-0.175
'0:22.060',-0.122
'0:22.064',-0.090
'0:22.068',-0.050
'0:22.072',-0.058
'0:22.076',-0.033
'0:22.080',-0.035
'0:22.084',-0.020
'0:22.088',-0.025
'0:22.092',-0.052
'0:22.096',-0.037
'0:22.100',-0.025
'0:22.104',-0.040
'0:22.108',-0.040
'0:22.112',-0.065
'0:22.116',-0.077
'0:22.120',-0.083
'0:22.124',-0.062
'0:22.128',-0.072
'0:22.132',-0.045
'0:22.136',-0.050
'0:22.140',-0.062
'0:22.144',-0.065
'0:22.148',-0.113
'0:22.152',-0.087
'0:22.156',-0.102
'0:22.160',-0.087
'0:22.164',-0.077
'0:22.168',-0.072
'0:22.172',-0.060
'0:22.176',-0.077
'0:22.180',-0.087
'0:22.184',-0.113
'0:22.188',-0.090
'0:22.192',-0.115
'0:22.196',-0.062
'0:22.200',-0.083
'0:22.204',-0.085
'0:22.208',-0.098
'0:22.212',-0.110
'0:22.216',-0.113
'0:22.220',-0.115
'0:22.224',-0.107
'0:22.228',-0.098
'0:22.232',-0.138
'0:22.236',-0.125
'0:22.240',-0.120
'0:22.244',-0.122
'0:22.248',-0.160
'0:22.252',-0.165
'0:22.256',-0.150
'0:22.260',-0.175
'0:22.264',-0.175
'0:22.268',-0.128
'0:22.272',-0.158
'0:22.276',-0.140
'0:22.280',-0.150
'0:22.284',-0.158
'0:22.288',-0.152
'0:22.292',-0.172
'0:22.296',-0.160
'0:22.300',-0.152
'0:22.304',-0.177
'0:22.308',-0.160
'0:22.312',-0.215
'0:22.316',-0.207
'0:22.320',-0.195
'0:22.324',-0.190
'0:22.328',-0.195
'0:22.332',-0.165
'0:22.336',-0.195
'0:22.340',-0.195
'0:22.344',-0.175
'0:22.348',-0.200
'0:22.352',-0.225
'0:22.356',-0.190
'0:22.360',-0.200
'0:22.364',-0.190
'0:22.368',-0.190
'0:22.372',-0.188
'0:22.376',-0.210
'0:22.380',-0.210
'0:22.384',-0.225
'0:22.388',-0.225
'0:22.392',-0.210
'0:22.396',-0.195
'0:22.400',-0.207
'0:22.404',-0.165
'0:22.408',-0.210
'0:22.412',-0.200
'0:22.416',-0.223
'0:22.420',-0.207
'0:22.424',-0.188
'0:22.428',-0.163
'0:22.432',-0.190
'0:22.436',-0.200
'0:22.440',-0.177
'0:22.444',-0.198
'0:22.448',-0.207
'0:22.452',-0.225
'0:22.456',-0.188
'0:22.460',-0.198
'0:22.464',-0.188
'0:22.468',-0.182
'0:22.472',-0.212
'0:22.476',-0.210
'0:22.480',-0.210
'0:22.484',-0.198
'0:22.488',-0.220
'0:22.492',-0.212
'0:22.496',-0.172
'0:22.500',-0.185
'0:22.504',-0.200
'0:22.508',-0.215
'0:22.512',-0.237
'0:22.516',-0.215
'0:22.520',-0.215
'0:22.524',-0.200
'0:22.528',-0.200
'0:22.532',-0.195
'0:22.536',-0.190
'0:22.540',-0.233
'0:22.544',-0.207
'0:22.548',-0.210
'0:22.552',-0.200
'0:22.556',-0.172
'0:22.560',-0.182
'0:22.564',-0.163
'0:22.568',-0.182
'0:22.572',-0.177
'0:22.576',-0.165
'0:22.580',-0.200
'0:22.584',-0.163
'0:22.588',-0.158
'0:22.592',-0.120
'0:22.596',-0.110
'0:22.600',-0.138
'0:22.604',-0.125
'0:22.608',-0.170
'0:22.612',-0.133
'0:22.616',-0.133
'0:22.620',-0.128
'0:22.624',-0.110
'0:22.628',-0.090
'0:22.632',-0.075
'0:22.636',-0.087
'0:22.640',-0.095
'0:22.644',-0.098
'0:22.648',-0.085
'0:22.652',-0.100
'0:22.656',-0.072
'0:22.660',-0.062
'0:22.664',-0.052
'0:22.668',-0.050
'0:22.672',-0.037
'0:22.676',-0.095
'0:22.680',-0.100
'0:22.684',-0.165
'0:22.688',-0.125
'0:22.692',-0.122
'0:22.696',-0.120
'0:22.700',-0.113
'0:22.704',-0.070
'0:22.708',-0.115
'0:22.712',-0.133
'0:22.716',-0.095
'0:22.720',-0.098
'0:22.724',-0.100
'0:22.728',-0.075
'0:22.732',-0.028
'0:22.736',-0.037
'0:22.740',0.003
'0:22.744',0.052
'0:22.748',0.152
'0:22.752',0.360
'0:22.756',0.677
'0:22.760',1.095
'0:22.764',1.560
'0:22.768',1.945
'0:22.772',2.183
'0:22.776',2.163
'0:22.780',1.812
'0:22.784',1.415
'0:22.788',0.932
'0:22.792',0.540
'0:22.796',0.247
'0:22.800',0.075
'0:22.804',-0.033
'0:22.808',-0.040
'0:22.812',-0.070
'0:22.816',-0.100
'0:22.820',-0.113
'0:22.824',-0.120
'0:22.828',-0.125
'0:22.832',-0.152
'0:22.836',-0.190
'0:22.840',-0.172
'0:22.844',-0.207
'0:22.848',-0.225
'0:22.852',-0.245
'0:22.856',-0.233
'0:22.860',-0.240
'0:22.864',-0.258
'0:22.868',-0.190
'0:22.872',-0.258
'0:22.876',-0.247
'0:22.880',-0.302
'0:22.884',-0.290
'0:22.888',-0.278
'0:22.892',-0.273
'0:22.896',-0.312
'0:22.900',-0.295
'0:22.904',-0.287
'0:22.908',-0.290
'0:22.912',-0.282
'0:22.916',-0.320
'0:22.920',-0.325
'0:22.924',-0.325
'0:22.928',-0.328
'0:22.932',-0.278
'0:22.936',-0.302
'0:22.940',-0.287
'0:22.944',-0.315
'0:22.948',-0.320
'0:22.952',-0.323
'0:22.956',-0.310
'0:22.960',-0.270
'0:22.964',-0.275
'0:22.968',-0.295
'0:22.972',-0.235
'0:22.976',-0.270
'0:22.980',-0.287
'0:22.984',-0.307
'0:22.988',-0.300
'0:22.992',-0.297
'0:22.996',-0.263
'0:23.000',-0.260
'0:23.004',-0.250
'0:23.008',-0.273
'0:23.012',-0.260
'0:23.016',-0.295
'0:23.020',-0.295
'0:23.024',-0.287
'0:23.028',-0.233
'0:23.032',-0.270
'0:23.036',-0.260
'0:23.040',-0.278
'0:23.044',-0.270
'0:23.048',-0.312
'0:23.052',-0.275
'0:23.056',-0.282
'0:23.060',-0.270
'0:23.064',-0.250
'0:23.068',-0.275
'0:23.072',-0.263
'0:23.076',-0.270
'0:23.080',-0.278
'0:23.084',-0.278
'0:23.088',-0.285
'0:23.092',-0.270
'0:23.096',-0.245
'0:23.100',-0.203
'0:23.104',-0.210
'0:23.108',-0.188
'0:23.112',-0.152
'0:23.116',-0.182
'0:23.120',-0.113
'0:23.124',-0.083
'0:23.128',-0.062
'0:23.132',-0.048
'0:23.136',-0.037
'0:23.140',-0.013
'0:23.144',-0.045
'0:23.148',-0.007
'0:23.152',-0.035
'0:23.156',-0.060
'0:23.160',-0.013
'0:23.164',0.000
'0:23.168',-0.028
'0:23.172',-0.022
'0:23.176',-0.048
'0:23.180',-0.083
'0:23.184',-0.100
'0:23.188',-0.075
'0:23.192',-0.083
'0:23.196',-0.090
'0:23.200',-0.040
'0:23.204',-0.075
'0:23.208',-0.085
'0:23.212',-0.107
'0:23.216',-0.087
'0:23.220',-0.077
'0:23.224',-0.087
'0:23.228',-0.100
'0:23.232',-0.062
'0:23.236',-0.098
'0:23.240',-0.090
'0:23.244',-0.100
'0:23.248',-0.113
'0:23.252',-0.122
'0:23.256',-0.095
'0:23.260',-0.138
'0:23.264',-0.107
'0:23.268',-0.098
'0:23.272',-0.128
'0:23.276',-0.145
'0:23.280',-0.147
'0:23.284',-0.163
'0:23.288',-0.145
'0:23.292',-0.128
'0:23.296',-0.147
'0:23.300',-0.160
'0:23.304',-0.140
'0:23.308',-0.140
'0:23.312',-0.185
'0:23.316',-0.172
'0:23.320',-0.188
'0:23.324',-0.147
'0:23.328',-0.175
'0:23.332',-0.152
'0:23.336',-0.158
'0:23.340',-0.182
'0:23.344',-0.190
'0:23.348',-0.225
'0:23.352',-0.220
'0:23.356',-0.188
'0:23.360',-0.245
'0:23.364',-0.203
'0:23.368',-0.203
'0:23.372',-0.210
'0:23.376',-0.207
'0:23.380',-0.200
'0:23.384',-0.225
'0:23.388',-0.245
'0:23.392',-0.225
'0:23.396',-0.212
'0:23.400',-0.200
'0:23.404',-0.200
'0:23.408',-0.233
'0:23.412',-0.240
'0:23.416',-0.245
'0:23.420',-0.240
'0:23.424',-0.240
'0:23.428',-0.212
'0:23.432',-0.233
'0:23.436',-0.237
'0:23.440',-0.237
'0:23.444',-0.265
'0:23.448',-0.250
'0:23.452',-0.237
'0:23.456',-0.273
'0:23.460',-0.250
'0:23.464',-0.212
'0:23.468',-0.207
'0:23.472',-0.225
'0:23.476',-0.235
'0:23.480',-0.270
'0:23.484',-0.258
'0:23.488',-0.237
'0:23.492',-0.250
'0:23.496',-0.228
'0:23.500',-0.233
'0:23.504',-0.228
'0:23.508',-0.235
'0:23.512',-0.228
'0:23.516',-0.278
'0:23.520',-0.287
'0:23.524',-0.263
'0:23.528',-0.273
'0:23.532',-0.207
'0:23.536',-0.225
'0:23.540',-0.212
'0:23.544',-0.258
'0:23.548',-0.270
'0:23.552',-0.270
'0:23.556',-0.273
'0:23.560',-0.240
'0:23.564',-0.253
'0:23.568',-0.258
'0:23.572',-0.237
'0:23.576',-0.247
'0:23.580',-0.237
'0:23.584',-0.265
'0:23.588',-0.290
'0:23.592',-0.290
'0:23.596',-0.258
'0:23.600',-0.270
'0:23.604',-0.228
'0:23.608',-0.263
'0:23.612',-0.237
'0:23.616',-0.225
'0:23.620',-0.278
'0:23.624',-0.287
'0:23.628',-0.240
'0:23.632',-0.250
'0:23.636',-0.237
'0:23.640',-0.247
'0:23.644',-0.237
'0:23.648',-0.250
'0:23.652',-0.245
'0:23.656',-0.275
'0:23.660',-0.200
'0:23.664',-0.185
'0:23.668',-0.195
'0:23.672',-0.198
'0:23.676',-0.203
'0:23.680',-0.182
'0:23.684',-0.177
'0:23.688',-0.190
'0:23.692',-0.177
'0:23.696',-0.133
'0:23.700',-0.128
'0:23.704',-0.125
'0:23.708',-0.150
'0:23.712',-0.125
'0:23.716',-0.133
'0:23.720',-0.152
'0:23.724',-0.122
'0:23.728',-0.135
'0:23.732',-0.090
'0:23.736',-0.102
'0:23.740',-0.145
'0:23.744',-0.138
'0:23.748',-0.160
'0:23.752',-0.175
'0:23.756',-0.212
'0:23.760',-0.198
'0:23.764',-0.190
'0:23.768',-0.163
'0:23.772',-0.160
'0:23.776',-0.163
'0:23.780',-0.198
'0:23.784',-0.150
'0:23.788',-0.163
'0:23.792',-0.160
'0:23.796',-0.113
'0:23.800',-0.085
'0:23.804',-0.113
'0:23.808',-0.098
'0:23.812',-0.085
'0:23.816',-0.083
'0:23.820',-0.058
'0:23.824',0.085
'0:23.828',0.195
'0:23.832',0.415
'0:23.836',0.695
'0:23.840',0.988
'0:23.844',1.340
'0:23.848',1.698
'0:23.852',1.972
'0:23.856',2.123
'0:23.860',2.058
'0:23.864',1.808
'0:23.868',1.383
'0:23.872',0.958
'0:23.876',0.500
'0:23.880',0.198
'0:23.884',0.000
'0:23.888',-0.120
'0:23.892',-0.150
'0:23.896',-0.152
'0:23.900',-0.177
'0:23.904',-0.150
'0:23.908',-0.188
'0:23.912',-0.258
'0:23.916',-0.287
'0:23.920',-0.290
'0:23.924',-0.325
'0:23.928',-0.263
'0:23.932',-0.290
'0:23.936',-0.278
'0:23.940',-0.282
'0:23.944',-0.357
'0:23.948',-0.360
'0:23.952',-0.335
'0:23.956',-0.320
'0:23.960',-0.340
'0:23.964',-0.315
'0:23.968',-0.323
'0:23.972',-0.335
'0:23.976',-0.365
'0:23.980',-0.370
'0:23.984',-0.388
'0:23.988',-0.398
'0:23.992',-0.365
'0:23.996',-0.307
'0:24.000',-0.378
'0:24.004',-0.357
'0:24.008',-0.370
'0:24.012',-0.370
'0:24.016',-0.370
'0:24.020',-0.370
'0:24.024',-0.362
'0:24.028',-0.335
'0:24.032',-0.323
'0:24.036',-0.328
'0:24.040',-0.352
'0:24.044',-0.383
'0:24.048',-0.360
'0:24.052',-0.362
'0:24.056',-0.370
'0:24.060',-0.350
'0:24.064',-0.312
'0:24.068',-0.323
'0:24.072',-0.340
'0:24.076',-0.347
'0:24.080',-0.352
'0:24.084',-0.350
'0:24.088',-0.340
'0:24.092',-0.335
'0:24.096',-0.328
'0:24.100',-0.312
'0:24.104',-0.338
'0:24.108',-0.375
'0:24.112',-0.370
'0:24.116',-0.345
'0:24.120',-0.375
'0:24.124',-0.340
'0:24.128',-0.328
'0:24.132',-0.340
'0:24.136',-0.312
'0:24.140',-0.345
'0:24.144',-0.347
'0:24.148',-0.362
'0:24.152',-0.390
'0:24.156',-0.338
'0:24.160',-0.390
'0:24.164',-0.340
'0:24.168',-0.300
'0:24.172',-0.295
'0:24.176',-0.325
'0:24.180',-0.285
'0:24.184',-0.312
'0:24.188',-0.263
'0:24.192',-0.228
'0:24.196',-0.172
'0:24.200',-0.125
'0:24.204',-0.100
'0:24.208',-0.102
'0:24.212',-0.077
'0:24.216',-0.098
'0:24.220',-0.083
'0:24.224',-0.075
'0:24.228',-0.065
'0:24.232',-0.072
'0:24.236',-0.045
'0:24.240',-0.052
'0:24.244',-0.070
'0:24.248',-0.087
'0:24.252',-0.113
'0:24.256',-0.070
'0:24.260',-0.077
'0:24.264',-0.098
'0:24.268',-0.090
'0:24.272',-0.075
'0:24.276',-0.138
'0:24.280',-0.140
'0:24.284',-0.133
'0:24.288',-0.113
'0:24.292',-0.138
'0:24.296',-0.095
'0:24.300',-0.065
'0:24.304',-0.087
'0:24.308',-0.120
'0:24.312',-0.150
'0:24.316',-0.122
'0:24.320',-0.133
'0:24.324',-0.133
'0:24.328',-0.115
'0:24.332',-0.087
'0:24.336',-0.098
'0:24.340',-0.107
'0:24.344',-0.090
'0:24.348',-0.150
'0:24.352',-0.165
'0:24.356',-0.113
'0:24.360',-0.125
'0:24.364',-0.140
'0:24.368',-0.115
'0:24.372',-0.133
'0:24.376',-0.152
'0:24.380',-0.177
'0:24.384',-0.152
'0:24.388',-0.140
'0:24.392',-0.158
'0:24.396',-0.163
'0:24.400',-0.150
'0:24.404',-0.163
'0:24.408',-0.200
'0:24.412',-0.165
'0:24.416',-0.198
'0:24.420',-0.200
'0:24.424',-0.190
'0:24.428',-0.185
'0:24.432',-0.172
'0:24.436',-0.170
'0:24.440',-0.207
'0:24.444',-0.212
'0:24.448',-0.185
'0:24.452',-0.240
'0:24.456',-0.212
'0:24.460',-0.172
'0:24.464',-0.215
'0:24.468',-0.188
'0:24.472',-0.223
'0:24.476',-0.200
'0:24.480',-0.198
'0:24.484',-0.198
'0:24.488',-0.177
'0:24.492',-0.200
'0:24.496',-0.207
'0:24.500',-0.203
'0:24.504',-0.200
'0:24.508',-0.235
'0:24.512',-0.258
'0:24.516',-0.220
'0:24.520',-0.215
'0:24.524',-0.225
'0:24.528',-0.228
'0:24.532',-0.203
'0:24.536',-0.225
'0:24.540',-0.250
'0:24.544',-0.210
'0:24.548',-0.253
'0:24.552',-0.250
'0:24.556',-0.233
'0:24.560',-0.212
'0:24.564',-0.212
'0:24.568',-0.198
'0:24.572',-0.212
'0:24.576',-0.220
'0:24.580',-0.235
'0:24.584',-0.220
'0:24.588',-0.215
'0:24.592',-0.223
'0:24.596',-0.212
'0:24.600',-0.195
'0:24.604',-0.235
'0:24.608',-0.240
'0:24.612',-0.182
'0:24.616',-0.263
'0:24.620',-0.263
'0:24.624',-0.253
'0:24.628',-0.212
'0:24.632',-0.220
'0:24.636',-0.207
'0:24.640',-0.237
'0:24.644',-0.225
'0:24.648',-0.260
'0:24.652',-0.233
'0:24.656',-0.215
'0:24.660',-0.160
'0:24.664',-0.190
'0:24.668',-0.215
'0:24.672',-0.207
'0:24.676',-0.215
'0:24.680',-0.237
'0:24.684',-0.228
'0:24.688',-0.210
'0:24.692',-0.203
'0:24.696',-0.210
'0:24.700',-0.190
'0:24.704',-0.182
'0:24.708',-0.175
'0:24.712',-0.228
'0:24.716',-0.237
'0:24.720',-0.235
'0:24.724',-0.195
'0:24.728',-0.210
'0:24.732',-0.177
'0:24.736',-0.237
'0:24.740',-0.223
'0:24.744',-0.203
'0:24.748',-0.212
'0:24.752',-0.190
'0:24.756',-0.163
'0:24.760',-0.215
'0:24.764',-0.158
'0:24.768',-0.195
'0:24.772',-0.165
'0:24.776',-0.177
'0:24.780',-0.177
'0:24.784',-0.185
'0:24.788',-0.160
'0:24.792',-0.133
'0:24.796',-0.120
'0:24.800',-0.113
'0:24.804',-0.098
'0:24.808',-0.110
'0:24.812',-0.113
'0:24.816',-0.140
'0:24.820',-0.125
'0:24.824',-0.085
'0:24.828',-0.083
'0:24.832',-0.050
'0:24.836',-0.048
'0:24.840',-0.085
'0:24.844',-0.107
'0:24.848',-0.102
'0:24.852',-0.120
'0:24.856',-0.077
'0:24.860',-0.075
'0:24.864',-0.120
'0:24.868',-0.113
'0:24.872',-0.098
'0:24.876',-0.102
'0:24.880',-0.133
'0:24.884',-0.188
'0:24.888',-0.135
'0:24.892',-0.133
'0:24.896',-0.125
'0:24.900',-0.110
'0:24.904',-0.065
'0:24.908',-0.072
'0:24.912',-0.098
'0:24.916',-0.062
'0:24.920',-0.070
'0:24.924',0.015
'0:24.928',0.028
'0:24.932',0.022
'0:24.936',0.122
'0:24.940',0.247
'0:24.944',0.520
'0:24.948',0.873
'0:24.952',1.327
'0:24.956',1.808
'0:24.960',2.208
'0:24.964',2.350
'0:24.968',2.147
'0:24.972',1.685
'0:24.976',1.048
'0:24.980',0.502
'0:24.984',0.122
'0:24.988',-0.120
'0:24.992',-0.200
'0:24.996',-0.152
'0:25.000',-0.095
'0:25.004',-0.110
'0:25.008',-0.085
'0:25.012',-0.133
'0:25.016',-0.175
'0:25.020',-0.195
'0:25.024',-0.207
'0:25.028',-0.210
'0:25.032',-0.185
'0:25.036',-0.215
'0:25.040',-0.200
'0:25.044',-0.235
'0:25.048',-0.265
'0:25.052',-0.282
'0:25.056',-0.278
'0:25.060',-0.245
'0:25.064',-0.245
'0:25.068',-0.245
'0:25.072',-0.253
'0:25.076',-0.275
'0:25.080',-0.295
'0:25.084',-0.300
'0:25.088',-0.307
'0:25.092',-0.287
'0:25.096',-0.287
'0:25.100',-0.295
'0:25.104',-0.290
'0:25.108',-0.275
'0:25.112',-0.302
'0:25.116',-0.315
'0:25.120',-0.312
'0:25.124',-0.323
'0:25.128',-0.247
'0:25.132',-0.275
'0:25.136',-0.273
'0:25.140',-0.253
'0:25.144',-0.282
'0:25.148',-0.300
'0:25.152',-0.325
'0:25.156',-0.290
'0:25.160',-0.275
'0:25.164',-0.270
'0:25.168',-0.223
'0:25.172',-0.240
'0:25.176',-0.275
'0:25.180',-0.260
'0:25.184',-0.275
'0:25.188',-0.278
'0:25.192',-0.285
'0:25.196',-0.270
'0:25.200',-0.253
'0:25.204',-0.228
'0:25.208',-0.275
'0:25.212',-0.287
'0:25.216',-0.275
'0:25.220',-0.273
'0:25.224',-0.260
'0:25.228',-0.285
'0:25.232',-0.260
'0:25.236',-0.275
'0:25.240',-0.282
'0:25.244',-0.278
'0:25.248',-0.312
'0:25.252',-0.265
'0:25.256',-0.275
'0:25.260',-0.263
'0:25.264',-0.250
'0:25.268',-0.250
'0:25.272',-0.228
'0:25.276',-0.278
'0:25.280',-0.260
'0:25.284',-0.235
'0:25.288',-0.233
'0:25.292',-0.177
'0:25.296',-0.150
'0:25.300',-0.138
'0:25.304',-0.090
'0:25.308',-0.122
'0:25.312',-0.062
'0:25.316',-0.048
'0:25.320',-0.062
'0:25.324',-0.015
'0:25.328',0.022
'0:25.332',0.060
'0:25.336',0.065
'0:25.340',0.033
'0:25.344',0.035
'0:25.348',0.000
'0:25.352',-0.015
'0:25.356',0.010
'0:25.360',-0.007
'0:25.364',0.028
'0:25.368',0.003
'0:25.372',-0.040
'0:25.376',-0.052
'0:25.380',-0.040
'0:25.384',-0.060
'0:25.388',-0.040
'0:25.392',-0.052
'0:25.396',-0.015
'0:25.400',-0.037
'0:25.404',-0.050
'0:25.408',-0.062
'0:25.412',-0.058
'0:25.416',-0.062
'0:25.420',-0.095
'0:25.424',-0.077
'0:25.428',-0.065
'0:25.432',-0.058
'0:25.436',-0.050
'0:25.440',-0.060
'0:25.444',-0.083
'0:25.448',-0.102
'0:25.452',-0.075
'0:25.456',-0.072
'0:25.460',-0.050
'0:25.464',-0.060
'0:25.468',-0.065
'0:25.472',-0.102
'0:25.476',-0.090
'0:25.480',-0.102
'0:25.484',-0.152
'0:25.488',-0.072
'0:25.492',-0.090
'0:25.496',-0.087
'0:25.500',-0.145
'0:25.504',-0.087
'0:25.508',-0.125
'0:25.512',-0.150
'0:25.516',-0.150
'0:25.520',-0.122
'0:25.524',-0.115
'0:25.528',-0.113
'0:25.532',-0.125
'0:25.536',-0.138
'0:25.540',-0.158
'0:25.544',-0.165
'0:25.548',-0.175
'0:25.552',-0.163
'0:25.556',-0.160
'0:25.560',-0.147
'0:25.564',-0.145
'0:25.568',-0.140
'0:25.572',-0.170
'0:25.576',-0.163
'0:25.580',-0.182
'0:25.584',-0.215
'0:25.588',-0.210
'0:25.592',-0.223
'0:25.596',-0.172
'0:25.600',-0.165
'0:25.604',-0.163
'0:25.608',-0.175
'0:25.612',-0.200
'0:25.616',-0.200
'0:25.620',-0.220
'0:25.624',-0.203
'0:25.628',-0.177
'0:25.632',-0.158
'0:25.636',-0.158
'0:25.640',-0.188
'0:25.644',-0.200
'0:25.648',-0.228
'0:25.652',-0.240
'0:25.656',-0.207
'0:25.660',-0.188
'0:25.664',-0.185
'0:25.668',-0.170
'0:25.672',-0.195
'0:25.676',-0.200
'0:25.680',-0.207
'0:25.684',-0.235
'0:25.688',-0.228
'0:25.692',-0.207
'0:25.696',-0.177
'0:25.700',-0.190
'0:25.704',-0.185
'0:25.708',-0.185
'0:25.712',-0.220
'0:25.716',-0.223
'0:25.720',-0.223
'0:25.724',-0.200
'0:25.728',-0.188
'0:25.732',-0.207
'0:25.736',-0.177
'0:25.740',-0.225
'0:25.744',-0.215
'0:25.748',-0.182
'0:25.752',-0.233
'0:25.756',-0.203
'0:25.760',-0.200
'0:25.764',-0.215
'0:25.768',-0.182
'0:25.772',-0.188
'0:25.776',-0.195
'0:25.780',-0.198
'0:25.784',-0.225
'0:25.788',-0.235
'0:25.792',-0.240
'0:25.796',-0.188
'0:25.800',-0.190
'0:25.804',-0.188
'0:25.808',-0.200
'0:25.812',-0.233
'0:25.816',-0.210
'0:25.820',-0.223
'0:25.824',-0.212
'0:25.828',-0.220
'0:25.832',-0.150
'0:25.836',-0.152
'0:25.840',-0.147
'0:25.844',-0.152
'0:25.848',-0.172
'0:25.852',-0.152
'0:25.856',-0.160
'0:25.860',-0.138
'0:25.864',-0.138
'0:25.868',-0.115
'0:25.872',-0.090
'0:25.876',-0.100
'0:25.880',-0.140
'0:25.884',-0.135
'0:25.888',-0.100
'0:25.892',-0.140
'0:25.896',-0.083
'0:25.900',-0.040
'0:25.904',-0.075
'0:25.908',-0.045
'0:25.912',-0.095
'0:25.916',-0.102
'0:25.920',-0.102
'0:25.924',-0.098
'0:25.928',-0.113
'0:25.932',-0.133
'0:25.936',-0.090
'0:25.940',-0.135
'0:25.944',-0.125
'0:25.948',-0.163
'0:25.952',-0.158
'0:25.956',-0.150
'0:25.960',-0.135
'0:25.964',-0.110
'0:25.968',-0.083
'0:25.972',-0.095
'0:25.976',-0.065
'0:25.980',-0.100
'0:25.984',-0.075
'0:25.988',-0.033
'0:25.992',0.010
'0:25.996',0.138
'0:26.000',0.338
'0:26.004',0.647
'0:26.008',1.065
'0:26.012',1.452
'0:26.016',1.850
'0:26.020',2.038
'0:26.024',1.970
'0:26.028',1.670
'0:26.032',1.212
'0:26.036',0.760
'0:26.040',0.352
'0:26.044',0.058
'0:26.048',-0.075
'0:26.052',-0.150
'0:26.056',-0.133
'0:26.060',-0.128
'0:26.064',-0.095
'0:26.068',-0.085
'0:26.072',-0.128
'0:26.076',-0.175
'0:26.080',-0.210
'0:26.084',-0.220
'0:26.088',-0.233
'0:26.092',-0.207
'0:26.096',-0.233
'0:26.100',-0.212
'0:26.104',-0.212
'0:26.108',-0.220
'0:26.112',-0.260
'0:26.116',-0.282
'0:26.120',-0.245
'0:26.124',-0.250
'0:26.128',-0.275
'0:26.132',-0.285
'0:26.136',-0.247
'0:26.140',-0.278
'0:26.144',-0.295
'0:26.148',-0.307
'0:26.152',-0.290
'0:26.156',-0.310
'0:26.160',-0.265
'0:26.164',-0.302
'0:26.168',-0.297
'0:26.172',-0.312
'0:26.176',-0.302
'0:26.180',-0.320
'0:26.184',-0.302
'0:26.188',-0.312
'0:26.192',-0.300
'0:26.196',-0.302
'0:26.200',-0.287
'0:26.204',-0.270
'0:26.208',-0.300
'0:26.212',-0.302
'0:26.216',-0.323
'0:26.220',-0.290
'0:26.224',-0.302
'0:26.228',-0.278
'0:26.232',-0.297
'0:26.236',-0.275
'0:26.240',-0.275
'0:26.244',-0.297
'0:26.248',-0.290
'0:26.252',-0.320
'0:26.256',-0.300
'0:26.260',-0.295
'0:26.264',-0.287
'0:26.268',-0.265
'0:26.272',-0.287
'0:26.276',-0.310
'0:26.280',-0.307
'0:26.284',-0.287
'0:26.288',-0.325
'0:26.292',-0.307
'0:26.296',-0.253
'0:26.300',-0.270
'0:26.304',-0.263
'0:26.308',-0.285
'0:26.312',-0.307
'0:26.316',-0.297
'0:26.320',-0.273
'0:26.324',-0.290
'0:26.328',-0.297
'0:26.332',-0.240
'0:26.336',-0.260
'0:26.340',-0.247
'0:26.344',-0.297
'0:26.348',-0.325
'0:26.352',-0.273
'0:26.356',-0.228
'0:26.360',-0.198
'0:26.364',-0.160
'0:26.368',-0.160
'0:26.372',-0.133
'0:26.376',-0.107
'0:26.380',-0.113
'0:26.384',-0.058
'0:26.388',-0.058
'0:26.392',-0.028
'0:26.396',0.022
'0:26.400',0.020
'0:26.404',-0.007
'0:26.408',-0.013
'0:26.412',-0.037
'0:26.416',-0.050
'0:26.420',-0.052
'0:26.424',-0.050
'0:26.428',-0.050
'0:26.432',-0.022
'0:26.436',-0.058
'0:26.440',-0.065
'0:26.444',-0.058
'0:26.448',-0.107
'0:26.452',-0.110
'0:26.456',-0.087
'0:26.460',-0.052
'0:26.464',-0.095
'0:26.468',-0.070
'0:26.472',-0.090
'0:26.476',-0.087
'0:26.480',-0.125
'0:26.484',-0.122
'0:26.488',-0.122
'0:26.492',-0.140
'0:26.496',-0.070
'0:26.500',-0.110
'0:26.504',-0.107
'0:26.508',-0.100
'0:26.512',-0.102
'0:26.516',-0.120
'0:26.520',-0.135
'0:26.524',-0.133
'0:26.528',-0.128
'0:26.532',-0.122
'0:26.536',-0.110
'0:26.540',-0.140
'0:26.544',-0.175
'0:26.548',-0.147
'0:26.552',-0.147
'0:26.556',-0.175
'0:26.560',-0.177
'0:26.564',-0.135
'0:26.568',-0.145
'0:26.572',-0.152
'0:26.576',-0.190
'0:26.580',-0.215
'0:26.584',-0.198
'0:26.588',-0.198
'0:26.592',-0.200
'0:26.596',-0.190
'0:26.600',-0.182
'0:26.604',-0.198
'0:26.608',-0.235
'0:26.612',-0.223
'0:26.616',-0.237
'0:26.620',-0.233
'0:26.624',-0.247
'0:26.628',-0.198
'0:26.632',-0.210
'0:26.636',-0.200
'0:26.640',-0.240
'0:26.644',-0.258
'0:26.648',-0.250
'0:26.652',-0.247
'0:26.656',-0.240
'0:26.660',-0.260
'0:26.664',-0.233
'0:26.668',-0.235
'0:26.672',-0.228
'0:26.676',-0.235
'0:26.680',-0.258
'0:26.684',-0.247
'0:26.688',-0.285
'0:26.692',-0.253
'0:26.696',-0.237
'0:26.700',-0.260
'0:26.704',-0.250
'0:26.708',-0.250
'0:26.712',-0.240
'0:26.716',-0.245
'0:26.720',-0.265
'0:26.724',-0.290
'0:26.728',-0.247
'0:26.732',-0.260
'0:26.736',-0.260
'0:26.740',-0.263
'0:26.744',-0.285
'0:26.748',-0.270
'0:26.752',-0.287
'0:26.756',-0.278
'0:26.760',-0.282
'0:26.764',-0.260
'0:26.768',-0.253
'0:26.772',-0.260
'0:26.776',-0.270
'0:26.780',-0.275
