20:23:24,5414348.0,5415798.0,5412432.0,5413550.0,5413497.0,5415394.0,5414370.0,5414519.0,5413981.0,5413068.0,5412961.0,5412459.0,5412264.0,5411413.0,5412393.0,5413587.0,5413973.0,5414359.0,5414661.0,5414234.0,5414400.0,5413840.0,5414580.0,5414403.0,5414377.0,5414405.0,5414488.0,5414538.0,5414419.0,5413855.0,5414212.0,5414897.0,5414236.0,5414243.0,5415179.0,5411666.0,5414089.0,5414140.0,5414364.0,5414029.0,5413954.0,5413676.0,5413094.0,5412564.0,5412341.0,5411751.0,5412086.0,5412985.0,5413551.0,5414099.0,5414488.0,5414019.0,5414000.0,5414321.0,5413730.0,5414274.0,5414092.0,5414516.0,5414197.0,5414603.0,5414286.0,5414575.0,5414340.0,5414574.0,5414620.0,5415236.0,5413524.0,5413076.0,5412412.0,5414815.0,5414181.0,5414078.0,5413660.0,5413880.0,5412851.0,5411848.0,5411472.0,5411697.0,5411921.0,5412624.0,5413462.0,5413923.0,5414333.0,5413752.0,5413709.0,5414221.0,5413892.0,5413769.0,5413935.0,5414267.0,5414197.0,5413857.0,5413920.0,5413419.0,5413299.0,5413923.0,5413936.0,5413427.0,5413383.0,5411996.020:23:26,5414836.0,5412775.0,5411902.0,5411254.0,5410793.0,5410216.0,5410211.0,5410046.0,5411164.0,5412089.0,5412281.0,5412345.0,5412157.0,5412153.0,5411907.0,5412176.0,5411975.0,5411958.0,5412003.0,5412010.0,5412057.0,5411736.0,5411590.0,5411553.0,5411949.0,5411745.0,5410965.0,5412448.0,5409629.0,5410977.0,5409965.0,5411417.0,5411227.0,5410978.0,5410646.0,5410098.0,5409555.0,5408855.0,5408300.0,5408052.0,5408394.0,5409274.0,5409961.0,5410555.0,5410546.0,5410383.0,5410207.0,5410319.0,5410464.0,5410256.0,5410355.0,5410373.0,5410377.0,5410124.0,5410143.0,5409887.0,5409857.0,5410094.0,5410482.0,5410367.0,5408943.0,5409201.0,5408752.0,5409592.0,5409538.0,5409568.0,5409427.0,5408730.0,5408219.0,5407407.0,5406786.0,5407263.0,5406958.0,5407654.0,5408638.0,5409205.0,5409044.0,5409233.0,5408852.0,5408716.0,5408772.0,5408921.0,5408914.0,5409057.0,5408992.0,5408822.0,5408382.0,5408550.0,5408729.0,5409071.0,5408532.0,5407971.0,5407714.0,5407108.0,5408388.0,5408378.0,5408097.0,5407544.0,5407572.0,5407010.020:23:29,5406211.0,5407319.0,5407668.0,5407934.0,5407864.0,5407553.0,5407792.0,5407456.0,5407824.0,5407751.0,5407649.0,5407637.0,5407265.0,5407063.0,5407340.0,5407789.0,5407789.0,5407749.0,5406529.0,5405966.0,5406387.0,5407124.0,5407113.0,5406931.0,5406563.0,5406214.0,5405736.0,5405163.0,5404475.0,5404262.0,5404655.0,5405200.0,5406230.0,5406649.0,5406718.0,5406398.0,5406311.0,5406349.0,5406389.0,5406756.0,5406667.0,5406508.0,5406269.0,5406223.0,5406272.0,5406743.0,5406682.0,5406413.0,5405197.0,5405925.0,5404758.0,5406103.0,5406157.0,5405868.0,5405584.0,5405177.0,5404556.0,5403900.0,5403369.0,5403283.0,5403537.0,5404525.0,5405290.0,5405770.0,5405506.0,5405496.0,5405308.0,5405521.0,5405424.0,5405319.0,5405692.0,5405449.0,5405302.0,5405180.0,5405854.0,5405903.0,5405610.0,5405315.0,5403429.0,5407917.0,5405607.0,5405520.0,5405446.0,5405161.0,5405145.0,5404574.0,5403804.0,5403539.0,5403595.0,5403195.0,5404107.0,5405036.0,5405487.0,5405526.0,5405590.0,5405539.0,5405937.0,5405670.0,5405594.0,5405947.020:23:31,5405602.0,5406231.0,5405393.0,5404341.0,5407852.0,5405832.0,5405843.0,5405711.0,5405411.0,5405291.0,5404821.0,5404194.0,5404005.0,5403618.0,5403676.0,5404338.0,5405267.0,5406040.0,5405405.0,5405663.0,5405624.0,5405860.0,5405124.0,5405937.0,5405493.0,5405507.0,5406163.0,5405600.0,5405805.0,5405873.0,5403293.0,5406897.0,5405671.0,5405479.0,5405590.0,5405185.0,5405191.0,5404385.0,5403939.0,5403321.0,5403185.0,5403217.0,5403924.0,5404794.0,5405638.0,5405566.0,5405560.0,5405391.0,5405494.0,5405514.0,5405691.0,5405822.0,5405001.0,5405852.0,5405722.0,5405840.0,5405974.0,5406024.0,5403569.0,5406650.0,5405453.0,5405570.0,5405623.0,5405269.0,5405112.0,5404401.0,5403912.0,5403367.0,5403014.0,5403259.0,5403634.0,5404801.0,5405360.0,5405285.0,5405269.0,5405354.0,5405032.0,5405198.0,5405447.0,5405591.0,5404804.0,5405135.0,5405744.0,5405763.0,5405907.0,5406027.0,5403359.0,5406878.0,5405425.0,5405503.0,5405331.0,5405375.0,5404942.0,5404689.0,5404177.0,5403652.0,5403303.0,5403729.0,5404193.0,5404967.020:23:33,5405690.0,5406015.0,5406397.0,5406624.0,5406221.0,5406775.0,5406988.0,5407124.0,5407416.0,5404727.0,5406771.0,5405773.0,5407013.0,5407244.0,5406858.0,5406864.0,5406511.0,5406221.0,5405679.0,5405517.0,5405458.0,5405757.0,5406700.0,5407375.0,5407626.0,5407568.0,5407462.0,5407505.0,5407575.0,5407991.0,5407611.0,5407649.0,5407806.0,5407810.0,5407680.0,5406588.0,5406844.0,5408134.0,5407603.0,5407408.0,5407311.0,5407006.0,5406835.0,5406605.0,5406081.0,5405640.0,5405771.0,5405995.0,5406662.0,5407571.0,5407806.0,5408041.0,5408035.0,5407810.0,5408074.0,5408259.0,5408686.0,5408314.0,5408510.0,5408730.0,5408859.0,5409024.0,5407963.0,5407632.0,5407648.0,5408560.0,5408615.0,5408509.0,5408236.0,5407943.0,5407376.0,5407055.0,5406527.0,5406674.0,5407163.0,5407666.0,5408546.0,5408688.0,5408656.0,5408536.0,5408739.0,5408782.0,5408716.0,5408959.0,5408851.0,5409041.0,5408789.0,5408613.0,5409077.0,5409073.0,5409167.0,5409315.0,5407151.0,5408285.0,5407832.0,5408545.0,5408540.0,5408284.0,5408027.0,5407511.020:23:35,5407183.0,5406457.0,5407494.0,5408118.0,5408054.0,5407805.0,5407935.0,5407975.0,5407936.0,5407904.0,5408130.0,5408216.0,5408136.0,5408037.0,5408106.0,5407785.0,5407582.0,5408055.0,5408159.0,5408278.0,5408569.0,5405774.0,5408857.0,5407603.0,5407654.0,5407716.0,5407491.0,5407319.0,5406910.0,5406314.0,5406051.0,5405732.0,5405776.0,5405764.0,5406536.0,5407089.0,5407350.0,5407358.0,5407197.0,5407291.0,5407371.0,5407506.0,5407503.0,5407773.0,5407540.0,5407673.0,5407467.0,5407311.0,5407636.0,5407807.0,5408053.0,5407811.0,5405647.0,5407788.0,5406614.0,5407474.0,5407610.0,5407366.0,5407277.0,5406852.0,5406443.0,5405970.0,5405720.0,5405633.0,5405954.0,5406335.0,5407336.0,5407644.0,5407443.0,5407399.0,5407549.0,5407436.0,5407592.0,5407867.0,5407877.0,5407950.0,5408139.0,5407401.0,5407851.0,5408165.0,5408161.0,5408277.0,5406987.0,5407493.0,5406507.0,5407939.0,5407833.0,5407623.0,5407420.0,5407161.0,5406651.0,5406111.0,5405702.0,5405905.0,5406085.0,5406739.0,5407420.0,5407909.0,5407849.0,5407830.020:23:37,5407771.0,5408405.0,5408323.0,5408410.0,5407888.0,5408358.0,5408555.0,5408658.0,5408709.0,5406493.0,5407877.0,5407153.0,5408372.0,5408275.0,5408201.0,5407853.0,5407571.0,5407158.0,5406730.0,5406442.0,5406507.0,5406940.0,5407370.0,5408212.0,5408439.0,5408425.0,5408323.0,5408651.0,5408705.0,5408868.0,5408915.0,5409201.0,5409297.0,5409476.0,5409661.0,5409118.0,5409616.0,5409740.0,5410149.0,5410072.0,5408459.0,5409546.0,5408566.0,5410005.0,5409949.0,5410033.0,5409863.0,5409640.0,5409232.0,5408691.0,5408582.0,5408662.0,5408979.0,5409414.0,5410237.0,5410688.0,5410631.0,5410800.0,5410828.0,5411012.0,5411347.0,5411444.0,5411550.0,5411620.0,5411855.0,5411382.0,5411429.0,5411851.0,5412004.0,5412054.0,5411700.0,5409666.0,5414829.0,5411772.0,5411810.0,5411938.0,5411680.0,5411225.0,5411045.0,5410504.0,5410094.0,5409968.0,5410041.0,5410362.0,5410948.0,5411497.0,5411606.0,5411472.0,5411491.0,5411530.0,5411851.0,5411682.0,5411684.0,5411917.0,5412121.0,5411608.0,5411499.0,5411761.0,5411809.0,5411951.020:23:39,5410256.0,5411065.0,5410820.0,5410684.0,5410100.0,5409586.0,5409280.0,5409147.0,5409191.0,5409372.0,5409961.0,5410626.0,5410823.0,5410721.0,5410580.0,5410610.0,5410834.0,5410929.0,5410890.0,5411241.0,5410646.0,5410605.0,5411050.0,5411114.0,5411093.0,5410292.0,5409657.0,5412725.0,5410894.0,5410698.0,5410395.0,5410434.0,5409979.0,5409662.0,5409103.0,5408808.0,5408624.0,5409106.0,5409211.0,5409894.0,5410332.0,5410662.0,5410459.0,5410490.0,5410753.0,5410774.0,5411041.0,5410991.0,5411354.0,5411182.0,5411399.0,5410726.0,5411115.0,5411429.0,5411556.0,5411642.0,5410345.0,5411023.0,5410541.0,5411322.0,5411309.0,5411110.0,5410780.0,5410411.0,5410105.0,5409556.0,5409149.0,5409292.0,5409371.0,5409637.0,5410509.0,5410842.0,5410788.0,5410692.0,5410771.0,5410969.0,5411043.0,5411219.0,5411280.0,5411305.0,5411396.0,5410685.0,5410971.0,5411538.0,5411515.0,5411552.0,5411165.0,5409650.0,5413334.0,5411278.0,5411120.0,5410917.0,5410857.0,5410511.0,5410115.0,5409654.0,5409223.0,5409234.0,5409456.0,5409525.020:23:42,5410194.0,5411055.0,5411052.0,5411162.0,5411148.0,5411246.0,5411400.0,5411580.0,5410839.0,5411180.0,5411640.0,5411787.0,5411868.0,5411097.0,5409854.0,5414452.0,5411705.0,5411367.0,5411384.0,5411329.0,5410890.0,5410645.0,5409992.0,5409748.0,5409593.0,5410163.0,5410182.0,5410675.0,5411297.0,5411364.0,5411533.0,5411312.0,5411466.0,5411651.0,5411854.0,5411924.0,5411922.0,5412048.0,5411386.0,5411668.0,5412116.0,5412272.0,5412343.0,5412181.0,5410376.0,5414306.0,5412157.0,5412103.0,5411935.0,5411797.0,5411314.0,5411199.0,5410473.0,5410301.0,5410151.0,5410438.0,5410612.0,5411303.0,5411705.0,5411960.0,5412003.0,5411880.0,5411987.0,5412436.0,5412220.0,5412487.0,5412498.0,5412509.0,5412096.0,5412058.0,5412660.0,5412755.0,5412865.0,5413023.0,5410698.0,5413324.0,5412253.0,5412512.0,5412249.0,5412006.0,5412000.0,5411442.0,5411066.0,5410543.0,5410250.0,5410513.0,5410649.0,5411323.0,5412001.0,5412268.0,5412153.0,5412018.0,5412182.0,5412405.0,5412627.0,5412643.0,5412698.0,5412725.0,5412829.0,5412884.020:23:44,5412576.0,5412958.0,5413132.0,5410926.0,5412917.0,5411954.0,5412718.0,5412872.0,5412302.0,5412227.0,5411875.0,5411454.0,5410831.0,5410478.0,5410677.0,5410770.0,5411272.0,5411942.0,5412289.0,5412279.0,5412366.0,5412296.0,5412563.0,5412681.0,5412682.0,5412827.0,5412962.0,5412818.0,5412838.0,5412923.0,5412731.0,5412228.0,5412533.0,5412989.0,5413080.0,5413260.0,5412566.0,5411242.0,5414445.0,5412991.0,5412746.0,5412561.0,5412370.0,5412046.0,5411671.0,5411120.0,5410730.0,5410840.0,5410955.0,5411345.0,5411629.0,5412364.0,5412381.0,5412435.0,5412446.0,5412356.0,5412604.0,5412844.0,5412933.0,5412921.0,5412871.0,5412955.0,5412856.0,5412442.0,5412504.0,5413010.0,5413145.0,5413278.0,5413350.0,5410410.0,5414673.0,5412284.0,5412787.0,5412877.0,5412272.0,5412281.0,5411805.0,5411263.0,5411049.0,5410527.0,5410961.0,5411103.0,5411561.0,5412122.0,5412454.0,5412455.0,5412330.0,5412585.0,5412575.0,5412346.0,5412677.0,5412708.0,5412748.0,5412702.0,5412240.0,5412099.0,5412798.0,5412937.0,5412980.0,5413106.020:23:46,5410529.0,5412446.0,5411894.0,5411548.0,5411123.0,5410294.0,5410405.0,5410366.0,5410608.0,5411467.0,5412161.0,5412481.0,5412373.0,5412306.0,5412440.0,5412498.0,5412577.0,5412626.0,5412735.0,5412665.0,5412708.0,5412264.0,5412208.0,5412757.0,5413051.0,5412995.0,5413245.0,5411009.0,5413833.0,5412453.0,5412474.0,5412545.0,5412345.0,5412158.0,5411605.0,5410972.0,5410537.0,5410176.0,5410395.0,5410647.0,5411324.0,5412169.0,5412465.0,5412180.0,5412323.0,5412338.0,5412491.0,5412639.0,5412798.0,5412794.0,5412824.0,5412676.0,5412122.0,5412643.0,5412796.0,5413103.0,5413200.0,5412228.0,5411314.0,5412301.0,5412757.0,5412444.0,5412362.0,5412282.0,5411689.0,5411317.0,5410389.0,5410328.0,5410355.0,5410582.0,5411045.0,5411837.0,5412428.0,5412241.0,5412208.0,5412122.0,5412389.0,5412433.0,5412582.0,5412680.0,5412553.0,5412614.0,5412263.0,5412387.0,5412933.0,5412825.0,5413169.0,5412391.0,5410760.0,5415504.0,5412733.0,5412520.0,5412652.0,5412093.0,5411703.0,5411373.0,5411097.0,5410366.0,5410476.0,5410653.020:23:48,5410956.0,5412303.0,5412187.0,5412625.0,5412520.0,5412601.0,5412547.0,5412589.0,5412157.0,5412124.0,5412679.0,5412904.0,5413072.0,5413140.0,5410691.0,5413612.0,5412118.0,5412535.0,5412488.0,5412265.0,5411874.0,5411580.0,5410829.0,5410429.0,5410143.0,5410345.0,5410646.0,5411422.0,5412054.0,5412201.0,5412273.0,5412199.0,5412141.0,5412296.0,5412430.0,5412553.0,5412596.0,5412476.0,5411964.0,5412557.0,5412679.0,5412849.0,5412952.0,5412277.0,5411160.0,5414262.0,5412409.0,5412364.0,5412264.0,5411946.0,5411685.0,5411021.0,5410420.0,5410033.0,5409924.0,5410132.0,5410728.0,5411663.0,5412075.0,5412051.0,5412017.0,5412083.0,5412061.0,5412281.0,5412365.0,5412459.0,5412533.0,5412340.0,5412121.0,5412016.0,5412347.0,5412732.0,5412773.0,5412936.0,5410865.0,5411325.0,5411197.0,5412255.0,5412354.0,5412001.0,5411759.0,5411334.0,5410820.0,5410202.0,5409855.0,5409990.0,5410125.0,5411004.0,5411706.0,5411915.0,5412012.0,5411860.0,5411957.0,5412024.0,5412125.0,5412231.0,5412275.0,5412194.0,5412114.0,5411661.020:23:50,5411898.0,5409735.0,5413350.0,5411416.0,5412135.0,5412022.0,5411764.0,5411463.0,5411139.0,5410599.0,5410046.0,5409925.0,5410028.0,5410251.0,5410885.0,5411593.0,5411970.0,5411809.0,5411765.0,5411749.0,5411958.0,5412039.0,5412136.0,5412223.0,5412130.0,5411882.0,5411722.0,5412009.0,5412413.0,5412463.0,5412601.0,5411478.0,5411279.0,5411841.0,5412099.0,5412066.0,5411900.0,5411574.0,5411210.0,5410605.0,5410070.0,5409669.0,5409736.0,5409913.0,5410562.0,5411440.0,5411880.0,5411852.0,5411768.0,5411760.0,5411871.0,5412072.0,5412179.0,5412248.0,5412175.0,5412191.0,5411733.0,5411813.0,5412405.0,5412537.0,5412523.0,5412722.0,5409642.0,5413039.0,5412264.0,5412230.0,5412084.0,5411845.0,5411491.0,5411020.0,5410465.0,5409863.0,5409616.0,5409814.0,5410131.0,5411112.0,5411818.0,5411937.0,5411831.0,5411851.0,5411887.0,5412082.0,5412234.0,5412270.0,5412309.0,5412323.0,5412254.0,5412327.0,5411761.0,5411899.0,5412544.0,5412504.0,5412652.0,5412970.0,5409900.0,5413334.0,5412248.0,5412186.0,5412130.0,5411871.020:23:52,5411561.0,5409797.0,5410108.0,5410591.0,5411631.0,5412060.0,5412104.0,5412038.0,5412125.0,5412292.0,5412453.0,5412592.0,5412649.0,5412704.0,5412913.0,5412946.0,5413092.0,5412838.0,5412556.0,5413028.0,5413431.0,5413599.0,5413665.0,5412856.0,5411662.0,5414125.0,5413741.0,5413571.0,5413480.0,5413341.0,5413012.0,5412654.0,5412003.0,5411679.0,5411864.0,5411993.0,5412614.0,5413494.0,5413959.0,5414208.0,5414239.0,5414175.0,5414252.0,5414483.0,5414658.0,5414693.0,5414806.0,5414892.0,5414868.0,5414906.0,5414383.0,5414540.0,5415234.0,5415338.0,5415365.0,5415070.0,5412760.0,5417345.0,5415201.0,5414964.0,5414845.0,5414687.0,5414353.0,5413927.0,5413299.0,5412749.0,5412533.0,5412796.0,5413230.0,5414102.0,5414855.0,5414885.0,5414837.0,5414859.0,5414866.0,5415004.0,5415072.0,5415178.0,5415307.0,5415372.0,5415324.0,5415278.0,5415055.0,5414860.0,5415165.0,5415475.0,5415542.0,5415682.0,5414034.0,5414350.0,5414008.0,5415205.0,5415030.0,5414873.0,5414596.0,5414186.0,5413648.0,5412918.0,5412487.0,5412511.020:23:55,5412774.0,5414863.0,5414811.0,5414765.0,5415038.0,5415066.0,5415135.0,5415081.0,5415156.0,5415224.0,5415224.0,5415273.0,5414687.0,5414627.0,5415225.0,5415390.0,5415434.0,5415763.0,5413053.0,5415910.0,5414802.0,5414957.0,5414804.0,5414613.0,5414241.0,5413839.0,5413305.0,5412636.0,5412244.0,5412384.0,5412737.0,5413476.0,5414482.0,5414604.0,5414605.0,5414506.0,5414596.0,5414621.0,5414792.0,5414830.0,5414910.0,5414908.0,5414850.0,5414992.0,5414473.0,5414428.0,5414859.0,5414976.0,5415185.0,5415285.0,5412302.0,5415493.0,5413769.0,5414635.0,5414620.0,5414348.0,5414002.0,5413579.0,5413081.0,5412452.0,5412115.0,5412271.0,5412458.0,5413106.0,5414156.0,5414397.0,5414325.0,5414243.0,5414189.0,5414311.0,5414399.0,5414537.0,5414495.0,5414584.0,5414587.0,5414311.0,5414009.0,5414197.0,5414722.0,5414811.0,5414745.0,5414045.0,5412666.0,5416571.0,5414587.0,5414376.0,5414139.0,5413931.0,5413542.0,5413091.0,5412373.0,5411827.0,5411707.0,5411944.0,5412583.0,5413649.0,5414098.0,5414115.0,5413960.0,5413936.020:23:57,5413991.0,5414627.0,5414336.0,5414373.0,5413967.0,5413878.0,5414410.0,5414629.0,5414631.0,5412890.0,5412247.0,5414528.0,5413854.0,5414246.0,5414053.0,5413789.0,5413589.0,5413138.0,5412492.0,5411762.0,5411395.0,5411605.0,5412066.0,5412855.0,5413798.0,5413977.0,5413936.0,5413894.0,5413880.0,5414030.0,5414113.0,5414187.0,5414249.0,5414327.0,5414278.0,5414385.0,5414260.0,5414264.0,5413794.0,5413786.0,5414366.0,5414520.0,5414539.0,5414944.0,5412181.0,5414902.0,5413876.0,5414195.0,5414034.0,5413783.0,5413421.0,5413082.0,5412427.0,5411771.0,5411360.0,5411532.0,5411845.0,5412656.0,5413636.0,5413846.0,5413797.0,5413596.0,5413691.0,5413889.0,5413961.0,5414042.0,5414198.0,5414284.0,5414268.0,5414208.0,5414362.0,5414127.0,5413644.0,5414123.0,5414603.0,5414673.0,5414814.0,5414111.0,5412345.0,5416692.0,5414723.0,5414583.0,5414523.0,5414342.0,5414083.0,5413698.0,5413032.0,5412565.0,5412717.0,5413070.0,5413652.0,5414739.0,5415507.0,5415576.0,5415717.0,5415743.0,5415938.0,5416077.0,5416361.0,5416468.020:23:59,5416646.0,5416363.0,5416555.0,5417136.0,5417189.0,5417227.0,5416726.0,5414542.0,5419706.0,5416773.0,5416490.0,5416343.0,5415989.0,5415671.0,5415130.0,5414463.0,5413731.0,5413489.0,5413716.0,5414170.0,5415087.0,5415737.0,5415737.0,5415554.0,5415359.0,5415303.0,5415438.0,5415476.0,5415628.0,5415501.0,5415604.0,5415467.0,5415240.0,5414828.0,5415244.0,5415557.0,5415603.0,5415607.0,5414882.0,5413565.0,5416650.0,5415377.0,5415142.0,5414985.0,5414634.0,5414350.0,5413858.0,5413082.0,5412437.0,5412310.0,5412547.0,5413305.0,5414390.0,5415015.0,5415087.0,5414921.0,5415033.0,5415061.0,5415203.0,5415244.0,5415362.0,5415378.0,5415478.0,5415503.0,5415407.0,5415133.0,5414858.0,5415408.0,5415658.0,5415703.0,5415876.0,5414526.0,5414404.0,5414401.0,5415349.0,5415328.0,5415030.0,5414848.0,5414367.0,5413821.0,5413197.0,5412532.0,5412573.0,5412879.0,5413729.0,5414826.0,5415208.0,5415198.0,5415119.0,5415157.0,5415277.0,5415341.0,5415525.0,5415537.0,5415598.0,5415643.0,5415542.0,5415557.0,5415012.0,5415122.020:24:01,5415750.0,5413554.0,5416291.0,5415590.0,5415386.0,5415203.0,5414957.0,5414674.0,5414123.0,5413378.0,5412801.0,5412686.0,5412938.0,5413616.0,5414746.0,5415197.0,5415333.0,5415210.0,5415170.0,5415229.0,5415402.0,5415463.0,5415649.0,5415474.0,5415577.0,5415596.0,5415589.0,5414995.0,5415350.0,5415755.0,5415789.0,5415900.0,5415155.0,5413363.0,5418531.0,5415643.0,5415381.0,5415181.0,5415011.0,5414567.0,5414128.0,5413433.0,5412955.0,5412826.0,5412919.0,5413510.0,5414503.0,5415185.0,5415136.0,5415164.0,5415077.0,5415100.0,5415155.0,5415337.0,5415468.0,5415486.0,5415493.0,5415220.0,5415016.0,5415353.0,5415711.0,5415785.0,5415854.0,5414223.0,5415195.0,5414233.0,5415296.0,5415286.0,5415061.0,5414851.0,5414433.0,5413794.0,5413085.0,5412621.0,5412639.0,5413096.0,5414027.0,5415086.0,5415266.0,5415356.0,5415286.0,5415259.0,5415315.0,5415518.0,5415634.0,5415497.0,5415717.0,5415099.0,5415197.0,5415797.0,5415973.0,5416041.0,5416401.0,5413608.0,5416436.0,5415696.0,5415646.0,5415535.0,5415284.0,5414966.020:24:03,5414563.0,5413293.0,5414256.0,5415258.0,5415667.0,5415685.0,5415572.0,5415604.0,5415599.0,5415754.0,5415940.0,5415930.0,5415696.0,5415539.0,5415898.0,5416169.0,5416308.0,5416470.0,5415337.0,5414263.0,5415208.0,5415920.0,5415816.0,5415669.0,5415393.0,5414926.0,5414413.0,5413612.0,5413196.0,5413174.0,5413456.0,5414451.0,5415447.0,5415827.0,5415848.0,5415744.0,5415751.0,5415757.0,5415862.0,5415867.0,5416110.0,5415431.0,5415663.0,5416241.0,5416388.0,5416399.0,5416606.0,5413589.0,5418014.0,5415878.0,5415984.0,5415840.0,5415639.0,5415206.0,5414856.0,5414293.0,5413707.0,5413462.0,5413681.0,5414223.0,5415239.0,5415896.0,5416056.0,5416030.0,5415983.0,5416164.0,5416212.0,5416335.0,5416421.0,5416599.0,5416327.0,5416289.0,5416558.0,5417053.0,5417155.0,5417439.0,5415863.0,5416147.0,5415906.0,5417054.0,5417002.0,5416926.0,5416708.0,5416237.0,5415679.0,5415125.0,5414649.0,5414768.0,5415258.0,5416219.0,5417220.0,5417471.0,5417433.0,5417239.0,5417287.0,5417437.0,5417613.0,5417765.0,5417744.0,5417850.020:24:05,5417445.0,5418433.0,5418046.0,5416088.0,5419886.0,5418316.0,5418204.0,5418029.0,5417794.0,5417347.0,5416807.0,5416263.0,5415648.0,5415391.0,5415634.0,5416296.0,5417333.0,5417839.0,5417877.0,5417714.0,5417603.0,5417595.0,5417638.0,5417825.0,5417794.0,5417696.0,5417739.0,5417640.0,5417564.0,5417456.0,5417473.0,5416767.0,5416697.0,5417097.0,5417327.0,5417246.0,5417591.0,5414852.0,5416641.0,5416099.0,5416424.0,5416269.0,5415922.0,5415660.0,5415060.0,5414416.0,5413698.0,5413215.0,5413194.0,5413486.0,5414343.0,5415195.0,5415481.0,5415448.0,5415305.0,5415142.0,5415347.0,5415522.0,5415533.0,5415495.0,5415631.0,5415508.0,5415524.0,5415480.0,5415565.0,5415368.0,5414914.0,5414882.0,5415477.0,5415527.0,5415684.0,5415894.0,5412805.0,5416196.0,5414582.0,5415000.0,5414980.0,5414792.0,5414380.0,5414095.0,5413353.0,5412629.0,5412243.0,5412133.0,5412785.0,5413521.0,5414545.0,5414756.0,5414675.0,5414561.0,5414617.0,5414535.0,5414705.0,5414827.0,5414874.0,5414940.0,5414922.0,5414905.0,5414997.0,5414994.020:24:08,5414676.0,5415216.0,5414953.0,5412465.0,5416750.0,5414912.0,5414854.0,5414664.0,5414486.0,5414229.0,5413764.0,5413128.0,5412493.0,5412206.0,5412303.0,5412808.0,5413790.0,5414691.0,5414820.0,5414723.0,5414498.0,5414550.0,5414629.0,5414761.0,5414881.0,5414972.0,5415071.0,5415061.0,5415040.0,5415121.0,5415046.0,5414859.0,5414692.0,5414988.0,5415292.0,5415437.0,5415555.0,5413912.0,5413625.0,5413780.0,5414981.0,5414998.0,5414825.0,5414452.0,5414189.0,5413582.0,5412923.0,5412359.0,5412309.0,5412608.0,5413475.0,5414469.0,5415065.0,5415086.0,5414894.0,5414941.0,5415080.0,5415195.0,5415269.0,5415297.0,5415405.0,5415449.0,5415605.0,5415544.0,5415641.0,5415566.0,5415515.0,5414973.0,5415245.0,5415778.0,5415860.0,5415927.0,5416296.0,5413256.0,5416667.0,5415535.0,5415516.0,5415572.0,5415402.0,5414975.0,5414556.0,5413975.0,5413359.0,5413041.0,5413172.0,5413501.0,5414470.0,5415474.0,5415641.0,5415638.0,5415518.0,5415511.0,5415581.0,5415776.0,5415780.0,5415967.0,5416083.0,5415960.0,5416127.0,5416140.020:24:10,5416000.0,5416278.0,5416408.0,5415659.0,5414017.0,5418214.0,5416204.0,5416051.0,5415859.0,5415764.0,5415443.0,5414897.0,5414317.0,5413704.0,5413502.0,5413702.0,5414187.0,5415234.0,5416022.0,5416129.0,5416047.0,5415978.0,5415923.0,5415998.0,5416188.0,5416319.0,5416362.0,5416355.0,5416420.0,5416439.0,5416092.0,5415919.0,5416218.0,5416650.0,5416707.0,5416771.0,5415973.0,5414385.0,5416115.0,5416478.0,5416329.0,5416160.0,5415993.0,5415728.0,5415110.0,5414493.0,5413867.0,5413707.0,5413940.0,5414682.0,5415789.0,5416390.0,5416397.0,5416300.0,5416189.0,5416251.0,5416418.0,5416462.0,5416661.0,5416688.0,5416676.0,5416795.0,5416765.0,5416697.0,5416214.0,5416262.0,5416847.0,5416979.0,5417064.0,5417377.0,5414150.0,5417393.0,5416775.0,5416650.0,5416501.0,5416274.0,5415970.0,5415558.0,5414939.0,5414199.0,5413919.0,5414095.0,5414567.0,5415638.0,5416476.0,5416628.0,5416583.0,5416395.0,5416416.0,5416572.0,5416749.0,5416786.0,5416892.0,5416913.0,5417046.0,5416982.0,5416964.0,5416912.0,5416384.0,5416461.020:24:12,5417060.0,5414834.0,5418369.0,5416970.0,5416855.0,5416669.0,5416494.0,5416177.0,5415616.0,5415059.0,5414494.0,5414287.0,5414514.0,5414834.0,5415914.0,5416669.0,5416719.0,5416563.0,5416410.0,5416536.0,5416639.0,5416878.0,5416871.0,5416901.0,5416925.0,5417002.0,5416887.0,5416721.0,5416486.0,5416873.0,5417107.0,5417262.0,5417338.0,5415798.0,5416755.0,5415975.0,5416860.0,5416827.0,5416610.0,5416349.0,5416009.0,5415540.0,5414827.0,5414338.0,5414437.0,5414619.0,5415286.0,5416360.0,5416773.0,5416766.0,5416617.0,5416547.0,5416616.0,5416836.0,5416882.0,5416988.0,5417043.0,5417050.0,5417000.0,5416798.0,5416460.0,5416702.0,5417094.0,5417177.0,5417312.0,5416788.0,5415026.0,5418565.0,5417097.0,5416892.0,5416755.0,5416507.0,5416187.0,5415727.0,5415111.0,5414408.0,5414210.0,5414366.0,5414985.0,5415983.0,5416778.0,5416903.0,5416705.0,5416649.0,5416688.0,5416785.0,5416878.0,5416984.0,5417066.0,5417030.0,5417088.0,5417182.0,5417066.0,5416928.0,5416504.0,5416798.0,5417263.0,5417373.0,5417440.0,5416789.020:24:14,5415322.0,5416605.0,5416383.0,5415889.0,5415322.0,5414579.0,5414329.0,5414375.0,5414662.0,5415602.0,5416527.0,5416860.0,5416766.0,5416607.0,5416630.0,5416723.0,5416879.0,5416985.0,5416958.0,5417097.0,5417086.0,5416976.0,5417072.0,5416786.0,5416389.0,5416709.0,5417135.0,5417254.0,5417258.0,5416816.0,5414738.0,5419464.0,5416947.0,5416906.0,5416637.0,5416488.0,5416155.0,5415700.0,5415009.0,5414353.0,5414206.0,5414493.0,5414858.0,5415799.0,5416546.0,5416651.0,5416523.0,5416545.0,5416584.0,5416649.0,5416703.0,5416849.0,5416844.0,5416924.0,5416879.0,5416722.0,5416385.0,5416640.0,5417042.0,5417139.0,5417274.0,5416744.0,5414464.0,5419435.0,5416928.0,5416776.0,5416614.0,5416463.0,5416144.0,5415567.0,5414967.0,5414342.0,5414192.0,5414356.0,5414938.0,5415967.0,5416686.0,5416755.0,5416711.0,5416531.0,5416539.0,5416641.0,5416723.0,5416904.0,5416875.0,5416823.0,5416768.0,5416489.0,5416509.0,5417178.0,5417143.0,5417302.0,5416854.0,5414659.0,5418638.0,5417015.0,5416705.0,5416703.0,5416319.0,5415990.020:24:16,5415664.0,5414490.0,5415280.0,5416379.0,5416709.0,5416690.0,5416526.0,5416563.0,5416490.0,5416637.0,5416815.0,5416902.0,5416976.0,5416954.0,5416994.0,5416753.0,5416355.0,5416619.0,5417075.0,5417156.0,5417192.0,5416720.0,5414804.0,5418628.0,5417022.0,5416857.0,5416654.0,5416418.0,5415988.0,5415667.0,5414919.0,5414330.0,5414016.0,5414271.0,5414759.0,5415832.0,5416636.0,5416664.0,5416595.0,5416601.0,5416545.0,5416486.0,5416736.0,5416801.0,5416846.0,5416942.0,5417063.0,5416985.0,5416964.0,5416668.0,5416491.0,5416798.0,5417164.0,5417172.0,5417246.0,5416250.0,5414913.0,5416858.0,5416939.0,5416727.0,5416545.0,5416316.0,5416030.0,5415392.0,5414758.0,5414299.0,5414282.0,5414411.0,5415118.0,5415949.0,5416653.0,5416678.0,5416593.0,5416508.0,5416455.0,5416590.0,5416657.0,5416694.0,5416855.0,5416838.0,5416821.0,5416558.0,5416562.0,5416724.0,5417087.0,5417113.0,5417230.0,5416053.0,5416110.0,5415858.0,5416759.0,5416743.0,5416481.0,5416249.0,5415913.0,5415290.0,5414615.0,5414093.0,5414173.0,5414461.020:24:18,5415289.0,5416469.0,5416561.0,5416633.0,5416716.0,5416843.0,5416858.0,5416886.0,5416998.0,5416870.0,5416526.0,5416479.0,5416918.0,5417217.0,5417201.0,5417440.0,5414718.0,5416648.0,5416056.0,5416841.0,5416717.0,5416543.0,5416263.0,5415748.0,5415155.0,5414421.0,5414028.0,5414110.0,5414541.0,5415466.0,5416484.0,5416769.0,5416759.0,5416559.0,5416618.0,5416669.0,5416704.0,5416943.0,5416994.0,5417093.0,5417138.0,5417039.0,5416824.0,5416642.0,5417023.0,5417313.0,5417316.0,5417492.0,5416247.0,5415531.0,5416082.0,5416933.0,5416890.0,5416735.0,5416333.0,5415997.0,5415403.0,5414694.0,5414105.0,5414260.0,5414476.0,5415335.0,5416375.0,5416910.0,5416784.0,5416635.0,5416598.0,5416628.0,5416736.0,5416736.0,5416909.0,5416931.0,5417009.0,5416993.0,5416898.0,5416351.0,5416488.0,5417015.0,5417073.0,5417122.0,5417425.0,5413888.0,5418786.0,5416694.0,5416641.0,5416596.0,5416451.0,5416014.0,5415636.0,5414969.0,5414177.0,5414059.0,5414172.0,5414752.0,5415556.0,5416471.0,5416697.0,5416482.0,5416389.0,5416260.020:24:21,5416454.0,5416735.0,5416709.0,5416418.0,5416359.0,5416558.0,5416905.0,5417059.0,5417148.0,5416172.0,5414900.0,5417009.0,5416723.0,5416619.0,5416391.0,5416183.0,5415785.0,5415231.0,5414629.0,5413996.0,5413896.0,5414305.0,5415022.0,5416094.0,5416639.0,5416747.0,5416603.0,5416402.0,5416468.0,5416649.0,5416722.0,5416807.0,5416843.0,5416843.0,5416940.0,5416940.0,5416612.0,5416369.0,5416675.0,5417071.0,5417141.0,5417268.0,5416589.0,5414753.0,5418576.0,5416856.0,5416632.0,5416557.0,5416252.0,5415953.0,5415408.0,5414701.0,5414118.0,5414008.0,5414181.0,5414757.0,5415936.0,5416590.0,5416662.0,5416546.0,5416486.0,5416490.0,5416522.0,5416669.0,5416780.0,5416825.0,5416883.0,5416876.0,5416831.0,5416893.0,5416858.0,5416648.0,5416204.0,5416530.0,5416898.0,5417049.0,5417105.0,5416834.0,5414860.0,5418578.0,5416775.0,5416638.0,5416432.0,5416342.0,5415817.0,5415388.0,5414734.0,5414046.0,5413806.0,5413985.0,5414498.0,5415615.0,5416466.0,5416477.0,5416473.0,5416312.0,5416358.0,5416337.0,5416452.0,5416549.020:24:23,5416616.0,5416799.0,5416680.0,5416451.0,5416176.0,5416481.0,5416791.0,5416806.0,5416874.0,5415689.0,5414814.0,5417160.0,5416556.0,5416338.0,5416262.0,5415853.0,5415661.0,5415171.0,5414341.0,5413738.0,5413635.0,5413915.0,5414563.0,5415637.0,5416291.0,5416270.0,5416223.0,5416122.0,5416076.0,5416185.0,5416347.0,5416383.0,5416443.0,5416503.0,5416452.0,5416503.0,5416217.0,5416013.0,5416121.0,5416614.0,5416674.0,5416825.0,5416308.0,5414056.0,5418125.0,5416398.0,5416328.0,5416212.0,5416008.0,5415575.0,5415191.0,5414360.0,5413745.0,5413512.0,5413691.0,5414442.0,5415528.0,5416290.0,5416356.0,5416297.0,5416115.0,5416153.0,5416225.0,5416257.0,5416453.0,5416387.0,5416542.0,5416489.0,5416543.0,5416511.0,5416066.0,5416024.0,5416488.0,5416696.0,5416727.0,5417030.0,5413946.0,5416383.0,5415482.0,5416286.0,5416154.0,5416031.0,5415737.0,5415272.0,5414682.0,5413944.0,5413388.0,5413483.0,5413895.0,5414941.0,5416032.0,5416216.0,5416248.0,5416113.0,5416067.0,5416027.0,5416163.0,5416284.0,5416323.0,5416366.020:24:25,5416425.0,5415687.0,5416170.0,5416548.0,5416646.0,5416688.0,5415929.0,5414161.0,5418619.0,5416234.0,5416148.0,5415924.0,5415678.0,5415391.0,5414845.0,5414167.0,5413453.0,5413268.0,5413495.0,5414197.0,5415135.0,5415879.0,5416039.0,5415943.0,5415770.0,5415709.0,5415866.0,5415887.0,5416086.0,5416121.0,5416111.0,5416081.0,5416033.0,5415758.0,5415482.0,5415873.0,5416163.0,5416169.0,5416369.0,5414778.0,5415823.0,5414892.0,5415880.0,5415777.0,5415587.0,5415317.0,5414961.0,5414328.0,5413692.0,5413150.0,5413156.0,5413517.0,5414385.0,5415371.0,5415783.0,5415768.0,5415635.0,5415566.0,5415551.0,5415628.0,5415701.0,5415831.0,5415868.0,5415891.0,5415656.0,5415457.0,5415750.0,5416216.0,5416169.0,5416210.0,5415184.0,5413661.0,5415359.0,5415853.0,5415684.0,5415569.0,5415251.0,5414841.0,5414304.0,5413479.0,5412912.0,5412935.0,5413216.0,5414158.0,5415281.0,5415778.0,5415738.0,5415585.0,5415541.0,5415538.0,5415540.0,5415721.0,5415739.0,5415726.0,5415876.0,5415519.0,5415304.0,5415614.0,5416010.0,5416001.020:24:27,5416133.0,5415667.0,5415595.0,5415372.0,5415097.0,5414522.0,5413942.0,5413196.0,5412687.0,5412736.0,5413203.0,5414289.0,5415351.0,5415623.0,5415596.0,5415410.0,5415353.0,5415408.0,5415473.0,5415551.0,5415690.0,5415731.0,5415650.0,5415497.0,5415215.0,5415506.0,5416154.0,5415885.0,5416017.0,5414937.0,5413070.0,5414946.0,5415484.0,5415435.0,5415217.0,5414907.0,5414480.0,5414028.0,5413285.0,5412682.0,5412571.0,5412940.0,5413729.0,5414801.0,5415237.0,5415327.0,5415122.0,5414966.0,5415046.0,5415172.0,5415252.0,5415357.0,5415231.0,5415180.0,5414754.0,5414874.0,5415277.0,5415471.0,5415625.0,5415829.0,5412609.0,5416244.0,5414166.0,5415082.0,5414908.0,5414713.0,5414461.0,5414029.0,5413446.0,5412639.0,5412319.0,5412475.0,5412894.0,5414056.0,5414781.0,5415057.0,5415161.0,5414918.0,5414808.0,5414780.0,5414862.0,5415057.0,5415187.0,5415101.0,5414823.0,5414637.0,5414997.0,5415356.0,5415378.0,5415512.0,5414484.0,5413060.0,5414220.0,5415025.0,5414934.0,5414759.0,5414438.0,5414136.0,5413492.0,5412809.020:24:29,5412159.0,5414823.0,5414993.0,5414902.0,5414723.0,5414801.0,5414822.0,5415023.0,5415031.0,5415155.0,5415031.0,5415089.0,5414599.0,5414691.0,5415013.0,5415334.0,5415421.0,5415667.0,5412720.0,5414058.0,5413843.0,5414893.0,5414823.0,5414669.0,5414298.0,5413850.0,5413313.0,5412541.0,5412058.0,5412175.0,5412568.0,5413637.0,5414703.0,5414954.0,5414870.0,5414764.0,5414714.0,5414635.0,5414907.0,5414928.0,5415007.0,5414922.0,5414963.0,5414990.0,5414462.0,5414582.0,5415050.0,5415233.0,5415278.0,5415617.0,5412490.0,5415611.0,5414265.0,5414734.0,5414660.0,5414438.0,5414060.0,5413655.0,5412953.0,5412300.0,5411901.0,5411944.0,5412452.0,5413454.0,5414439.0,5414558.0,5414530.0,5414339.0,5414335.0,5414337.0,5414451.0,5414554.0,5414551.0,5414650.0,5414565.0,5414292.0,5414011.0,5414337.0,5414674.0,5414817.0,5414907.0,5414215.0,5412122.0,5417087.0,5414526.0,5414285.0,5414143.0,5413848.0,5413469.0,5413054.0,5412344.0,5411723.0,5411557.0,5411783.0,5412603.0,5413655.0,5414144.0,5414386.0,5414262.0,5414103.020:24:31,5413932.0,5414264.0,5414226.0,5414034.0,5414019.0,5414380.0,5414597.0,5414647.0,5414844.0,5412558.0,5413471.0,5413048.0,5414335.0,5414199.0,5413936.0,5413767.0,5413224.0,5412784.0,5411909.0,5411448.0,5411548.0,5412088.0,5413164.0,5414054.0,5414318.0,5414248.0,5414189.0,5414083.0,5414069.0,5414160.0,5414254.0,5414375.0,5414330.0,5414423.0,5414414.0,5414069.0,5413998.0,5414250.0,5414535.0,5414683.0,5414772.0,5413725.0,5412275.0,5413587.0,5414212.0,5414154.0,5413986.0,5413767.0,5413370.0,5412753.0,5412028.0,5411389.0,5411430.0,5411743.0,5412748.0,5413803.0,5414125.0,5414154.0,5414127.0,5413982.0,5414001.0,5414064.0,5414188.0,5414160.0,5414325.0,5414284.0,5414447.0,5414425.0,5414115.0,5413826.0,5414262.0,5414555.0,5414493.0,5414502.0,5413943.0,5411730.0,5414382.0,5414139.0,5413992.0,5413792.0,5413531.0,5413175.0,5412620.0,5411919.0,5411243.0,5411126.0,5411411.0,5412265.0,5413330.0,5413839.0,5413882.0,5413749.0,5413599.0,5413685.0,5413648.0,5413795.0,5413843.0,5413991.0,5413943.0,5413906.020:24:34,5413630.0,5414171.0,5414211.0,5410816.0,5415544.0,5413392.0,5413582.0,5413548.0,5413300.0,5413004.0,5412521.0,5411883.0,5411149.0,5410851.0,5411019.0,5411670.0,5412689.0,5413483.0,5413622.0,5413627.0,5413473.0,5413354.0,5413385.0,5413470.0,5413562.0,5413760.0,5413667.0,5413613.0,5413192.0,5413221.0,5413852.0,5413915.0,5414002.0,5413946.0,5410683.0,5415311.0,5413559.0,5413579.0,5413525.0,5413151.0,5412856.0,5412438.0,5411808.0,5410938.0,5410664.0,5410853.0,5411780.0,5412931.0,5413489.0,5413644.0,5413559.0,5413467.0,5413385.0,5413463.0,5413510.0,5413687.0,5413763.0,5413729.0,5413549.0,5413263.0,5413504.0,5413968.0,5413957.0,5414102.0,5413253.0,5411264.0,5413248.0,5413656.0,5413586.0,5413382.0,5413360.0,5412692.0,5412207.0,5411414.0,5410766.0,5410639.0,5411126.0,5411973.0,5413148.0,5413540.0,5413572.0,5413407.0,5413341.0,5413398.0,5413546.0,5413490.0,5413657.0,5413770.0,5413786.0,5413427.0,5413160.0,5413438.0,5413823.0,5413997.0,5414087.0,5413328.0,5411189.0,5415709.0,5413699.0,5413492.020:24:36,5413328.0,5411101.0,5410675.0,5410739.0,5411305.0,5412255.0,5413097.0,5413401.0,5413353.0,5413257.0,5413253.0,5413246.0,5413434.0,5413437.0,5413456.0,5413550.0,5413465.0,5413123.0,5413072.0,5413402.0,5413673.0,5413680.0,5413671.0,5412614.0,5411711.0,5412683.0,5413328.0,5413237.0,5412866.0,5412793.0,5412262.0,5411867.0,5411145.0,5410582.0,5410500.0,5410735.0,5411629.0,5412668.0,5413096.0,5413100.0,5413069.0,5412872.0,5412942.0,5412990.0,5413022.0,5413156.0,5413059.0,5413058.0,5412625.0,5412747.0,5413144.0,5413343.0,5413453.0,5413597.0,5410896.0,5412870.0,5411892.0,5412916.0,5412897.0,5412782.0,5412449.0,5412022.0,5411387.0,5410632.0,5410304.0,5410276.0,5410816.0,5411901.0,5412886.0,5412987.0,5412976.0,5412778.0,5412714.0,5412816.0,5412861.0,5412961.0,5413088.0,5413073.0,5413119.0,5412627.0,5412671.0,5412952.0,5413217.0,5413359.0,5413471.0,5410944.0,5412224.0,5411468.0,5412973.0,5412810.0,5412645.0,5412335.0,5412029.0,5411319.0,5410509.0,5410062.0,5410140.0,5410670.0,5411698.0,5412632.020:24:38,5412907.0,5412875.0,5412911.0,5412994.0,5413080.0,5413088.0,5413101.0,5412824.0,5412507.0,5412865.0,5413269.0,5413233.0,5413284.0,5412857.0,5410809.0,5414877.0,5412785.0,5412825.0,5412684.0,5412412.0,5412000.0,5411563.0,5410807.0,5410198.0,5409887.0,5410159.0,5410859.0,5411886.0,5412631.0,5412701.0,5412481.0,5412420.0,5412338.0,5412566.0,5412509.0,5412606.0,5412710.0,5412688.0,5412700.0,5412842.0,5412482.0,5412171.0,5412491.0,5412804.0,5412832.0,5412983.0,5411463.0,5411755.0,5411894.0,5412402.0,5412395.0,5412121.0,5411878.0,5411535.0,5411004.0,5410323.0,5409760.0,5409701.0,5410082.0,5410899.0,5411968.0,5412230.0,5412258.0,5412235.0,5412065.0,5412030.0,5412136.0,5412240.0,5412288.0,5412345.0,5412236.0,5412342.0,5411705.0,5411915.0,5412420.0,5412461.0,5412550.0,5412709.0,5409459.0,5414004.0,5411949.0,5412023.0,5411960.0,5411901.0,5411542.0,5411041.0,5410416.0,5409782.0,5409449.0,5409631.0,5410211.0,5411203.0,5412084.0,5412222.0,5412071.0,5411997.0,5411907.0,5412020.0,5412084.0,5412270.020:24:40,5412365.0,5412559.0,5412548.0,5412699.0,5412006.0,5410037.0,5413126.0,5412298.0,5412192.0,5411998.0,5411594.0,5411372.0,5410830.0,5410132.0,5409467.0,5409379.0,5409724.0,5410590.0,5411736.0,5412194.0,5412249.0,5412160.0,5411938.0,5412049.0,5412048.0,5412207.0,5412283.0,5412340.0,5412300.0,5412089.0,5411762.0,5412168.0,5412511.0,5412536.0,5412655.0,5411655.0,5410074.0,5412508.0,5412233.0,5412119.0,5411981.0,5411695.0,5411213.0,5410689.0,5410034.0,5409332.0,5409334.0,5409568.0,5410438.0,5411532.0,5411869.0,5411885.0,5411839.0,5411778.0,5411780.0,5411873.0,5411984.0,5412089.0,5411960.0,5411997.0,5411466.0,5411630.0,5412051.0,5412207.0,5412262.0,5412511.0,5409155.0,5413502.0,5411452.0,5411812.0,5411621.0,5411406.0,5411049.0,5410651.0,5410129.0,5409412.0,5409051.0,5409259.0,5409678.0,5410801.0,5411520.0,5411635.0,5411549.0,5411482.0,5411438.0,5411448.0,5411523.0,5411563.0,5411670.0,5411467.0,5411123.0,5411476.0,5411890.0,5412040.0,5412025.0,5411277.0,5409496.0,5413630.0,5411717.0,5411608.020:24:42,5411395.0,5409253.0,5408879.0,5408900.0,5409517.0,5410535.0,5411424.0,5411548.0,5411489.0,5411492.0,5411341.0,5411372.0,5411471.0,5411686.0,5411604.0,5411456.0,5411078.0,5411517.0,5411965.0,5411855.0,5412017.0,5411283.0,5409657.0,5412479.0,5411675.0,5411462.0,5411279.0,5411070.0,5410687.0,5410196.0,5409502.0,5408832.0,5408643.0,5409062.0,5409925.0,5411014.0,5411439.0,5411440.0,5411257.0,5411207.0,5411201.0,5411379.0,5411392.0,5411609.0,5411537.0,5411632.0,5411000.0,5411236.0,5411759.0,5411852.0,5411911.0,5412306.0,5409124.0,5412907.0,5411168.0,5411379.0,5411263.0,5411033.0,5410669.0,5410203.0,5409560.0,5408852.0,5408453.0,5408620.0,5409325.0,5410342.0,5411158.0,5411269.0,5411118.0,5411069.0,5410999.0,5411147.0,5411230.0,5411318.0,5411339.0,5411395.0,5410977.0,5410758.0,5411209.0,5411604.0,5411599.0,5411621.0,5410724.0,5408934.0,5412701.0,5411251.0,5411059.0,5410885.0,5410542.0,5410204.0,5409712.0,5409009.0,5408472.0,5408416.0,5408629.0,5409337.0,5410540.0,5410828.0,5410848.0,5410858.020:24:44,5410711.0,5410960.0,5410904.0,5410634.0,5410415.0,5410644.0,5411103.0,5411119.0,5411228.0,5410539.0,5408524.0,5413410.0,5410845.0,5410576.0,5410535.0,5410302.0,5410056.0,5409461.0,5408804.0,5408256.0,5408106.0,5408379.0,5409163.0,5410188.0,5410691.0,5410762.0,5410634.0,5410523.0,5410509.0,5410601.0,5410698.0,5410868.0,5410823.0,5410523.0,5410380.0,5410767.0,5411066.0,5411072.0,5411124.0,5410381.0,5408806.0,5410653.0,5410841.0,5410721.0,5410534.0,5410331.0,5409844.0,5409356.0,5408631.0,5408101.0,5408003.0,5408339.0,5409412.0,5410289.0,5410726.0,5410733.0,5410614.0,5410535.0,5410463.0,5410597.0,5410708.0,5410815.0,5410777.0,5410821.0,5410175.0,5410325.0,5410940.0,5411063.0,5411114.0,5411357.0,5408155.0,5412023.0,5410646.0,5410649.0,5410477.0,5410245.0,5409831.0,5409392.0,5408870.0,5408145.0,5407792.0,5407976.0,5408736.0,5409867.0,5410567.0,5410613.0,5410453.0,5410377.0,5410401.0,5410456.0,5410529.0,5410626.0,5410697.0,5410774.0,5410407.0,5410072.0,5410477.0,5410840.0,5410880.0,5410979.020:24:47,5410261.0,5410244.0,5410028.0,5409688.0,5409228.0,5408586.0,5408005.0,5407568.0,5407727.0,5408152.0,5409261.0,5409946.0,5410211.0,5410105.0,5410027.0,5410041.0,5409959.0,5410113.0,5410176.0,5410271.0,5410378.0,5409881.0,5409754.0,5410075.0,5410331.0,5410402.0,5410416.0,5409610.0,5408392.0,5410696.0,5410148.0,5409933.0,5409816.0,5409550.0,5409248.0,5408669.0,5408001.0,5407427.0,5407416.0,5407743.0,5408510.0,5409481.0,5410010.0,5409935.0,5409777.0,5409785.0,5409712.0,5409862.0,5409913.0,5409961.0,5410087.0,5409561.0,5409754.0,5410157.0,5410333.0,5410373.0,5410504.0,5407170.0,5411573.0,5409877.0,5409981.0,5409705.0,5409643.0,5409296.0,5408818.0,5408087.0,5407409.0,5407224.0,5407499.0,5408192.0,5409276.0,5410059.0,5409982.0,5409949.0,5409805.0,5409753.0,5409855.0,5409895.0,5409948.0,5409978.0,5409675.0,5409488.0,5410031.0,5410258.0,5410370.0,5410353.0,5409007.0,5408785.0,5408511.0,5410009.0,5409874.0,5409682.0,5409390.0,5409005.0,5408452.0,5407666.0,5407173.0,5407258.0,5407665.0,5408750.020:24:49,5409686.0,5409706.0,5409652.0,5409749.0,5409922.0,5410023.0,5410024.0,5409708.0,5409459.0,5409718.0,5410029.0,5410221.0,5410231.0,5409656.0,5407731.0,5411895.0,5409827.0,5409769.0,5409590.0,5409271.0,5408962.0,5408456.0,5407776.0,5407152.0,5406916.0,5407086.0,5407959.0,5408902.0,5409538.0,5409585.0,5409444.0,5409326.0,5409328.0,5409418.0,5409502.0,5409455.0,5409737.0,5409593.0,5409693.0,5409338.0,5409051.0,5409306.0,5409778.0,5409788.0,5409979.0,5409077.0,5407501.0,5411610.0,5409519.0,5409309.0,5409082.0,5408928.0,5408698.0,5408022.0,5407443.0,5406827.0,5406727.0,5406850.0,5407668.0,5408688.0,5409176.0,5409158.0,5409172.0,5408974.0,5408943.0,5409061.0,5409052.0,5409265.0,5409376.0,5409285.0,5409342.0,5408735.0,5408926.0,5409427.0,5409643.0,5409578.0,5409842.0,5406604.0,5410779.0,5409103.0,5409226.0,5409176.0,5408825.0,5408527.0,5408115.0,5407505.0,5406792.0,5406572.0,5406790.0,5407476.0,5408495.0,5409226.0,5409350.0,5409243.0,5409153.0,5409025.0,5409162.0,5409280.0,5409400.0,5409366.020:24:51,5409419.0,5409393.0,5409641.0,5409732.0,5409907.0,5407171.0,5408832.0,5408208.0,5409353.0,5409253.0,5408957.0,5408731.0,5408252.0,5407642.0,5406907.0,5406429.0,5406564.0,5407092.0,5408166.0,5409072.0,5409279.0,5409263.0,5409077.0,5408993.0,5409140.0,5409204.0,5409281.0,5409314.0,5409501.0,5409385.0,5409429.0,5409345.0,5408992.0,5408976.0,5409356.0,5409573.0,5409651.0,5409885.0,5406814.0,5409859.0,5408381.0,5409175.0,5409115.0,5408910.0,5408554.0,5408105.0,5407507.0,5406779.0,5406425.0,5406546.0,5406842.0,5407954.0,5408909.0,5409113.0,5409071.0,5408931.0,5408934.0,5408936.0,5409041.0,5409196.0,5409179.0,5409159.0,5409290.0,5409226.0,5409208.0,5408858.0,5408680.0,5409093.0,5409316.0,5409352.0,5409600.0,5406664.0,5409529.0,5407915.0,5408936.0,5408844.0,5408594.0,5408383.0,5407939.0,5407334.0,5406819.0,5406335.0,5406414.0,5406753.0,5407616.0,5408600.0,5408978.0,5408763.0,5408773.0,5408662.0,5408577.0,5408761.0,5408828.0,5408895.0,5408902.0,5408909.0,5408615.0,5408500.0,5408738.0,5409132.020:24:53,5409208.0,5408916.0,5408919.0,5408788.0,5408660.0,5408396.0,5407886.0,5407300.0,5406703.0,5406448.0,5406720.0,5407550.0,5408610.0,5409405.0,5409560.0,5409386.0,5409399.0,5409463.0,5409551.0,5409690.0,5409808.0,5409919.0,5409982.0,5409489.0,5409690.0,5410223.0,5410396.0,5410511.0,5410844.0,5408011.0,5410862.0,5409647.0,5410157.0,5410141.0,5409866.0,5409623.0,5409267.0,5408618.0,5407922.0,5407563.0,5407729.0,5408418.0,5409559.0,5410382.0,5410548.0,5410561.0,5410445.0,5410361.0,5410396.0,5410540.0,5410650.0,5410758.0,5410721.0,5410231.0,5410318.0,5410786.0,5411018.0,5411089.0,5411397.0,5408547.0,5411591.0,5410196.0,5410673.0,5410637.0,5410321.0,5410060.0,5409619.0,5408985.0,5408296.0,5407825.0,5408069.0,5408568.0,5409641.0,5410527.0,5410641.0,5410501.0,5410453.0,5410396.0,5410434.0,5410533.0,5410568.0,5410662.0,5410625.0,5410120.0,5410178.0,5410703.0,5410825.0,5410843.0,5411223.0,5407958.0,5411555.0,5409691.0,5410339.0,5410201.0,5410058.0,5409621.0,5409096.0,5408447.0,5407836.0,5407408.020:24:55,5407559.0,5410024.0,5409779.0,5409801.0,5409689.0,5409842.0,5409915.0,5409891.0,5409989.0,5409275.0,5409483.0,5410032.0,5410132.0,5410113.0,5410163.0,5406983.0,5412215.0,5409414.0,5409579.0,5409381.0,5409176.0,5408835.0,5408360.0,5407697.0,5407118.0,5406813.0,5407012.0,5407768.0,5408682.0,5409302.0,5409407.0,5409269.0,5409210.0,5409126.0,5409210.0,5409276.0,5409299.0,5409421.0,5408737.0,5408967.0,5409472.0,5409617.0,5409667.0,5409518.0,5406937.0,5411030.0,5409304.0,5409151.0,5409110.0,5408758.0,5408389.0,5407991.0,5407298.0,5406581.0,5406467.0,5406771.0,5407512.0,5408606.0,5409231.0,5409112.0,5408964.0,5408982.0,5408904.0,5408945.0,5409162.0,5409101.0,5408905.0,5408690.0,5408943.0,5409372.0,5409421.0,5409556.0,5408640.0,5407203.0,5408372.0,5409056.0,5408954.0,5408807.0,5408541.0,5408096.0,5407607.0,5406784.0,5406260.0,5406308.0,5406625.0,5407677.0,5408664.0,5409031.0,5409004.0,5408817.0,5408769.0,5408693.0,5408830.0,5408946.0,5409065.0,5408970.0,5408772.0,5408535.0,5409015.0,5409263.020:24:57,5409311.0,5408804.0,5408877.0,5408672.0,5408390.0,5408079.0,5407544.0,5406901.0,5406200.0,5406013.0,5406170.0,5406906.0,5407999.0,5408482.0,5408614.0,5408443.0,5408286.0,5408395.0,5408486.0,5408523.0,5408546.0,5408699.0,5408714.0,5408620.0,5408322.0,5408110.0,5408530.0,5408787.0,5408835.0,5408911.0,5406571.0,5407958.0,5407273.0,5408300.0,5408200.0,5407995.0,5407743.0,5407320.0,5406633.0,5406034.0,5405653.0,5405745.0,5406092.0,5407011.0,5407910.0,5408072.0,5408125.0,5407979.0,5407851.0,5407926.0,5408039.0,5408020.0,5408010.0,5408141.0,5408180.0,5407843.0,5407576.0,5407861.0,5408265.0,5408354.0,5408467.0,5407818.0,5406120.0,5410123.0,5408057.0,5407770.0,5407664.0,5407438.0,5407078.0,5406575.0,5405839.0,5405307.0,5405234.0,5405615.0,5406399.0,5407345.0,5407761.0,5407810.0,5407728.0,5407611.0,5407534.0,5407617.0,5407705.0,5407862.0,5407920.0,5407903.0,5407836.0,5407362.0,5407458.0,5408061.0,5408108.0,5408150.0,5408534.0,5405731.0,5408479.0,5407382.0,5407800.0,5407629.0,5407358.0,5407078.020:25:00,5406589.0,5405300.0,5406231.0,5407200.0,5407681.0,5407712.0,5407581.0,5407459.0,5407400.0,5407636.0,5407652.0,5407833.0,5407787.0,5407851.0,5407844.0,5407813.0,5407537.0,5407339.0,5407738.0,5408026.0,5408047.0,5408327.0,5406032.0,5407251.0,5406507.0,5407560.0,5407511.0,5407327.0,5407056.0,5406591.0,5406030.0,5405215.0,5404722.0,5404867.0,5405154.0,5406162.0,5407100.0,5407429.0,5407414.0,5407229.0,5407165.0,5407142.0,5407343.0,5407379.0,5407494.0,5407554.0,5407508.0,5407458.0,5407428.0,5407189.0,5407000.0,5407246.0,5407533.0,5407549.0,5407788.0,5405249.0,5407045.0,5406236.0,5407158.0,5407080.0,5406928.0,5406682.0,5406170.0,5405745.0,5405015.0,5404659.0,5404583.0,5405035.0,5405915.0,5406860.0,5407010.0,5407157.0,5407057.0,5407046.0,5407072.0,5407178.0,5407202.0,5407432.0,5407337.0,5407451.0,5407420.0,5407189.0,5407048.0,5407396.0,5407718.0,5407691.0,5407721.0,5406034.0,5407804.0,5406715.0,5407404.0,5407263.0,5407225.0,5406847.0,5406576.0,5406027.0,5405250.0,5404800.0,5404984.0,5405386.020:25:02,5406338.0,5407439.0,5407362.0,5407503.0,5407585.0,5407682.0,5407791.0,5407752.0,5407488.0,5407271.0,5407442.0,5407942.0,5408042.0,5408075.0,5407318.0,5405808.0,5409667.0,5407751.0,5407584.0,5407480.0,5407231.0,5406786.0,5406287.0,5405623.0,5404828.0,5404760.0,5405153.0,5405996.0,5407194.0,5407675.0,5407649.0,5407476.0,5407442.0,5407443.0,5407474.0,5407590.0,5407624.0,5407754.0,5407698.0,5407703.0,5407247.0,5407307.0,5407741.0,5408017.0,5408003.0,5408433.0,5405444.0,5408152.0,5406922.0,5407564.0,5407523.0,5407133.0,5406905.0,5406403.0,5405794.0,5404980.0,5404638.0,5404742.0,5405308.0,5406453.0,5407277.0,5407414.0,5407394.0,5407303.0,5407261.0,5407277.0,5407369.0,5407524.0,5407556.0,5407653.0,5407630.0,5407623.0,5407223.0,5406892.0,5407334.0,5407736.0,5407693.0,5407750.0,5407002.0,5405783.0,5409587.0,5407307.0,5407127.0,5407000.0,5406733.0,5406286.0,5405811.0,5405123.0,5404597.0,5404392.0,5404562.0,5405306.0,5406384.0,5406814.0,5406938.0,5406858.0,5406780.0,5406699.0,5406792.0,5406910.020:25:04,5406927.0,5406276.0,5406746.0,5407129.0,5407153.0,5407188.0,5406202.0,5405398.0,5407622.0,5406885.0,5406638.0,5406401.0,5406247.0,5405782.0,5405283.0,5404601.0,5404096.0,5404040.0,5404230.0,5405082.0,5406097.0,5406600.0,5406595.0,5406463.0,5406419.0,5406400.0,5406407.0,5406524.0,5406701.0,5406574.0,5406636.0,5406049.0,5406299.0,5406863.0,5406905.0,5406971.0,5407003.0,5403877.0,5408485.0,5406470.0,5406514.0,5406358.0,5406118.0,5405842.0,5405289.0,5404646.0,5404002.0,5403779.0,5404001.0,5404787.0,5405820.0,5406457.0,5406545.0,5406497.0,5406381.0,5406467.0,5406384.0,5406556.0,5406536.0,5406648.0,5406680.0,5406434.0,5406129.0,5406577.0,5406909.0,5406892.0,5407048.0,5405531.0,5405975.0,5405351.0,5406510.0,5406434.0,5406240.0,5405999.0,5405482.0,5404897.0,5404205.0,5403744.0,5403789.0,5404203.0,5405321.0,5406280.0,5406437.0,5406441.0,5406316.0,5406291.0,5406289.0,5406422.0,5406528.0,5406623.0,5406649.0,5406649.0,5406357.0,5406049.0,5406496.0,5406891.0,5406827.0,5406962.0,5405954.0,5404769.020:25:06,5406606.0,5405781.0,5405352.0,5404764.0,5403926.0,5403603.0,5403748.0,5404263.0,5405320.0,5406212.0,5406386.0,5406272.0,5406110.0,5406098.0,5406168.0,5406217.0,5406284.0,5406403.0,5406383.0,5406426.0,5406445.0,5405828.0,5406006.0,5406490.0,5406692.0,5406693.0,5406829.0,5403673.0,5408327.0,5406170.0,5406115.0,5405996.0,5405696.0,5405388.0,5404853.0,5404336.0,5403608.0,5403396.0,5403468.0,5404291.0,5405257.0,5406037.0,5405945.0,5405858.0,5405698.0,5405789.0,5405820.0,5405964.0,5406104.0,5406080.0,5406077.0,5406060.0,5405769.0,5405533.0,5405833.0,5406192.0,5406165.0,5406299.0,5405033.0,5405068.0,5405685.0,5405846.0,5405650.0,5405475.0,5405257.0,5404872.0,5404435.0,5403719.0,5403229.0,5403261.0,5403595.0,5404346.0,5405419.0,5405775.0,5405788.0,5405653.0,5405570.0,5405567.0,5405689.0,5405746.0,5405891.0,5405993.0,5405978.0,5405571.0,5405425.0,5405729.0,5406098.0,5406249.0,5406244.0,5405264.0,5404774.0,5405055.0,5405810.0,5405772.0,5405589.0,5405314.0,5404865.0,5404305.0,5403612.0,5403034.020:25:08,5403044.0,5405877.0,5405718.0,5405679.0,5405612.0,5405782.0,5405821.0,5406020.0,5406014.0,5406008.0,5406026.0,5406034.0,5405681.0,5405527.0,5405764.0,5406184.0,5406246.0,5406253.0,5405403.0,5404168.0,5405957.0,5405856.0,5405786.0,5405521.0,5405327.0,5404929.0,5404441.0,5403729.0,5403116.0,5403058.0,5403411.0,5404328.0,5405644.0,5406021.0,5406018.0,5405989.0,5405842.0,5406002.0,5406181.0,5406311.0,5406456.0,5406552.0,5406596.0,5406684.0,5406708.0,5406810.0,5406451.0,5406538.0,5406967.0,5407217.0,5407403.0,5407666.0,5404848.0,5407884.0,5406681.0,5407171.0,5407132.0,5407002.0,5406703.0,5406230.0,5405592.0,5404914.0,5404555.0,5404652.0,5405021.0,5406123.0,5407019.0,5407323.0,5407228.0,5407104.0,5407139.0,5407247.0,5407271.0,5407362.0,5407525.0,5407473.0,5407573.0,5407504.0,5407232.0,5406922.0,5407131.0,5407715.0,5407657.0,5407718.0,5407050.0,5405073.0,5410664.0,5407446.0,5407299.0,5407031.0,5406800.0,5406489.0,5406017.0,5405302.0,5404802.0,5404511.0,5404732.0,5405492.0,5406652.0,5407161.020:25:10,5407217.0,5407059.0,5407129.0,5407337.0,5407338.0,5407345.0,5407032.0,5406744.0,5407001.0,5407429.0,5407420.0,5407476.0,5406751.0,5405186.0,5409609.0,5407133.0,5406953.0,5406797.0,5406502.0,5406141.0,5405647.0,5404916.0,5404202.0,5404025.0,5404333.0,5405274.0,5406348.0,5406883.0,5406873.0,5406721.0,5406624.0,5406606.0,5406707.0,5406713.0,5406781.0,5406847.0,5406781.0,5406851.0,5406255.0,5406344.0,5407004.0,5407112.0,5407162.0,5407484.0,5404740.0,5407668.0,5406396.0,5406604.0,5406543.0,5406247.0,5405923.0,5405501.0,5404737.0,5404119.0,5403701.0,5403814.0,5404674.0,5405888.0,5406617.0,5406817.0,5406610.0,5406582.0,5406553.0,5406665.0,5406711.0,5406818.0,5406913.0,5406930.0,5406993.0,5406673.0,5406350.0,5406748.0,5407168.0,5407232.0,5407267.0,5406786.0,5405446.0,5409177.0,5406973.0,5406832.0,5406606.0,5406399.0,5405966.0,5405541.0,5404764.0,5404162.0,5403883.0,5404122.0,5404976.0,5406185.0,5406787.0,5406783.0,5406645.0,5406500.0,5406538.0,5406642.0,5406734.0,5406823.0,5406874.0,5406917.020:25:13,5406875.0,5407309.0,5404034.0,5409388.0,5406669.0,5406700.0,5406493.0,5406115.0,5405958.0,5405438.0,5404740.0,5404046.0,5403863.0,5404033.0,5404689.0,5405597.0,5406370.0,5406385.0,5406352.0,5406291.0,5406279.0,5406266.0,5406436.0,5406470.0,5406550.0,5406499.0,5406544.0,5405996.0,5406121.0,5406615.0,5406789.0,5406753.0,5406785.0,5403630.0,5408677.0,5406255.0,5406309.0,5406132.0,5406000.0,5405533.0,5405076.0,5404363.0,5403746.0,5403515.0,5403715.0,5404418.0,5405462.0,5406246.0,5406315.0,5406243.0,5406110.0,5406027.0,5406176.0,5406154.0,5406316.0,5406297.0,5406369.0,5406059.0,5405866.0,5406244.0,5406615.0,5406614.0,5406797.0,5404792.0,5405565.0,5405098.0,5406239.0,5406099.0,5405955.0,5405668.0,5405223.0,5404600.0,5403853.0,5403401.0,5403484.0,5404069.0,5405229.0,5406176.0,5406420.0,5406319.0,5406201.0,5406175.0,5406185.0,5406226.0,5406361.0,5406434.0,5406538.0,5406642.0,5406235.0,5405950.0,5406308.0,5406733.0,5406791.0,5406949.0,5406343.0,5405117.0,5407645.0,5406517.0,5406427.0,5406252.020:25:15,5406012.0,5403561.0,5403660.0,5404205.0,5405383.0,5406322.0,5406574.0,5406484.0,5406344.0,5406349.0,5406458.0,5406547.0,5406676.0,5406721.0,5406891.0,5406882.0,5406871.0,5406584.0,5406349.0,5406819.0,5407172.0,5407232.0,5407322.0,5406368.0,5405479.0,5406615.0,5406991.0,5406980.0,5406737.0,5406523.0,5406135.0,5405655.0,5404875.0,5404304.0,5404263.0,5404652.0,5405544.0,5406718.0,5407112.0,5407171.0,5407109.0,5407110.0,5407087.0,5407179.0,5407278.0,5407408.0,5407351.0,5407462.0,5407336.0,5407257.0,5406931.0,5407356.0,5407630.0,5407778.0,5407955.0,5406439.0,5407290.0,5407145.0,5407497.0,5407333.0,5407148.0,5406938.0,5406524.0,5405988.0,5405278.0,5404812.0,5404858.0,5405261.0,5406201.0,5407172.0,5407444.0,5407479.0,5407251.0,5407053.0,5407246.0,5407240.0,5407341.0,5407384.0,5407421.0,5407500.0,5407196.0,5407025.0,5407366.0,5407565.0,5407693.0,5407873.0,5405987.0,5407126.0,5406432.0,5407346.0,5407205.0,5406971.0,5406646.0,5406148.0,5405614.0,5404792.0,5404346.0,5404365.0,5404872.0,5405755.020:25:17,5406663.0,5406563.0,5406587.0,5406699.0,5406791.0,5406751.0,5406720.0,5406189.0,5406310.0,5406734.0,5406894.0,5406956.0,5407186.0,5404359.0,5406947.0,5405915.0,5406569.0,5406488.0,5406184.0,5405876.0,5405417.0,5404729.0,5404000.0,5403523.0,5403566.0,5404214.0,5405343.0,5406121.0,5406342.0,5406263.0,5406076.0,5406129.0,5406121.0,5406171.0,5406206.0,5406252.0,5406268.0,5405815.0,5405676.0,5406143.0,5406345.0,5406357.0,5406462.0,5404634.0,5405437.0,5404908.0,5405809.0,5405796.0,5405622.0,5405295.0,5404804.0,5404256.0,5403539.0,5402980.0,5403028.0,5403486.0,5404666.0,5405559.0,5405886.0,5405822.0,5405659.0,5405670.0,5405674.0,5405821.0,5405914.0,5406010.0,5406029.0,5405784.0,5405431.0,5405767.0,5406266.0,5406211.0,5406329.0,5405625.0,5404121.0,5408280.0,5405966.0,5405817.0,5405665.0,5405369.0,5405181.0,5404571.0,5403795.0,5403173.0,5403213.0,5403390.0,5404321.0,5405466.0,5405893.0,5405856.0,5405679.0,5405664.0,5405681.0,5405809.0,5405884.0,5406033.0,5406023.0,5405851.0,5405495.0,5405731.020:25:19,5406310.0,5404666.0,5405968.0,5406195.0,5405975.0,5405867.0,5405614.0,5405123.0,5404617.0,5404051.0,5403602.0,5403570.0,5403959.0,5405015.0,5405934.0,5406336.0,5406324.0,5406180.0,5406189.0,5406161.0,5406167.0,5406505.0,5406493.0,5406570.0,5406292.0,5406106.0,5406484.0,5406902.0,5407028.0,5407117.0,5406537.0,5404685.0,5407993.0,5406855.0,5406804.0,5406533.0,5406375.0,5406048.0,5405538.0,5404867.0,5404310.0,5404262.0,5404565.0,5405618.0,5406691.0,5407220.0,5407213.0,5407026.0,5407018.0,5407097.0,5407125.0,5407317.0,5407343.0,5407482.0,5407505.0,5407473.0,5407066.0,5407182.0,5407640.0,5407861.0,5407981.0,5408388.0,5405620.0,5408177.0,5407322.0,5407643.0,5407549.0,5407389.0,5407042.0,5406691.0,5406038.0,5405389.0,5404888.0,5405020.0,5405613.0,5406770.0,5407706.0,5407871.0,5407907.0,5407825.0,5407815.0,5407824.0,5407943.0,5408102.0,5408180.0,5408250.0,5408265.0,5408274.0,5408218.0,5408265.0,5407812.0,5407854.0,5408374.0,5408535.0,5408595.0,5409053.0,5406035.0,5408740.0,5407539.0,5408242.020:25:21,5408069.0,5406231.0,5405638.0,5405462.0,5405818.0,5406713.0,5407842.0,5408305.0,5408232.0,5408190.0,5408137.0,5408125.0,5408111.0,5408223.0,5408372.0,5408439.0,5408614.0,5408507.0,5408473.0,5408475.0,5407919.0,5408068.0,5408505.0,5408672.0,5408785.0,5408983.0,5405990.0,5409812.0,5407532.0,5408342.0,5408312.0,5408062.0,5407776.0,5407422.0,5406812.0,5406103.0,5405778.0,5405897.0,5406481.0,5407472.0,5408391.0,5408568.0,5408621.0,5408445.0,5408393.0,5408309.0,5408402.0,5408532.0,5408653.0,5408667.0,5408754.0,5408779.0,5408760.0,5408744.0,5408476.0,5408377.0,5408753.0,5409033.0,5409079.0,5409302.0,5406761.0,5407949.0,5407634.0,5408694.0,5408624.0,5408455.0,5408187.0,5407779.0,5407168.0,5406516.0,5405868.0,5405884.0,5406449.0,5407567.0,5408488.0,5408865.0,5408895.0,5408702.0,5408605.0,5408638.0,5408657.0,5408759.0,5408895.0,5409005.0,5408987.0,5409076.0,5409005.0,5409067.0,5409146.0,5409048.0,5408893.0,5408493.0,5408826.0,5409241.0,5409319.0,5409299.0,5408823.0,5407788.0,5411013.0,5409159.020:25:23,5408922.0,5407497.0,5406682.0,5406111.0,5406130.0,5406646.0,5407659.0,5408674.0,5409059.0,5409064.0,5408972.0,5408810.0,5408807.0,5408903.0,5408998.0,5409036.0,5409116.0,5409155.0,5409223.0,5409197.0,5409307.0,5409251.0,5409219.0,5409089.0,5408743.0,5408712.0,5409125.0,5409304.0,5409385.0,5409515.0,5406716.0,5409317.0,5408042.0,5408907.0,5408839.0,5408603.0,5408325.0,5407970.0,5407383.0,5406686.0,5406148.0,5406089.0,5406402.0,5407471.0,5408441.0,5408794.0,5408799.0,5408667.0,5408674.0,5408587.0,5408684.0,5408816.0,5408997.0,5408896.0,5409020.0,5409009.0,5408999.0,5408900.0,5408875.0,5408388.0,5408491.0,5408909.0,5409127.0,5409145.0,5409397.0,5406300.0,5410420.0,5408042.0,5408643.0,5408614.0,5408484.0,5408062.0,5407754.0,5407192.0,5406471.0,5406115.0,5406173.0,5406624.0,5407674.0,5408619.0,5408857.0,5408931.0,5408705.0,5408658.0,5408667.0,5408652.0,5408818.0,5408901.0,5409059.0,5409049.0,5409018.0,5408982.0,5408980.0,5408435.0,5408485.0,5408999.0,5409162.0,5409213.0,5409553.0,5406611.020:25:26,5409912.0,5408344.0,5408004.0,5407443.0,5406678.0,5406060.0,5405914.0,5406190.0,5407195.0,5408273.0,5408875.0,5408922.0,5408821.0,5408699.0,5408667.0,5408575.0,5408797.0,5408868.0,5408987.0,5408987.0,5409057.0,5409027.0,5409039.0,5409106.0,5408807.0,5408639.0,5408870.0,5409191.0,5409245.0,5409399.0,5408190.0,5407787.0,5408328.0,5408936.0,5408861.0,5408671.0,5408434.0,5407948.0,5407421.0,5406653.0,5406071.0,5405831.0,5406140.0,5407132.0,5408157.0,5408677.0,5408774.0,5408686.0,5408620.0,5408499.0,5408556.0,5408662.0,5408756.0,5408825.0,5408866.0,5408883.0,5408883.0,5408882.0,5408507.0,5408316.0,5408709.0,5409087.0,5409029.0,5409139.0,5407513.0,5408259.0,5407810.0,5408658.0,5408519.0,5408329.0,5408060.0,5407653.0,5407114.0,5406492.0,5405873.0,5405834.0,5406069.0,5406967.0,5408027.0,5408534.0,5408490.0,5408449.0,5408385.0,5408418.0,5408405.0,5408483.0,5408546.0,5408539.0,5408696.0,5408660.0,5408631.0,5408072.0,5408227.0,5408741.0,5408823.0,5408873.0,5408774.0,5405751.0,5411022.0,5408522.020:25:28,5408409.0,5407077.0,5406365.0,5405829.0,5405850.0,5406224.0,5407104.0,5408185.0,5408518.0,5408536.0,5408472.0,5408407.0,5408398.0,5408372.0,5408459.0,5408628.0,5408649.0,5408744.0,5408731.0,5408488.0,5408262.0,5408591.0,5408943.0,5408940.0,5409055.0,5407888.0,5407221.0,5407977.0,5408560.0,5408583.0,5408402.0,5408057.0,5407742.0,5407199.0,5406434.0,5405855.0,5405695.0,5406064.0,5407088.0,5408115.0,5408639.0,5408562.0,5408458.0,5408428.0,5408427.0,5408542.0,5408570.0,5408614.0,5408792.0,5408744.0,5408693.0,5408463.0,5408206.0,5408711.0,5408993.0,5409120.0,5409239.0,5406666.0,5408440.0,5407727.0,5408581.0,5408543.0,5408343.0,5407965.0,5407574.0,5407025.0,5406291.0,5405743.0,5405760.0,5406103.0,5407174.0,5408318.0,5408594.0,5408612.0,5408329.0,5408421.0,5408386.0,5408472.0,5408528.0,5408569.0,5408691.0,5408672.0,5408582.0,5408127.0,5408171.0,5408696.0,5408881.0,5408933.0,5409139.0,5405897.0,5409436.0,5407643.0,5408388.0,5408289.0,5408132.0,5407824.0,5407327.0,5406772.0,5406071.0,5405749.020:25:30,5405830.0,5408191.0,5408054.0,5408103.0,5408147.0,5408306.0,5408269.0,5408380.0,5408384.0,5408159.0,5407867.0,5408244.0,5408571.0,5408659.0,5408778.0,5407857.0,5406354.0,5409017.0,5408399.0,5408265.0,5408011.0,5407758.0,5407430.0,5406986.0,5406226.0,5405663.0,5405572.0,5405826.0,5406696.0,5407763.0,5408305.0,5408326.0,5408197.0,5408068.0,5408033.0,5408161.0,5408231.0,5408337.0,5408425.0,5408444.0,5408091.0,5408011.0,5408398.0,5408669.0,5408698.0,5408810.0,5407080.0,5407594.0,5407055.0,5408232.0,5408235.0,5407974.0,5407705.0,5407319.0,5406807.0,5406012.0,5405487.0,5405480.0,5405998.0,5407136.0,5408005.0,5408353.0,5408359.0,5408229.0,5408137.0,5408156.0,5408238.0,5408336.0,5408422.0,5408468.0,5408491.0,5408252.0,5407872.0,5408150.0,5408717.0,5408872.0,5408897.0,5408747.0,5406726.0,5410362.0,5408554.0,5408412.0,5408290.0,5408031.0,5407670.0,5407196.0,5406517.0,5405897.0,5405573.0,5405758.0,5406595.0,5407740.0,5408416.0,5408486.0,5408307.0,5408290.0,5408250.0,5408378.0,5408423.0,5408505.020:25:32,5408569.0,5408155.0,5408494.0,5408868.0,5408775.0,5408915.0,5407788.0,5407045.0,5407934.0,5408490.0,5408362.0,5408140.0,5407844.0,5407425.0,5406875.0,5406329.0,5405708.0,5405689.0,5405924.0,5406775.0,5407915.0,5408233.0,5408293.0,5408206.0,5408071.0,5408134.0,5408175.0,5408223.0,5408341.0,5408381.0,5408314.0,5408420.0,5407872.0,5407904.0,5408520.0,5408536.0,5408554.0,5408817.0,5405709.0,5409760.0,5407862.0,5408166.0,5408010.0,5407861.0,5407526.0,5407050.0,5406449.0,5405800.0,5405566.0,5405762.0,5406286.0,5407220.0,5408162.0,5408325.0,5408172.0,5408019.0,5408061.0,5408034.0,5408208.0,5408211.0,5408322.0,5408366.0,5408328.0,5408119.0,5407928.0,5408244.0,5408565.0,5408715.0,5408798.0,5406756.0,5407657.0,5407137.0,5408295.0,5408196.0,5407973.0,5407710.0,5407279.0,5406732.0,5405944.0,5405474.0,5405520.0,5405975.0,5407058.0,5408030.0,5408309.0,5408287.0,5408157.0,5408033.0,5408097.0,5408148.0,5408327.0,5408366.0,5408434.0,5408420.0,5408275.0,5407911.0,5408129.0,5408610.0,5408612.0,5408747.020:25:34,5408665.0,5408220.0,5408106.0,5407802.0,5407423.0,5406856.0,5406123.0,5405492.0,5405409.0,5405815.0,5406863.0,5407901.0,5408294.0,5408318.0,5408184.0,5408093.0,5408233.0,5408297.0,5408364.0,5408550.0,5408511.0,5408617.0,5408640.0,5408631.0,5408057.0,5408246.0,5408794.0,5408842.0,5408896.0,5409413.0,5406381.0,5410143.0,5408410.0,5408506.0,5408328.0,5408137.0,5407735.0,5407359.0,5406723.0,5406183.0,5405689.0,5405781.0,5406513.0,5407466.0,5408362.0,5408487.0,5408436.0,5408353.0,5408268.0,5408326.0,5408456.0,5408550.0,5408587.0,5408632.0,5408690.0,5408714.0,5408676.0,5408725.0,5408648.0,5408126.0,5408265.0,5408759.0,5408763.0,5408912.0,5408830.0,5405915.0,5411064.0,5408391.0,5408399.0,5408302.0,5408072.0,5407673.0,5407328.0,5406718.0,5406089.0,5405754.0,5405950.0,5406403.0,5407476.0,5408148.0,5408406.0,5408355.0,5408299.0,5408065.0,5408168.0,5408265.0,5408365.0,5408446.0,5408524.0,5408543.0,5408302.0,5407954.0,5408285.0,5408716.0,5408733.0,5408848.0,5408133.0,5406533.0,5410705.0,5408598.020:25:36,5408371.0,5406884.0,5406171.0,5405624.0,5405694.0,5406215.0,5407265.0,5408124.0,5408558.0,5408512.0,5408338.0,5408378.0,5408251.0,5408322.0,5408308.0,5408503.0,5408671.0,5408503.0,5408251.0,5408080.0,5408506.0,5408702.0,5408823.0,5408867.0,5407843.0,5406980.0,5407765.0,5408560.0,5408390.0,5408158.0,5407877.0,5407616.0,5406881.0,5406135.0,5405619.0,5405528.0,5405913.0,5406921.0,5408028.0,5408350.0,5408377.0,5408345.0,5408190.0,5408078.0,5408133.0,5408403.0,5408499.0,5408477.0,5408484.0,5408501.0,5407961.0,5408009.0,5408626.0,5408789.0,5408973.0,5409176.0,5406239.0,5409957.0,5408344.0,5408382.0,5408195.0,5407973.0,5407715.0,5407197.0,5406492.0,5405800.0,5405499.0,5405474.0,5406291.0,5407448.0,5408146.0,5408302.0,5408292.0,5408111.0,5408063.0,5408197.0,5408150.0,5408287.0,5408252.0,5408390.0,5408288.0,5408335.0,5407795.0,5407891.0,5408499.0,5408516.0,5408554.0,5408638.0,5405443.0,5410706.0,5408085.0,5408021.0,5407995.0,5407682.0,5407393.0,5406830.0,5406306.0,5405568.0,5405301.0,5405503.020:25:39,5406179.0,5407897.0,5407741.0,5407728.0,5407928.0,5408005.0,5408024.0,5408143.0,5408132.0,5408108.0,5407801.0,5407629.0,5407980.0,5408269.0,5408345.0,5408394.0,5407507.0,5406546.0,5408417.0,5408158.0,5407927.0,5407785.0,5407606.0,5407205.0,5406777.0,5405960.0,5405452.0,5405399.0,5405719.0,5406523.0,5407577.0,5408094.0,5408163.0,5408005.0,5407852.0,5407922.0,5407951.0,5408092.0,5408179.0,5408215.0,5408211.0,5408336.0,5408322.0,5408118.0,5407722.0,5408119.0,5408495.0,5408600.0,5408607.0,5407958.0,5406691.0,5408815.0,5408368.0,5408107.0,5408035.0,5407732.0,5407417.0,5406889.0,5406191.0,5405552.0,5405380.0,5405618.0,5406461.0,5407689.0,5408225.0,5408278.0,5408179.0,5408052.0,5408085.0,5408125.0,5408163.0,5408371.0,5408391.0,5408470.0,5408500.0,5408394.0,5408516.0,5407976.0,5408014.0,5408448.0,5408735.0,5408723.0,5409053.0,5406021.0,5409246.0,5407695.0,5408387.0,5408254.0,5408059.0,5407689.0,5407323.0,5406696.0,5405986.0,5405472.0,5405557.0,5405971.0,5407077.0,5408012.0,5408299.0,5408265.020:25:41,5408077.0,5408274.0,5408410.0,5408348.0,5408414.0,5408435.0,5408466.0,5408217.0,5407791.0,5408142.0,5408578.0,5408558.0,5408599.0,5407918.0,5406378.0,5411450.0,5408387.0,5407936.0,5407932.0,5407670.0,5407220.0,5406785.0,5406117.0,5405570.0,5405399.0,5405473.0,5406161.0,5407239.0,5407946.0,5408002.0,5407872.0,5407782.0,5407743.0,5407835.0,5407813.0,5407949.0,5408114.0,5408126.0,5408254.0,5408182.0,5407868.0,5407712.0,5408115.0,5408245.0,5408451.0,5408509.0,5407159.0,5407896.0,5407526.0,5408145.0,5407980.0,5407722.0,5407527.0,5407171.0,5406633.0,5405959.0,5405436.0,5405412.0,5405781.0,5406751.0,5407684.0,5408160.0,5408146.0,5408033.0,5407933.0,5407956.0,5408021.0,5408150.0,5408191.0,5408292.0,5408347.0,5408312.0,5408275.0,5407883.0,5407878.0,5408286.0,5408540.0,5408585.0,5408816.0,5405886.0,5409153.0,5407788.0,5408227.0,5408115.0,5407845.0,5407501.0,5407160.0,5406529.0,5405766.0,5405294.0,5405390.0,5405869.0,5407018.0,5407962.0,5408266.0,5408176.0,5408042.0,5407925.0,5408123.0,5408077.020:25:43,5408201.0,5408104.0,5407942.0,5408235.0,5408573.0,5408661.0,5408776.0,5407254.0,5407919.0,5407621.0,5408247.0,5408163.0,5407941.0,5407767.0,5407225.0,5406753.0,5406054.0,5405489.0,5405390.0,5405794.0,5406761.0,5407744.0,5408202.0,5408150.0,5408118.0,5408011.0,5408022.0,5408096.0,5408295.0,5408288.0,5408269.0,5408288.0,5408388.0,5408494.0,5407931.0,5407853.0,5408209.0,5408473.0,5408540.0,5408631.0,5406050.0,5408466.0,5407276.0,5407936.0,5407877.0,5407781.0,5407498.0,5406990.0,5406452.0,5405723.0,5405284.0,5405418.0,5405791.0,5406756.0,5407579.0,5407950.0,5407911.0,5407854.0,5407712.0,5407786.0,5407869.0,5407974.0,5408034.0,5408036.0,5408028.0,5407882.0,5407420.0,5407742.0,5408225.0,5408220.0,5408351.0,5407537.0,5405956.0,5411118.0,5408084.0,5407875.0,5407633.0,5407445.0,5407176.0,5406664.0,5405985.0,5405437.0,5405224.0,5405516.0,5406359.0,5407398.0,5407926.0,5407970.0,5407931.0,5407864.0,5407779.0,5407896.0,5407881.0,5408050.0,5408105.0,5408157.0,5407880.0,5407622.0,5407921.0,5408310.020:25:45,5408311.0,5407097.0,5408068.0,5407949.0,5407786.0,5407370.0,5406975.0,5406442.0,5405707.0,5405233.0,5405352.0,5405958.0,5407032.0,5407835.0,5408086.0,5408094.0,5407964.0,5407944.0,5407883.0,5408027.0,5408111.0,5408148.0,5408201.0,5408225.0,5408035.0,5407744.0,5408176.0,5408456.0,5408533.0,5408603.0,5407544.0,5407200.0,5407754.0,5408211.0,5408179.0,5407894.0,5407614.0,5407190.0,5406705.0,5405992.0,5405433.0,5405354.0,5405754.0,5406646.0,5407771.0,5408187.0,5408128.0,5407997.0,5407985.0,5408035.0,5408055.0,5408180.0,5408229.0,5408360.0,5408292.0,5408117.0,5407703.0,5408237.0,5408590.0,5408595.0,5408696.0,5408013.0,5406797.0,5410662.0,5408422.0,5408207.0,5408006.0,5407808.0,5407460.0,5406913.0,5406326.0,5405752.0,5405541.0,5405882.0,5406684.0,5407830.0,5408406.0,5408390.0,5408278.0,5408353.0,5408340.0,5408331.0,5408493.0,5408580.0,5408647.0,5408710.0,5408458.0,5408214.0,5408624.0,5409011.0,5408957.0,5409145.0,5408143.0,5407135.0,5409316.0,5408803.0,5408645.0,5408472.0,5408245.0,5407946.020:25:47,5407483.0,5406869.0,5407863.0,5408613.0,5408901.0,5408899.0,5408709.0,5408761.0,5408745.0,5408835.0,5408977.0,5408981.0,5409033.0,5409105.0,5408468.0,5408779.0,5409299.0,5409321.0,5409359.0,5409517.0,5406434.0,5410651.0,5408997.0,5409099.0,5408942.0,5408630.0,5408272.0,5407883.0,5407199.0,5406635.0,5406337.0,5406444.0,5407228.0,5408315.0,5408967.0,5409056.0,5408997.0,5408937.0,5408881.0,5408849.0,5408947.0,5409089.0,5409199.0,5409170.0,5409188.0,5409130.0,5408963.0,5408641.0,5409111.0,5409432.0,5409424.0,5409506.0,5407963.0,5408528.0,5408088.0,5408943.0,5408937.0,5408755.0,5408513.0,5408100.0,5407487.0,5406802.0,5406254.0,5406237.0,5406631.0,5407587.0,5408698.0,5409054.0,5408984.0,5408948.0,5408860.0,5408834.0,5408941.0,5409117.0,5409188.0,5409229.0,5409253.0,5409373.0,5409228.0,5409415.0,5408862.0,5408989.0,5409626.0,5409706.0,5409745.0,5410056.0,5407129.0,5411154.0,5409517.0,5409484.0,5409364.0,5409129.0,5408884.0,5408426.0,5407784.0,5407163.0,5406777.0,5406884.0,5407446.0,5408707.020:25:49,5409465.0,5409357.0,5409430.0,5409445.0,5409548.0,5409677.0,5409673.0,5409783.0,5409757.0,5409389.0,5409099.0,5409485.0,5409780.0,5409899.0,5409852.0,5409215.0,5407629.0,5412652.0,5409697.0,5409357.0,5409291.0,5409004.0,5408732.0,5408251.0,5407617.0,5407086.0,5406889.0,5407067.0,5407671.0,5408593.0,5409235.0,5409206.0,5409123.0,5408948.0,5408878.0,5408810.0,5408877.0,5408836.0,5408923.0,5408951.0,5408969.0,5408838.0,5408501.0,5408322.0,5408655.0,5409029.0,5409022.0,5409152.0,5408263.0,5407238.0,5409903.0,5408972.0,5408804.0,5408663.0,5408378.0,5408073.0,5407522.0,5406850.0,5406266.0,5406166.0,5406464.0,5407239.0,5408392.0,5408825.0,5408797.0,5408707.0,5408643.0,5408551.0,5408637.0,5408785.0,5408857.0,5408836.0,5408881.0,5408906.0,5408873.0,5408882.0,5408310.0,5408496.0,5408933.0,5409074.0,5409103.0,5409487.0,5406748.0,5410102.0,5408476.0,5408646.0,5408578.0,5408292.0,5408006.0,5407512.0,5406939.0,5406141.0,5405778.0,5405835.0,5406408.0,5407521.0,5408305.0,5408553.0,5408382.0,5408385.020:25:52,5408361.0,5408579.0,5408619.0,5408615.0,5408699.0,5408604.0,5408352.0,5408104.0,5408470.0,5408740.0,5408718.0,5408885.0,5407668.0,5407391.0,5408486.0,5408416.0,5408310.0,5408145.0,5407864.0,5407431.0,5406921.0,5406247.0,5405595.0,5405415.0,5405696.0,5406486.0,5407679.0,5408185.0,5408146.0,5408114.0,5408012.0,5408002.0,5408112.0,5408114.0,5408291.0,5408306.0,5408412.0,5408405.0,5408442.0,5408426.0,5407973.0,5407875.0,5408502.0,5408546.0,5408643.0,5408672.0,5405729.0,5410717.0,5408211.0,5408065.0,5407907.0,5407737.0,5407383.0,5406877.0,5406387.0,5405628.0,5405381.0,5405440.0,5405900.0,5407052.0,5407873.0,5407989.0,5407903.0,5407770.0,5407853.0,5407783.0,5407919.0,5408048.0,5408143.0,5408150.0,5408102.0,5408212.0,5407913.0,5407728.0,5408213.0,5408413.0,5408482.0,5408617.0,5405627.0,5409045.0,5407327.0,5408132.0,5408007.0,5407840.0,5407558.0,5407230.0,5406740.0,5406085.0,5405618.0,5405631.0,5406066.0,5406945.0,5407938.0,5408287.0,5408190.0,5408164.0,5408042.0,5408092.0,5408293.0,5408333.020:25:54,5408446.0,5408385.0,5408892.0,5408785.0,5408942.0,5408135.0,5407009.0,5409404.0,5408667.0,5408516.0,5408418.0,5408142.0,5407856.0,5407262.0,5406708.0,5406014.0,5405942.0,5406316.0,5407255.0,5408261.0,5408752.0,5408781.0,5408716.0,5408650.0,5408585.0,5408702.0,5408837.0,5408983.0,5408911.0,5409051.0,5408507.0,5408666.0,5409346.0,5409407.0,5409525.0,5409278.0,5407389.0,5411071.0,5409288.0,5409112.0,5409052.0,5408878.0,5408492.0,5408070.0,5407452.0,5406765.0,5406499.0,5406660.0,5407497.0,5408583.0,5409294.0,5409473.0,5409322.0,5409305.0,5409258.0,5409321.0,5409440.0,5409556.0,5409635.0,5409664.0,5409396.0,5409182.0,5409600.0,5409975.0,5409984.0,5410103.0,5409120.0,5408452.0,5409662.0,5409816.0,5409756.0,5409690.0,5409393.0,5409098.0,5408587.0,5407908.0,5407446.0,5407323.0,5407542.0,5408473.0,5409529.0,5410075.0,5410142.0,5410064.0,5410046.0,5410023.0,5410238.0,5410317.0,5410395.0,5410539.0,5410602.0,5410377.0,5410089.0,5410633.0,5410949.0,5410965.0,5411038.0,5410253.0,5409098.0,5412371.020:25:56,5410813.0,5409588.0,5409001.0,5408340.0,5407969.0,5408044.0,5408551.0,5409357.0,5410306.0,5410461.0,5410343.0,5410250.0,5410209.0,5410225.0,5410199.0,5410337.0,5410317.0,5410305.0,5410037.0,5409714.0,5410060.0,5410395.0,5410362.0,5410513.0,5409132.0,5409415.0,5409538.0,5409883.0,5409827.0,5409602.0,5409257.0,5408943.0,5408377.0,5407640.0,5407162.0,5407180.0,5407462.0,5408321.0,5409307.0,5409569.0,5409657.0,5409478.0,5409315.0,5409337.0,5409395.0,5409473.0,5409609.0,5409560.0,5409272.0,5409105.0,5409497.0,5409746.0,5409730.0,5409941.0,5407594.0,5409069.0,5408253.0,5409218.0,5409212.0,5408974.0,5408663.0,5408195.0,5407682.0,5406959.0,5406500.0,5406585.0,5407010.0,5408022.0,5408913.0,5409227.0,5409114.0,5409026.0,5409012.0,5409016.0,5409090.0,5409255.0,5409282.0,5409201.0,5409043.0,5408848.0,5409226.0,5409496.0,5409583.0,5409652.0,5408650.0,5407937.0,5408903.0,5409288.0,5409150.0,5408999.0,5408769.0,5408368.0,5407835.0,5407137.0,5406564.0,5406487.0,5406876.0,5407722.0,5408737.0,5409180.020:25:58,5409184.0,5409209.0,5409326.0,5409411.0,5409449.0,5409447.0,5409147.0,5409028.0,5409397.0,5409634.0,5409779.0,5409884.0,5408721.0,5408264.0,5409385.0,5409415.0,5409318.0,5409198.0,5408819.0,5408555.0,5407976.0,5407423.0,5406804.0,5406935.0,5407188.0,5407928.0,5408967.0,5409446.0,5409481.0,5409370.0,5409270.0,5409386.0,5409468.0,5409655.0,5409737.0,5409797.0,5409762.0,5409848.0,5409347.0,5409456.0,5409990.0,5410185.0,5410190.0,5410572.0,5407398.0,5411621.0,5409516.0,5409872.0,5409742.0,5409523.0,5409330.0,5409018.0,5408424.0,5407684.0,5407494.0,5407760.0,5408084.0,5409082.0,5409867.0,5410089.0,5410043.0,5409969.0,5409941.0,5409975.0,5410106.0,5410177.0,5410331.0,5410470.0,5410440.0,5410240.0,5409894.0,5410282.0,5410701.0,5410763.0,5410871.0,5410351.0,5408702.0,5413150.0,5410743.0,5410536.0,5410408.0,5410225.0,5409831.0,5409386.0,5408753.0,5408104.0,5408025.0,5408293.0,5408987.0,5410120.0,5410689.0,5410725.0,5410738.0,5410561.0,5410567.0,5410570.0,5410823.0,5410908.0,5411043.0,5411092.020:26:00,5411049.0,5411404.0,5411408.0,5411513.0,5410176.0,5409939.0,5410409.0,5411037.0,5411078.0,5410881.0,5410600.0,5410207.0,5409737.0,5409041.0,5408548.0,5408449.0,5408707.0,5409624.0,5410689.0,5411168.0,5411156.0,5411035.0,5410917.0,5410972.0,5411082.0,5411135.0,5411394.0,5411352.0,5411307.0,5411513.0,5411501.0,5411139.0,5411011.0,5411106.0,5411657.0,5411751.0,5411836.0,5410839.0,5409855.0,5411392.0,5411422.0,5411227.0,5411140.0,5410757.0,5410544.0,5409969.0,5409351.0,5408769.0,5408553.0,5408873.0,5409606.0,5410667.0,5411245.0,5411215.0,5411103.0,5411070.0,5411051.0,5411098.0,5411217.0,5411279.0,5411431.0,5411416.0,5411478.0,5411434.0,5411229.0,5411045.0,5411383.0,5411629.0,5411713.0,5411770.0,5410427.0,5410987.0,5410877.0,5411331.0,5411187.0,5411056.0,5410833.0,5410375.0,5409926.0,5409233.0,5408843.0,5408811.0,5409127.0,5409917.0,5410877.0,5411352.0,5411320.0,5411207.0,5411042.0,5411066.0,5411025.0,5411231.0,5411437.0,5411409.0,5411369.0,5411440.0,5410880.0,5411095.0,5411508.0,5411728.020:26:02,5411740.0,5411279.0,5411228.0,5411053.0,5410799.0,5410356.0,5409738.0,5409018.0,5408729.0,5408778.0,5409289.0,5410298.0,5411114.0,5411403.0,5411454.0,5411255.0,5411239.0,5411196.0,5411283.0,5411401.0,5411483.0,5411556.0,5411617.0,5411576.0,5411298.0,5411104.0,5411386.0,5411699.0,5411870.0,5411845.0,5410300.0,5410997.0,5410476.0,5411427.0,5411406.0,5411261.0,5410914.0,5410505.0,5409966.0,5409168.0,5408816.0,5408729.0,5409101.0,5409973.0,5411037.0,5411461.0,5411439.0,5411412.0,5411175.0,5411251.0,5411418.0,5411391.0,5411469.0,5411523.0,5411677.0,5411614.0,5411608.0,5411204.0,5411164.0,5411654.0,5411832.0,5411890.0,5412130.0,5409158.0,5412563.0,5410954.0,5411382.0,5411296.0,5411246.0,5410779.0,5410490.0,5409851.0,5409211.0,5408712.0,5408690.0,5409162.0,5410093.0,5411047.0,5411314.0,5411286.0,5411159.0,5411100.0,5411088.0,5411147.0,5411309.0,5411432.0,5411325.0,5411431.0,5411483.0,5411137.0,5410903.0,5411293.0,5411552.0,5411653.0,5411697.0,5410410.0,5409860.0,5411725.0,5411205.0,5411216.020:26:05,5410975.0,5409017.0,5408649.0,5408770.0,5409090.0,5409954.0,5410914.0,5411133.0,5411114.0,5410936.0,5410838.0,5410952.0,5410964.0,5411127.0,5411163.0,5411186.0,5411218.0,5411165.0,5410828.0,5410854.0,5411318.0,5411458.0,5411535.0,5411856.0,5408748.0,5412317.0,5410438.0,5411123.0,5411070.0,5410897.0,5410534.0,5410189.0,5409632.0,5408972.0,5408494.0,5408574.0,5409116.0,5410061.0,5410908.0,5411251.0,5411055.0,5411014.0,5411065.0,5410947.0,5411070.0,5411161.0,5411241.0,5411312.0,5411334.0,5411341.0,5410829.0,5410956.0,5411345.0,5411522.0,5411648.0,5411935.0,5409048.0,5412486.0,5410965.0,5411154.0,5411077.0,5410931.0,5410643.0,5410148.0,5409611.0,5408917.0,5408600.0,5408668.0,5409096.0,5410103.0,5411072.0,5411305.0,5411178.0,5411174.0,5410990.0,5411116.0,5411110.0,5411345.0,5411293.0,5411306.0,5411394.0,5411409.0,5411455.0,5411078.0,5410934.0,5411239.0,5411559.0,5411582.0,5411734.0,5410653.0,5409967.0,5411181.0,5411324.0,5411317.0,5411158.0,5410831.0,5410495.0,5409905.0,5409333.0,5408723.020:26:07,5408543.0,5411285.0,5411144.0,5411038.0,5410985.0,5411057.0,5411135.0,5411280.0,5411248.0,5411357.0,5411366.0,5411354.0,5411346.0,5411331.0,5411148.0,5410718.0,5411143.0,5411521.0,5411516.0,5411651.0,5410838.0,5409673.0,5413686.0,5411368.0,5411117.0,5410925.0,5410688.0,5410356.0,5409902.0,5409312.0,5408722.0,5408574.0,5408827.0,5409343.0,5410300.0,5410962.0,5411037.0,5410931.0,5410801.0,5410816.0,5410908.0,5411061.0,5411080.0,5411113.0,5411098.0,5411183.0,5411154.0,5411161.0,5410929.0,5410642.0,5411051.0,5411362.0,5411402.0,5411438.0,5408679.0,5411645.0,5410231.0,5411020.0,5410841.0,5410809.0,5410428.0,5410144.0,5409541.0,5408951.0,5408524.0,5408540.0,5408963.0,5409762.0,5410736.0,5411103.0,5411089.0,5410918.0,5410844.0,5410861.0,5411015.0,5411026.0,5411137.0,5411193.0,5411258.0,5411270.0,5411002.0,5410721.0,5411062.0,5411447.0,5411486.0,5411541.0,5410605.0,5409782.0,5411255.0,5411239.0,5411092.0,5410957.0,5410684.0,5410316.0,5409809.0,5409081.0,5408537.0,5408398.0,5408801.0,5409549.020:26:09,5410678.0,5410992.0,5410976.0,5411019.0,5411175.0,5411264.0,5411339.0,5411263.0,5411278.0,5410785.0,5410885.0,5411358.0,5411550.0,5411648.0,5411890.0,5408853.0,5412514.0,5410856.0,5411258.0,5411075.0,5410807.0,5410559.0,5410134.0,5409582.0,5408891.0,5408447.0,5408523.0,5409071.0,5409986.0,5410897.0,5411208.0,5411084.0,5410938.0,5410874.0,5410953.0,5411059.0,5411161.0,5411214.0,5411274.0,5411221.0,5411237.0,5410977.0,5410748.0,5411228.0,5411428.0,5411456.0,5411626.0,5409463.0,5411199.0,5410226.0,5411048.0,5411061.0,5410831.0,5410457.0,5410095.0,5409545.0,5408871.0,5408438.0,5408531.0,5408833.0,5409577.0,5410657.0,5410993.0,5411008.0,5410819.0,5410783.0,5410686.0,5410801.0,5410880.0,5410953.0,5410974.0,5411065.0,5411085.0,5410810.0,5410670.0,5411047.0,5411234.0,5411371.0,5411483.0,5408874.0,5411327.0,5410112.0,5410976.0,5410895.0,5410730.0,5410327.0,5410014.0,5409528.0,5408826.0,5408387.0,5408517.0,5408994.0,5409788.0,5410818.0,5411083.0,5410971.0,5410888.0,5410917.0,5410846.0,5410961.020:26:11,5411055.0,5410820.0,5410775.0,5411190.0,5411479.0,5411510.0,5411746.0,5408786.0,5411141.0,5410378.0,5411157.0,5411131.0,5410849.0,5410512.0,5410131.0,5409557.0,5408813.0,5408359.0,5408457.0,5408998.0,5410035.0,5410900.0,5411138.0,5411096.0,5410972.0,5410984.0,5410981.0,5411054.0,5411133.0,5411272.0,5411312.0,5411378.0,5411362.0,5411041.0,5410821.0,5411203.0,5411602.0,5411597.0,5411735.0,5409839.0,5411038.0,5410341.0,5411201.0,5411128.0,5410925.0,5410657.0,5410198.0,5409688.0,5408948.0,5408394.0,5408397.0,5408782.0,5409688.0,5410789.0,5411143.0,5411103.0,5410977.0,5410876.0,5410891.0,5410947.0,5411138.0,5411193.0,5411265.0,5411240.0,5411275.0,5410919.0,5410650.0,5410978.0,5411401.0,5411428.0,5411479.0,5410586.0,5409305.0,5411655.0,5411123.0,5410978.0,5410769.0,5410464.0,5410141.0,5409619.0,5408942.0,5408432.0,5408271.0,5408547.0,5409352.0,5410263.0,5410895.0,5410913.0,5410682.0,5410616.0,5410646.0,5410657.0,5410810.0,5410885.0,5410912.0,5410987.0,5410680.0,5410425.0,5410543.0,5411177.020:26:13,5411158.0,5410301.0,5410811.0,5410762.0,5410509.0,5410305.0,5409948.0,5409495.0,5408759.0,5408301.0,5408285.0,5408657.0,5409530.0,5410538.0,5410850.0,5410830.0,5410790.0,5410689.0,5410617.0,5410746.0,5410834.0,5410929.0,5410961.0,5410945.0,5410442.0,5410656.0,5411157.0,5411235.0,5411307.0,5411607.0,5408267.0,5412674.0,5410857.0,5410960.0,5410837.0,5410582.0,5410270.0,5409813.0,5409193.0,5408465.0,5408167.0,5408412.0,5409030.0,5410238.0,5410913.0,5411089.0,5410912.0,5410831.0,5410744.0,5410840.0,5410925.0,5411008.0,5411131.0,5411165.0,5411188.0,5410892.0,5410607.0,5410874.0,5411485.0,5411515.0,5411515.0,5411050.0,5409378.0,5413325.0,5411267.0,5411111.0,5411007.0,5410713.0,5410302.0,5410004.0,5409250.0,5408586.0,5408341.0,5408656.0,5409357.0,5410529.0,5411148.0,5411220.0,5411186.0,5411176.0,5410970.0,5410999.0,5411162.0,5411287.0,5411309.0,5411441.0,5411373.0,5411395.0,5411378.0,5410988.0,5410911.0,5411337.0,5411598.0,5411655.0,5411863.0,5409955.0,5410815.0,5410295.0,5411201.0,5411111.020:26:15,5410836.0,5408733.0,5408468.0,5408583.0,5409090.0,5410142.0,5410996.0,5411048.0,5411107.0,5410980.0,5410924.0,5410896.0,5411102.0,5410976.0,5411128.0,5411229.0,5411226.0,5411216.0,5411194.0,5411102.0,5410786.0,5410715.0,5411110.0,5411324.0,5411364.0,5411603.0,5409159.0,5411287.0,5410286.0,5410914.0,5410928.0,5410701.0,5410525.0,5410169.0,5409616.0,5408827.0,5408423.0,5408353.0,5408749.0,5409589.0,5410630.0,5410962.0,5410958.0,5410844.0,5410741.0,5410715.0,5410771.0,5410834.0,5411065.0,5411088.0,5411126.0,5411125.0,5411094.0,5410942.0,5410585.0,5410686.0,5411318.0,5411363.0,5411435.0,5411555.0,5408456.0,5412880.0,5411124.0,5410987.0,5410900.0,5410596.0,5410378.0,5409923.0,5409396.0,5408604.0,5408265.0,5408421.0,5409015.0,5410163.0,5410951.0,5411161.0,5410973.0,5410965.0,5410852.0,5410885.0,5411016.0,5411055.0,5411189.0,5411252.0,5411259.0,5411201.0,5411256.0,5411097.0,5410736.0,5411040.0,5411553.0,5411463.0,5411658.0,5410920.0,5409837.0,5413610.0,5411390.0,5411199.0,5410939.0,5410792.020:26:18,5410387.0,5408417.0,5408904.0,5409943.0,5410860.0,5411289.0,5411208.0,5411060.0,5410923.0,5410932.0,5410961.0,5411123.0,5411146.0,5411242.0,5411243.0,5411265.0,5411179.0,5411180.0,5410730.0,5410860.0,5411367.0,5411369.0,5411425.0,5411413.0,5408384.0,5413445.0,5411112.0,5411025.0,5410908.0,5410688.0,5410297.0,5409938.0,5409358.0,5408650.0,5408255.0,5408492.0,5408930.0,5410070.0,5410732.0,5410994.0,5410867.0,5410668.0,5410644.0,5410719.0,5410836.0,5410865.0,5410990.0,5410997.0,5410994.0,5410911.0,5410462.0,5410548.0,5411077.0,5411126.0,5411303.0,5411035.0,5408276.0,5413590.0,5410864.0,5410781.0,5410614.0,5410526.0,5410276.0,5409634.0,5409088.0,5408409.0,5408022.0,5408209.0,5408847.0,5409968.0,5410814.0,5410969.0,5410904.0,5410719.0,5410618.0,5410740.0,5410821.0,5410915.0,5410921.0,5410939.0,5410754.0,5410415.0,5410761.0,5411260.0,5411291.0,5411331.0,5410660.0,5409328.0,5413318.0,5411137.0,5410909.0,5410865.0,5410561.0,5410302.0,5409786.0,5409067.0,5408397.0,5408239.0,5408454.0,5409396.020:26:20,5410594.0,5410894.0,5410865.0,5411000.0,5411158.0,5411220.0,5411188.0,5411244.0,5410620.0,5410765.0,5411444.0,5411470.0,5411640.0,5411520.0,5408975.0,5413034.0,5411176.0,5411187.0,5411058.0,5410873.0,5410518.0,5409990.0,5409481.0,5408679.0,5408384.0,5408592.0,5409261.0,5410288.0,5411060.0,5411213.0,5411139.0,5410954.0,5410979.0,5410995.0,5411091.0,5411283.0,5411287.0,5411331.0,5411364.0,5411074.0,5410788.0,5411235.0,5411568.0,5411607.0,5411682.0,5410434.0,5410337.0,5410632.0,5411193.0,5411145.0,5411039.0,5410731.0,5410366.0,5409808.0,5409178.0,5408615.0,5408535.0,5408836.0,5409618.0,5410734.0,5411092.0,5411138.0,5411015.0,5410897.0,5410898.0,5411020.0,5411098.0,5411225.0,5411298.0,5411226.0,5410927.0,5410718.0,5411108.0,5411434.0,5411483.0,5411549.0,5410205.0,5410499.0,5410775.0,5411159.0,5411133.0,5410885.0,5410712.0,5410407.0,5409862.0,5409392.0,5408795.0,5408735.0,5409095.0,5409996.0,5410938.0,5411347.0,5411410.0,5411391.0,5411343.0,5411371.0,5411411.0,5411632.0,5411698.0,5411812.020:26:22,5411474.0,5412259.0,5412379.0,5409784.0,5412547.0,5411190.0,5411981.0,5411998.0,5411809.0,5411574.0,5411168.0,5410716.0,5409982.0,5409592.0,5409746.0,5410148.0,5411177.0,5412082.0,5412380.0,5412299.0,5412136.0,5412122.0,5412076.0,5412219.0,5412389.0,5412277.0,5412273.0,5411805.0,5412064.0,5412644.0,5412777.0,5412707.0,5412542.0,5410445.0,5414438.0,5412560.0,5412325.0,5412213.0,5411987.0,5411638.0,5411142.0,5410510.0,5409878.0,5409570.0,5409848.0,5410637.0,5411757.0,5412291.0,5412410.0,5412288.0,5412132.0,5412138.0,5412106.0,5412275.0,5412382.0,5412340.0,5412287.0,5411838.0,5412127.0,5412645.0,5412591.0,5412777.0,5411994.0,5410760.0,5414645.0,5412468.0,5412287.0,5412059.0,5411811.0,5411495.0,5411004.0,5410300.0,5409687.0,5409477.0,5409683.0,5410449.0,5411571.0,5412014.0,5412155.0,5412002.0,5411905.0,5411819.0,5412032.0,5411996.0,5412216.0,5412183.0,5412101.0,5412248.0,5411616.0,5411782.0,5412332.0,5412424.0,5412509.0,5412701.0,5409829.0,5413803.0,5412134.0,5411980.0,5411801.0,5411558.020:26:24,5411221.0,5409314.0,5409518.0,5410309.0,5411437.0,5411747.0,5411778.0,5411565.0,5411553.0,5411516.0,5411551.0,5411787.0,5411737.0,5411805.0,5411825.0,5411814.0,5411324.0,5411370.0,5411772.0,5411994.0,5412027.0,5412296.0,5409123.0,5412595.0,5410894.0,5411492.0,5411260.0,5411057.0,5410745.0,5410266.0,5409645.0,5409067.0,5408691.0,5408627.0,5409077.0,5409809.0,5410657.0,5410897.0,5410786.0,5410677.0,5410698.0,5410739.0,5410909.0,5410944.0,5411057.0,5411161.0,5411007.0,5410886.0,5410492.0,5410595.0,5411171.0,5411227.0,5411377.0,5410834.0,5408999.0,5414371.0,5411153.0,5410774.0,5410641.0,5410435.0,5410151.0,5409614.0,5409066.0,5408384.0,5408173.0,5408209.0,5408871.0,5409881.0,5410459.0,5410452.0,5410329.0,5410164.0,5410100.0,5410078.0,5410203.0,5410211.0,5410359.0,5410276.0,5409897.0,5409715.0,5409938.0,5410138.0,5410208.0,5410365.0,5409191.0,5408788.0,5410064.0,5409859.0,5409734.0,5409583.0,5409222.0,5408824.0,5408210.0,5407536.0,5406931.0,5406854.0,5407270.0,5408155.0,5409079.0,5409460.020:26:26,5409356.0,5409355.0,5409422.0,5409519.0,5409483.0,5409321.0,5409024.0,5409412.0,5409755.0,5409807.0,5409830.0,5408664.0,5409299.0,5409032.0,5409365.0,5409190.0,5409026.0,5408737.0,5408335.0,5407794.0,5407145.0,5406624.0,5406563.0,5406932.0,5407847.0,5408855.0,5409253.0,5409229.0,5408989.0,5408992.0,5408972.0,5408992.0,5409133.0,5409197.0,5409164.0,5409084.0,5408639.0,5408552.0,5409049.0,5409327.0,5409324.0,5409550.0,5406618.0,5409680.0,5408074.0,5408834.0,5408758.0,5408564.0,5408122.0,5407785.0,5407242.0,5406563.0,5406157.0,5406224.0,5406539.0,5407581.0,5408344.0,5408553.0,5408513.0,5408511.0,5408324.0,5408439.0,5408506.0,5408572.0,5408564.0,5408676.0,5408353.0,5408233.0,5408532.0,5408857.0,5408911.0,5409028.0,5407082.0,5408680.0,5407758.0,5408427.0,5408374.0,5408052.0,5407890.0,5407385.0,5406921.0,5406218.0,5405867.0,5405882.0,5406134.0,5407028.0,5407837.0,5408069.0,5407930.0,5407882.0,5407860.0,5407804.0,5407992.0,5408111.0,5408072.0,5408145.0,5407617.0,5407755.0,5408325.0,5408378.020:26:28,5408380.0,5408145.0,5408018.0,5407839.0,5407510.0,5407153.0,5406683.0,5405992.0,5405488.0,5405564.0,5405914.0,5406801.0,5407809.0,5408090.0,5408053.0,5407923.0,5407880.0,5407906.0,5408016.0,5408056.0,5408138.0,5407803.0,5407865.0,5408252.0,5408533.0,5408564.0,5408886.0,5406171.0,5409230.0,5407884.0,5408334.0,5408326.0,5408086.0,5407854.0,5407422.0,5406820.0,5406262.0,5406008.0,5406152.0,5406767.0,5407862.0,5408623.0,5408842.0,5408894.0,5408712.0,5408687.0,5408760.0,5408855.0,5408873.0,5408732.0,5408365.0,5408775.0,5409221.0,5409278.0,5409340.0,5408553.0,5407730.0,5410798.0,5408976.0,5408775.0,5408554.0,5408337.0,5407980.0,5407376.0,5406776.0,5406187.0,5406185.0,5406360.0,5407246.0,5408254.0,5408774.0,5408688.0,5408532.0,5408481.0,5408407.0,5408565.0,5408689.0,5408779.0,5408600.0,5408193.0,5408540.0,5408987.0,5408995.0,5409072.0,5408517.0,5406999.0,5411042.0,5408820.0,5408643.0,5408429.0,5408271.0,5407788.0,5407406.0,5406696.0,5406171.0,5406060.0,5406263.0,5407074.0,5408027.0,5408597.020:26:31,5408547.0,5408632.0,5408708.0,5408797.0,5408773.0,5408246.0,5408535.0,5409122.0,5409158.0,5409272.0,5409056.0,5406853.0,5411676.0,5409059.0,5408865.0,5408804.0,5408574.0,5408220.0,5407815.0,5407182.0,5406627.0,5406546.0,5406755.0,5407282.0,5408366.0,5408872.0,5408978.0,5408881.0,5408828.0,5408918.0,5409082.0,5409121.0,5409155.0,5409308.0,5408711.0,5408868.0,5409470.0,5409612.0,5409632.0,5409554.0,5406604.0,5412524.0,5409496.0,5409384.0,5409205.0,5409059.0,5408725.0,5408354.0,5407766.0,5407150.0,5407064.0,5407277.0,5407978.0,5408908.0,5409592.0,5409530.0,5409567.0,5409414.0,5409423.0,5409502.0,5409584.0,5409662.0,5409513.0,5409382.0,5409784.0,5410083.0,5410253.0,5410331.0,5408725.0,5409848.0,5408979.0,5409893.0,5409934.0,5409684.0,5409523.0,5408971.0,5408523.0,5407857.0,5407525.0,5407623.0,5408110.0,5409115.0,5409939.0,5410204.0,5410078.0,5410027.0,5410060.0,5410065.0,5410212.0,5410285.0,5410108.0,5409859.0,5410352.0,5410677.0,5410771.0,5410855.0,5410237.0,5409166.0,5412445.0,5410680.020:26:33,5410498.0,5408811.0,5408146.0,5408033.0,5408222.0,5408993.0,5410092.0,5410618.0,5410642.0,5410573.0,5410431.0,5410524.0,5410675.0,5410717.0,5410817.0,5410902.0,5410447.0,5410574.0,5411177.0,5411322.0,5411373.0,5411800.0,5409051.0,5412696.0,5411015.0,5411157.0,5410942.0,5410721.0,5410388.0,5409961.0,5409475.0,5408776.0,5408569.0,5408762.0,5409364.0,5410437.0,5411122.0,5411160.0,5411064.0,5410987.0,5410989.0,5411092.0,5411194.0,5411265.0,5411359.0,5411440.0,5411331.0,5410843.0,5411040.0,5411632.0,5411689.0,5411770.0,5412229.0,5408907.0,5413377.0,5411294.0,5411302.0,5411246.0,5411004.0,5410650.0,5410410.0,5409735.0,5409317.0,5408989.0,5409231.0,5409568.0,5410353.0,5411285.0,5411374.0,5411319.0,5411210.0,5411224.0,5411230.0,5411338.0,5411519.0,5411580.0,5411612.0,5411727.0,5411651.0,5411359.0,5411235.0,5411589.0,5411884.0,5411877.0,5412017.0,5410695.0,5410914.0,5411170.0,5411702.0,5411671.0,5411472.0,5411250.0,5410868.0,5410468.0,5409768.0,5409375.0,5409376.0,5409606.0,5410345.0,5411300.020:26:35,5411636.0,5411480.0,5411655.0,5411686.0,5411808.0,5411890.0,5412000.0,5411938.0,5411665.0,5411520.0,5411934.0,5412143.0,5412191.0,5412430.0,5411341.0,5410993.0,5410950.0,5411847.0,5411922.0,5411682.0,5411399.0,5411151.0,5410676.0,5410021.0,5409392.0,5409526.0,5409747.0,5410645.0,5411586.0,5411965.0,5412005.0,5411821.0,5411659.0,5411742.0,5411826.0,5412001.0,5412085.0,5412116.0,5412212.0,5412243.0,5412222.0,5412280.0,5412255.0,5412222.0,5412180.0,5411733.0,5411827.0,5412244.0,5412477.0,5412566.0,5412846.0,5410157.0,5412868.0,5411537.0,5412280.0,5412193.0,5412003.0,5411651.0,5411370.0,5410866.0,5410244.0,5409790.0,5409717.0,5409991.0,5410784.0,5411766.0,5412105.0,5412163.0,5412050.0,5411945.0,5411978.0,5412103.0,5412223.0,5412332.0,5412396.0,5412421.0,5412381.0,5412521.0,5412466.0,5412521.0,5412527.0,5412444.0,5412234.0,5411884.0,5412270.0,5412719.0,5412689.0,5412729.0,5412196.0,5410669.0,5415185.0,5412460.0,5412244.0,5412233.0,5411918.0,5411620.0,5411136.0,5410691.0,5410116.0,5409826.020:26:37,5409942.0,5412076.0,5411777.0,5411681.0,5411653.0,5411674.0,5411721.0,5411915.0,5411893.0,5411935.0,5411908.0,5411943.0,5411808.0,5411730.0,5411184.0,5411484.0,5411897.0,5411960.0,5411988.0,5411944.0,5408842.0,5414344.0,5411549.0,5411656.0,5411449.0,5411218.0,5411075.0,5410571.0,5410150.0,5409555.0,5409209.0,5409287.0,5409721.0,5410580.0,5411391.0,5411603.0,5411465.0,5411363.0,5411242.0,5411264.0,5411352.0,5411493.0,5411609.0,5411697.0,5411680.0,5411624.0,5411777.0,5411634.0,5411135.0,5411210.0,5411745.0,5411900.0,5411988.0,5412278.0,5409523.0,5412739.0,5411445.0,5411582.0,5411514.0,5411286.0,5411012.0,5410653.0,5410087.0,5409472.0,5409009.0,5409106.0,5409509.0,5410272.0,5411269.0,5411614.0,5411520.0,5411246.0,5411230.0,5411253.0,5411300.0,5411508.0,5411521.0,5411622.0,5411654.0,5411681.0,5411638.0,5411613.0,5411628.0,5411183.0,5411152.0,5411616.0,5411849.0,5411887.0,5412233.0,5409499.0,5412846.0,5411291.0,5411578.0,5411458.0,5411308.0,5410968.0,5410654.0,5410139.0,5409458.0,5409120.020:26:39,5409064.0,5411491.0,5411390.0,5411220.0,5411113.0,5411343.0,5411418.0,5411485.0,5411691.0,5411614.0,5411718.0,5411619.0,5411767.0,5411701.0,5411371.0,5411023.0,5411379.0,5411817.0,5411757.0,5411882.0,5411071.0,5409752.0,5413189.0,5411641.0,5411398.0,5411271.0,5411089.0,5410881.0,5410320.0,5409927.0,5409295.0,5409169.0,5409322.0,5409731.0,5410539.0,5411233.0,5411463.0,5411285.0,5411262.0,5411197.0,5411197.0,5411371.0,5411572.0,5411597.0,5411656.0,5411720.0,5411730.0,5411417.0,5411105.0,5411513.0,5411828.0,5411990.0,5412055.0,5411234.0,5410159.0,5412745.0,5411796.0,5411657.0,5411496.0,5411321.0,5410954.0,5410641.0,5409907.0,5409534.0,5409468.0,5409687.0,5410179.0,5411071.0,5411776.0,5411796.0,5411618.0,5411593.0,5411543.0,5411667.0,5411813.0,5411913.0,5411998.0,5412000.0,5412067.0,5412082.0,5411871.0,5411672.0,5412023.0,5412379.0,5412409.0,5412574.0,5411169.0,5411652.0,5411276.0,5412218.0,5412112.0,5411964.0,5411696.0,5411339.0,5410929.0,5410390.0,5409809.0,5409841.0,5410150.0,5410862.020:26:42,5411774.0,5412009.0,5412198.0,5412243.0,5412446.0,5412571.0,5412609.0,5412596.0,5412653.0,5412689.0,5412620.0,5412271.0,5412263.0,5412515.0,5412901.0,5412916.0,5413154.0,5410411.0,5413129.0,5411863.0,5412608.0,5412552.0,5412433.0,5412120.0,5411656.0,5411298.0,5410629.0,5410302.0,5410248.0,5410502.0,5411058.0,5412101.0,5412400.0,5412455.0,5412346.0,5412365.0,5412352.0,5412534.0,5412587.0,5412671.0,5412701.0,5412795.0,5412752.0,5412744.0,5412717.0,5412707.0,5412492.0,5412200.0,5412593.0,5412793.0,5412749.0,5412958.0,5410212.0,5412784.0,5411353.0,5412247.0,5412061.0,5411888.0,5411566.0,5411132.0,5410604.0,5409970.0,5409469.0,5409409.0,5409477.0,5410041.0,5410900.0,5411209.0,5411150.0,5410954.0,5410919.0,5410796.0,5410844.0,5411048.0,5411018.0,5411059.0,5410956.0,5411042.0,5411042.0,5411042.0,5410751.0,5410717.0,5411034.0,5411431.0,5411439.0,5411640.0,5409316.0,5411453.0,5410437.0,5411408.0,5411525.0,5411229.0,5411091.0,5410818.0,5410475.0,5409832.0,5409472.0,5409581.0,5409925.0,5410749.020:26:44,5411766.0,5411947.0,5411979.0,5412118.0,5412225.0,5412150.0,5412175.0,5412226.0,5412273.0,5412198.0,5412133.0,5411512.0,5411634.0,5411929.0,5412176.0,5412102.0,5412456.0,5409592.0,5413076.0,5411248.0,5411481.0,5411253.0,5411034.0,5410639.0,5410136.0,5409516.0,5408774.0,5408502.0,5408536.0,5408791.0,5409468.0,5410183.0,5410412.0,5410287.0,5410124.0,5410066.0,5410100.0,5410047.0,5410159.0,5410085.0,5410188.0,5410052.0,5409964.0,5409791.0,5409818.0,5409250.0,5409317.0,5409801.0,5409766.0,5409686.0,5409617.0,5406785.0,5412218.0,5409335.0,5409096.0,5408931.0,5408706.0,5408344.0,5407897.0,5407255.0,5406661.0,5406246.0,5406364.0,5406717.0,5407485.0,5408176.0,5408367.0,5408210.0,5408089.0,5407995.0,5407962.0,5408105.0,5408020.0,5408090.0,5408090.0,5407887.0,5407810.0,5407411.0,5407253.0,5407681.0,5407905.0,5407901.0,5408057.0,5405031.0,5408692.0,5406885.0,5407320.0,5407050.0,5406884.0,5406615.0,5406180.0,5405643.0,5404927.0,5404538.0,5404609.0,5404999.0,5405699.0,5406696.0,5406942.0,5406809.020:26:46,5406717.0,5406969.0,5407025.0,5406949.0,5406912.0,5406880.0,5406828.0,5406264.0,5406374.0,5406775.0,5406833.0,5406943.0,5407188.0,5404413.0,5407847.0,5406052.0,5406436.0,5406165.0,5405906.0,5405619.0,5405135.0,5404566.0,5403853.0,5403418.0,5403469.0,5403832.0,5404527.0,5405524.0,5405749.0,5405724.0,5405641.0,5405576.0,5405585.0,5405609.0,5405774.0,5405821.0,5405817.0,5405829.0,5405757.0,5405792.0,5405744.0,5405419.0,5405066.0,5405298.0,5405755.0,5405840.0,5405795.0,5405118.0,5403752.0,5408350.0,5405646.0,5405318.0,5405238.0,5405145.0,5404616.0,5404154.0,5403500.0,5402958.0,5402779.0,5403002.0,5403275.0,5404149.0,5404865.0,5404971.0,5404942.0,5404741.0,5404747.0,5404805.0,5404843.0,5404853.0,5404847.0,5404965.0,5404897.0,5404903.0,5404766.0,5404761.0,5404231.0,5404400.0,5404801.0,5404899.0,5404964.0,5404514.0,5402544.0,5407192.0,5404638.0,5404352.0,5404179.0,5403943.0,5403582.0,5403115.0,5402477.0,5401869.0,5401531.0,5401700.0,5402123.0,5403117.0,5403792.0,5403888.0,5403747.0,5403701.020:26:48,5403551.0,5403815.0,5403776.0,5403840.0,5403840.0,5403769.0,5403720.0,5403580.0,5403414.0,5403108.0,5403349.0,5403706.0,5403813.0,5403944.0,5402220.0,5403634.0,5402638.0,5403379.0,5403276.0,5402998.0,5402717.0,5402239.0,5401741.0,5401022.0,5400482.0,5400405.0,5400623.0,5401222.0,5402219.0,5402712.0,5402754.0,5402460.0,5402489.0,5402569.0,5402484.0,5402559.0,5402728.0,5402730.0,5402813.0,5402803.0,5402724.0,5402831.0,5402832.0,5402697.0,5402102.0,5402328.0,5402840.0,5402975.0,5402969.0,5403300.0,5400450.0,5404973.0,5402600.0,5402539.0,5402512.0,5402160.0,5401899.0,5401440.0,5400891.0,5400200.0,5399832.0,5400048.0,5400345.0,5401118.0,5402099.0,5402303.0,5402241.0,5402220.0,5402136.0,5402192.0,5402288.0,5402252.0,5402434.0,5402478.0,5402529.0,5402466.0,5402236.0,5401979.0,5402232.0,5402694.0,5402671.0,5402738.0,5401706.0,5400873.0,5405277.0,5402416.0,5402142.0,5402017.0,5401783.0,5401314.0,5400942.0,5400230.0,5399667.0,5399513.0,5399856.0,5400353.0,5401439.0,5401951.0,5402030.0,5401982.020:26:50,5401868.0,5402154.0,5402221.0,5402199.0,5402036.0,5401594.0,5401813.0,5402337.0,5402393.0,5402427.0,5401784.0,5400453.0,5404602.0,5402266.0,5401885.0,5401780.0,5401463.0,5401171.0,5400681.0,5400022.0,5399352.0,5399105.0,5399380.0,5399902.0,5401045.0,5401704.0,5401767.0,5401651.0,5401563.0,5401584.0,5401665.0,5401746.0,5401977.0,5401963.0,5401894.0,5401732.0,5401320.0,5401591.0,5402027.0,5402126.0,5402314.0,5401759.0,5400428.0,5404583.0,5402072.0,5401917.0,5401676.0,5401432.0,5401045.0,5400533.0,5399952.0,5399329.0,5399021.0,5399178.0,5399948.0,5401114.0,5401682.0,5401712.0,5401699.0,5401617.0,5401664.0,5401823.0,5401885.0,5402002.0,5402079.0,5402128.0,5401843.0,5401495.0,5401930.0,5402239.0,5402375.0,5402530.0,5401676.0,5400714.0,5404846.0,5402268.0,5402048.0,5401975.0,5401652.0,5401362.0,5400851.0,5400250.0,5399724.0,5399545.0,5399881.0,5400315.0,5401420.0,5402066.0,5402110.0,5401886.0,5401794.0,5401908.0,5401969.0,5402012.0,5402114.0,5402189.0,5402190.0,5402080.0,5401836.0,5401643.020:26:52,5402043.0,5399277.0,5405127.0,5402007.0,5401775.0,5401662.0,5401488.0,5401096.0,5400689.0,5400140.0,5399436.0,5399308.0,5399431.0,5399932.0,5400888.0,5401650.0,5401779.0,5401685.0,5401569.0,5401636.0,5401662.0,5401843.0,5401892.0,5401961.0,5402054.0,5402108.0,5401951.0,5401583.0,5401897.0,5402277.0,5402399.0,5402485.0,5402029.0,5399866.0,5404480.0,5402315.0,5402157.0,5402008.0,5401719.0,5401360.0,5400905.0,5400292.0,5399723.0,5399436.0,5399721.0,5400298.0,5401271.0,5402031.0,5402183.0,5402093.0,5402021.0,5402066.0,5402138.0,5402180.0,5402338.0,5402466.0,5402453.0,5402499.0,5402519.0,5402553.0,5402521.0,5402344.0,5402114.0,5402471.0,5402814.0,5402827.0,5402996.0,5401603.0,5401935.0,5401672.0,5402516.0,5402463.0,5402320.0,5401989.0,5401649.0,5401163.0,5400423.0,5399956.0,5399894.0,5400207.0,5401067.0,5402090.0,5402572.0,5402581.0,5402497.0,5402431.0,5402521.0,5402603.0,5402739.0,5402826.0,5402923.0,5403070.0,5403094.0,5403025.0,5403085.0,5403113.0,5403190.0,5403146.0,5402895.0,5402600.020:26:55,5402955.0,5401623.0,5403002.0,5402276.0,5403201.0,5403113.0,5402937.0,5402648.0,5402337.0,5401839.0,5401211.0,5400688.0,5400750.0,5401067.0,5401810.0,5402827.0,5403357.0,5403398.0,5403324.0,5403292.0,5403284.0,5403427.0,5403521.0,5403721.0,5403715.0,5403815.0,5403919.0,5403984.0,5403921.0,5403992.0,5404031.0,5403673.0,5403531.0,5403833.0,5404189.0,5404296.0,5404382.0,5403145.0,5403141.0,5404194.0,5404197.0,5403894.0,5403813.0,5403628.0,5403339.0,5402799.0,5402250.0,5401644.0,5401666.0,5401973.0,5402404.0,5403531.0,5404229.0,5404336.0,5404219.0,5404077.0,5404190.0,5404090.0,5404274.0,5404412.0,5404437.0,5404504.0,5404576.0,5404633.0,5404651.0,5404355.0,5404247.0,5404524.0,5404872.0,5404869.0,5405086.0,5404022.0,5403216.0,5404394.0,5404649.0,5404584.0,5404402.0,5404173.0,5403841.0,5403386.0,5402641.0,5402030.0,5401981.0,5402255.0,5403059.0,5404123.0,5404776.0,5404755.0,5404680.0,5404522.0,5404439.0,5404651.0,5404776.0,5404830.0,5404897.0,5404940.0,5404958.0,5405079.0,5405026.0,5405044.020:26:57,5405011.0,5405207.0,5405353.0,5404789.0,5403774.0,5407212.0,5405096.0,5404963.0,5404826.0,5404625.0,5404226.0,5403752.0,5403188.0,5402492.0,5402160.0,5402358.0,5402939.0,5404057.0,5404767.0,5405062.0,5404874.0,5404889.0,5404904.0,5404840.0,5404979.0,5405077.0,5405100.0,5405123.0,5405232.0,5405246.0,5405282.0,5405263.0,5405306.0,5404755.0,5404875.0,5405292.0,5405403.0,5405511.0,5405752.0,5402589.0,5406217.0,5404373.0,5405146.0,5405009.0,5404855.0,5404616.0,5404246.0,5403672.0,5402978.0,5402512.0,5402555.0,5402858.0,5403652.0,5404725.0,5405167.0,5405100.0,5405070.0,5404957.0,5404949.0,5405101.0,5405146.0,5405317.0,5405434.0,5405457.0,5405434.0,5405379.0,5404946.0,5404963.0,5405299.0,5405590.0,5405577.0,5405821.0,5402768.0,5406380.0,5404279.0,5405123.0,5404986.0,5404756.0,5404524.0,5404142.0,5403618.0,5402778.0,5402324.0,5402339.0,5402752.0,5403643.0,5404621.0,5404890.0,5404837.0,5404654.0,5404680.0,5404532.0,5404587.0,5404676.0,5404752.0,5404769.0,5404681.0,5404717.0,5404092.0,5404248.020:26:59,5404784.0,5404029.0,5403457.0,5404373.0,5404257.0,5404017.0,5403769.0,5403364.0,5402694.0,5402052.0,5401481.0,5401400.0,5401737.0,5402528.0,5403678.0,5404167.0,5404033.0,5403895.0,5403891.0,5403873.0,5403829.0,5403953.0,5404122.0,5404021.0,5403965.0,5403964.0,5403423.0,5403508.0,5404107.0,5404198.0,5404288.0,5404584.0,5401492.0,5405386.0,5403933.0,5403760.0,5403656.0,5403444.0,5403159.0,5402733.0,5402091.0,5401405.0,5400962.0,5401121.0,5401553.0,5402710.0,5403598.0,5403799.0,5403842.0,5403741.0,5403785.0,5403754.0,5403923.0,5404015.0,5404155.0,5404163.0,5404214.0,5403622.0,5403791.0,5404411.0,5404482.0,5404591.0,5404973.0,5401978.0,5405957.0,5403938.0,5404258.0,5404224.0,5403886.0,5403615.0,5403212.0,5402612.0,5402014.0,5401606.0,5401753.0,5402171.0,5403221.0,5404101.0,5404329.0,5404260.0,5404213.0,5404112.0,5404250.0,5404250.0,5404422.0,5404480.0,5404383.0,5404401.0,5403954.0,5404001.0,5404575.0,5404675.0,5404740.0,5405020.0,5401870.0,5406002.0,5403730.0,5404287.0,5404065.0,5403948.020:27:01,5403644.0,5401591.0,5401825.0,5402373.0,5403491.0,5404108.0,5404143.0,5404002.0,5403942.0,5403872.0,5403964.0,5403978.0,5404130.0,5404074.0,5403972.0,5403618.0,5403704.0,5404242.0,5404328.0,5404436.0,5404848.0,5401900.0,5405070.0,5403647.0,5404030.0,5403990.0,5403786.0,5403364.0,5402947.0,5402436.0,5401759.0,5401198.0,5401312.0,5401883.0,5402821.0,5403766.0,5404061.0,5403942.0,5403837.0,5403800.0,5403862.0,5403973.0,5404072.0,5404131.0,5404316.0,5404201.0,5403931.0,5403854.0,5404130.0,5404495.0,5404510.0,5404679.0,5403812.0,5402345.0,5404047.0,5404253.0,5404262.0,5404100.0,5403756.0,5403430.0,5402890.0,5402325.0,5401569.0,5401484.0,5401746.0,5402554.0,5403839.0,5404288.0,5404435.0,5404276.0,5404138.0,5404200.0,5404355.0,5404401.0,5404587.0,5404657.0,5404676.0,5404777.0,5404706.0,5404831.0,5404575.0,5404319.0,5404648.0,5405122.0,5405045.0,5405176.0,5404614.0,5402792.0,5438917.0,5404957.0,5404795.0,5404617.0,5404324.0,5404039.0,5403638.0,5402933.0,5402486.0,5402231.0,5402427.0,5403096.020:27:03,5404228.0,5404782.0,5405059.0,5405204.0,5405254.0,5405322.0,5405516.0,5405378.0,5405598.0,5405528.0,5405321.0,5405256.0,5405669.0,5405949.0,5406059.0,5406141.0,5405023.0,5405028.0,5405244.0,5405797.0,5405875.0,5405568.0,5405484.0,5405171.0,5404771.0,5403997.0,5403439.0,5403336.0,5403799.0,5404571.0,5405530.0,5405968.0,5406140.0,5406042.0,5405973.0,5405885.0,5405982.0,5406168.0,5406335.0,5406317.0,5406284.0,5406436.0,5405995.0,5406134.0,5406711.0,5406744.0,5406907.0,5407263.0,5404138.0,5407240.0,5406243.0,5406567.0,5406549.0,5406447.0,5406089.0,5405699.0,5405003.0,5404439.0,5404022.0,5404081.0,5404561.0,5405807.0,5406646.0,5406902.0,5406822.0,5406664.0,5406573.0,5406742.0,5406742.0,5406873.0,5406878.0,5406900.0,5406660.0,5406520.0,5406841.0,5407118.0,5407324.0,5407239.0,5406778.0,5404205.0,5408900.0,5407111.0,5407042.0,5406887.0,5406694.0,5406327.0,5405951.0,5405141.0,5404511.0,5404340.0,5404566.0,5405273.0,5406428.0,5407069.0,5407142.0,5407071.0,5406874.0,5406875.0,5407011.0,5407091.020:27:05,5407147.0,5406967.0,5407378.0,5407451.0,5407445.0,5406787.0,5404065.0,5408224.0,5407006.0,5406777.0,5406562.0,5406304.0,5405846.0,5405295.0,5404535.0,5403645.0,5403377.0,5403552.0,5404191.0,5405136.0,5405541.0,5405425.0,5405112.0,5404789.0,5404679.0,5404475.0,5404507.0,5404387.0,5404225.0,5404089.0,5403901.0,5403390.0,5403191.0,5403254.0,5403435.0,5403339.0,5403199.0,5402372.0,5399711.0,5401925.0,5402193.0,5402073.0,5401784.0,5401342.0,5400941.0,5400408.0,5399596.0,5398801.0,5398695.0,5398870.0,5399525.0,5400490.0,5401066.0,5401033.0,5400814.0,5400751.0,5400719.0,5400786.0,5400836.0,5400962.0,5401076.0,5401046.0,5401053.0,5400775.0,5400546.0,5401064.0,5401195.0,5401354.0,5401484.0,5399540.0,5399832.0,5399952.0,5401029.0,5401002.0,5400842.0,5400527.0,5400297.0,5399691.0,5399094.0,5398653.0,5398627.0,5398982.0,5399734.0,5400593.0,5401065.0,5401109.0,5401059.0,5400938.0,5401077.0,5401088.0,5401245.0,5401297.0,5401499.0,5401383.0,5401403.0,5400913.0,5401069.0,5401603.0,5401620.0,5401726.020:27:08,5401996.0,5401382.0,5401314.0,5401076.0,5400850.0,5400327.0,5399762.0,5399263.0,5399144.0,5399345.0,5400067.0,5401013.0,5401631.0,5401531.0,5401551.0,5401398.0,5401380.0,5401494.0,5401636.0,5401687.0,5401792.0,5401500.0,5401254.0,5401643.0,5402037.0,5402136.0,5402116.0,5401503.0,5399273.0,5403413.0,5401949.0,5401713.0,5401651.0,5401426.0,5401048.0,5400632.0,5399962.0,5399281.0,5399139.0,5399392.0,5400212.0,5401246.0,5401756.0,5401772.0,5401708.0,5401623.0,5401651.0,5401740.0,5401894.0,5401952.0,5401924.0,5401757.0,5401661.0,5402000.0,5402276.0,5402357.0,5402425.0,5401753.0,5399602.0,5401808.0,5402180.0,5402078.0,5401943.0,5401702.0,5401443.0,5400895.0,5400225.0,5399731.0,5399625.0,5399929.0,5400742.0,5401757.0,5402301.0,5402243.0,5402179.0,5402111.0,5402172.0,5402304.0,5402379.0,5402464.0,5402517.0,5402349.0,5402076.0,5402676.0,5402923.0,5402959.0,5403212.0,5400650.0,5402051.0,5401360.0,5402612.0,5402553.0,5402313.0,5402128.0,5401577.0,5400869.0,5400181.0,5399756.0,5399667.0,5399951.020:27:10,5400678.0,5401053.0,5400842.0,5400942.0,5400895.0,5400731.0,5400213.0,5399872.0,5400293.0,5400328.0,5400340.0,5400322.0,5399331.0,5397577.0,5400412.0,5399614.0,5399489.0,5399228.0,5398957.0,5398552.0,5398176.0,5397539.0,5397028.0,5397171.0,5397386.0,5398259.0,5399354.0,5400245.0,5400252.0,5400474.0,5400934.0,5401219.0,5401744.0,5402269.0,5402149.0,5402375.0,5403136.0,5403793.0,5404210.0,5404498.0,5404004.0,5403491.0,5407028.0,5405122.0,5405171.0,5405097.0,5404951.0,5404713.0,5404454.0,5403744.0,5403332.0,5403309.0,5403246.0,5404067.0,5405073.0,5405548.0,5405426.0,5405170.0,5405292.0,5405065.0,5405369.0,5405079.0,5404831.0,5405221.0,5405164.0,5405292.0,5405091.0,5404060.0,5405437.0,5404439.0,5404344.0,5404302.0,5404132.0,5403607.0,5403209.0,5402794.0,5402037.0,5401458.0,5401232.0,5401619.0,5402398.0,5403132.0,5403076.0,5402992.0,5402963.0,5402736.0,5402931.0,5402575.0,5402572.0,5402827.0,5402819.0,5402819.0,5402639.0,5401119.0,5404502.0,5402248.0,5401855.0,5401676.0,5401321.0,5400989.020:27:12,5400561.0,5399467.0,5400196.0,5400776.0,5400888.0,5400656.0,5400423.0,5400398.0,5400513.0,5400329.0,5400147.0,5400488.0,5400561.0,5400581.0,5400627.0,5398498.0,5401750.0,5400140.0,5399940.0,5399867.0,5399632.0,5399407.0,5399065.0,5398426.0,5397976.0,5397756.0,5397854.0,5398244.0,5399096.0,5399528.0,5399621.0,5399413.0,5399319.0,5399328.0,5399338.0,5399484.0,5399158.0,5399378.0,5399774.0,5399962.0,5399847.0,5400241.0,5397464.0,5401849.0,5399979.0,5400024.0,5400059.0,5399937.0,5399859.0,5399493.0,5399129.0,5398778.0,5398689.0,5398964.0,5399451.0,5400272.0,5400933.0,5400982.0,5400900.0,5400883.0,5401072.0,5401166.0,5401250.0,5401412.0,5400944.0,5401178.0,5401683.0,5401763.0,5401658.0,5401414.0,5398493.0,5403418.0,5401261.0,5401190.0,5400920.0,5400677.0,5400230.0,5399870.0,5399277.0,5398726.0,5398403.0,5398528.0,5398791.0,5399521.0,5399950.0,5399861.0,5399604.0,5399422.0,5399409.0,5399518.0,5399645.0,5399570.0,5399711.0,5399097.0,5399540.0,5399800.0,5399783.0,5399894.0,5399180.0,5397589.020:27:14,5398619.0,5399228.0,5398937.0,5398397.0,5398153.0,5397965.0,5398139.0,5398534.0,5399455.0,5400125.0,5400303.0,5400198.0,5400272.0,5400305.0,5400603.0,5400815.0,5401052.0,5401366.0,5400929.0,5401209.0,5401727.0,5401666.0,5401883.0,5401661.0,5399018.0,5404282.0,5402205.0,5402167.0,5402161.0,5402102.0,5401919.0,5401600.0,5401357.0,5400942.0,5400944.0,5401163.0,5401587.0,5402381.0,5402984.0,5403147.0,5403024.0,5402997.0,5403053.0,5403262.0,5403377.0,5403490.0,5403824.0,5403214.0,5403453.0,5403658.0,5403713.0,5403753.0,5403202.0,5401098.0,5404009.0,5403552.0,5403284.0,5403141.0,5402904.0,5402699.0,5402120.0,5401782.0,5401305.0,5401121.0,5401282.0,5401535.0,5402277.0,5402791.0,5402786.0,5402578.0,5402547.0,5402463.0,5402658.0,5402687.0,5402760.0,5402830.0,5403126.0,5402463.0,5402647.0,5402842.0,5402986.0,5403060.0,5402416.0,5400776.0,5402310.0,5402896.0,5402803.0,5402660.0,5402509.0,5402243.0,5401841.0,5401410.0,5400952.0,5400864.0,5400967.0,5401339.0,5402202.0,5402616.0,5402707.0,5402597.020:27:16,5402507.0,5403100.0,5403223.0,5403207.0,5403283.0,5403077.0,5402909.0,5403341.0,5403382.0,5403466.0,5403676.0,5400353.0,5403756.0,5403344.0,5403253.0,5403202.0,5403085.0,5402908.0,5402515.0,5402171.0,5401630.0,5401378.0,5401512.0,5401607.0,5402115.0,5402849.0,5402991.0,5403047.0,5402993.0,5403068.0,5403200.0,5403364.0,5403449.0,5403556.0,5403607.0,5403596.0,5403603.0,5403623.0,5403727.0,5403753.0,5403918.0,5403263.0,5403584.0,5403773.0,5403790.0,5404023.0,5401598.0,5402765.0,5402379.0,5403594.0,5403632.0,5403526.0,5403298.0,5402980.0,5402617.0,5402186.0,5401849.0,5401908.0,5402153.0,5402304.0,5402653.0,5403112.0,5403112.0,5403093.0,5403138.0,5403329.0,5403475.0,5403596.0,5403664.0,5403687.0,5403803.0,5403801.0,5403737.0,5403842.0,5403744.0,5404011.0,5403302.0,5403671.0,5403764.0,5403795.0,5403941.0,5401345.0,5403618.0,5402482.0,5403460.0,5403444.0,5403371.0,5403149.0,5402769.0,5402456.0,5402063.0,5401800.0,5401831.0,5401988.0,5402151.0,5402546.0,5402921.0,5403076.0,5403075.0,5403194.020:27:18,5403343.0,5403765.0,5403848.0,5404017.0,5403476.0,5403552.0,5403868.0,5403851.0,5403899.0,5402357.0,5403319.0,5402763.0,5403662.0,5403578.0,5403487.0,5403278.0,5403054.0,5402708.0,5402243.0,5401922.0,5401888.0,5402187.0,5402393.0,5403027.0,5403303.0,5403404.0,5403407.0,5403572.0,5403796.0,5403908.0,5404003.0,5404116.0,5404107.0,5404236.0,5404425.0,5403997.0,5404036.0,5404210.0,5404309.0,5404422.0,5402251.0,5403047.0,5402948.0,5404031.0,5404066.0,5403943.0,5403640.0,5403488.0,5403079.0,5402584.0,5402209.0,5402298.0,5402523.0,5402815.0,5403357.0,5403728.0,5403847.0,5403856.0,5403906.0,5404049.0,5404262.0,5404384.0,5404446.0,5404483.0,5404472.0,5404479.0,5404531.0,5404685.0,5404024.0,5404285.0,5404474.0,5404415.0,5404654.0,5401660.0,5403787.0,5402875.0,5403888.0,5403755.0,5403480.0,5403212.0,5402750.0,5402362.0,5401780.0,5401458.0,5401393.0,5401532.0,5401562.0,5402025.0,5402306.0,5402363.0,5402421.0,5402486.0,5402375.0,5402695.0,5402722.0,5402710.0,5402788.0,5402862.0,5402954.0,5403256.020:27:21,5402492.0,5403269.0,5402646.0,5403947.0,5404606.0,5404724.0,5404773.0,5404691.0,5404627.0,5404380.0,5404038.0,5403856.0,5404030.0,5404405.0,5404607.0,5405090.0,5405686.0,5405971.0,5406147.0,5406338.0,5406678.0,5406892.0,5407179.0,5407296.0,5407480.0,5407777.0,5407515.0,5407347.0,5407741.0,5407769.0,5407897.0,5407578.0,5405070.0,5410723.0,5407735.0,5407677.0,5407617.0,5407516.0,5407249.0,5406867.0,5406473.0,5406170.0,5406148.0,5406176.0,5406342.0,5406563.0,5406961.0,5407390.0,5407435.0,5407552.0,5407634.0,5407927.0,5408125.0,5408134.0,5408314.0,5408352.0,5407968.0,5408229.0,5408353.0,5408261.0,5408486.0,5405629.0,5409589.0,5407652.0,5407853.0,5407833.0,5407580.0,5407344.0,5406909.0,5406547.0,5406038.0,5405920.0,5406020.0,5406193.0,5406317.0,5406911.0,5407172.0,5407231.0,5407233.0,5407353.0,5407481.0,5407442.0,5407713.0,5407720.0,5407193.0,5407391.0,5407444.0,5407445.0,5407529.0,5405057.0,5406367.0,5406095.0,5406919.0,5406838.0,5406585.0,5406254.0,5405870.0,5405297.0,5404745.0,5404493.020:27:23,5404610.0,5405689.0,5405790.0,5405786.0,5405841.0,5406017.0,5406073.0,5406117.0,5406192.0,5405512.0,5405949.0,5405952.0,5405943.0,5406090.0,5403460.0,5405379.0,5404858.0,5405406.0,5405305.0,5405146.0,5404850.0,5404457.0,5403948.0,5403426.0,5403135.0,5403278.0,5403340.0,5403524.0,5403983.0,5404249.0,5404342.0,5404466.0,5404607.0,5404622.0,5404806.0,5404734.0,5404844.0,5404494.0,5404229.0,5404853.0,5404813.0,5404907.0,5405351.0,5402278.0,5405571.0,5404243.0,5404442.0,5404441.0,5404152.0,5403866.0,5403519.0,5403010.0,5402531.0,5402492.0,5402680.0,5402778.0,5402892.0,5403375.0,5403682.0,5403880.0,5403971.0,5404137.0,5404393.0,5404467.0,5404616.0,5404525.0,5404834.0,5403987.0,5404512.0,5404931.0,5404999.0,5405040.0,5404340.0,5402836.0,5404467.0,5404813.0,5404674.0,5404548.0,5404397.0,5404084.0,5403649.0,5403114.0,5403024.0,5403083.0,5403096.0,5403091.0,5403393.0,5403776.0,5404041.0,5404123.0,5404203.0,5404316.0,5404579.0,5404495.0,5404488.0,5404597.0,5403813.0,5404308.0,5404449.0,5404460.020:27:25,5404557.0,5403894.0,5403801.0,5403637.0,5403266.0,5402878.0,5402401.0,5402018.0,5401973.0,5402216.0,5402235.0,5402495.0,5402894.0,5403172.0,5403152.0,5403367.0,5403427.0,5403549.0,5403714.0,5403793.0,5403738.0,5403786.0,5403226.0,5403686.0,5403881.0,5403943.0,5403935.0,5402680.0,5402490.0,5402424.0,5403392.0,5403320.0,5403044.0,5402770.0,5402417.0,5401787.0,5401369.0,5400988.0,5401108.0,5401299.0,5401431.0,5401887.0,5402182.0,5402235.0,5402375.0,5402459.0,5402590.0,5402852.0,5402944.0,5403049.0,5403072.0,5403188.0,5402620.0,5402940.0,5403606.0,5403746.0,5403824.0,5403496.0,5401853.0,5405374.0,5404302.0,5404297.0,5404292.0,5404200.0,5404047.0,5403715.0,5403352.0,5403131.0,5403386.0,5403666.0,5403969.0,5404471.0,5404995.0,5405241.0,5405504.0,5405733.0,5405974.0,5406222.0,5406423.0,5406658.0,5406681.0,5406727.0,5406748.0,5406276.0,5406399.0,5407050.0,5407233.0,5407284.0,5407603.0,5404527.0,5408809.0,5406956.0,5407007.0,5406801.0,5406523.0,5406214.0,5405800.0,5405185.0,5404822.0,5404788.020:27:27,5405023.0,5406079.0,5406142.0,5406291.0,5406432.0,5406590.0,5406645.0,5406676.0,5406605.0,5406636.0,5406016.0,5406308.0,5406721.0,5406782.0,5406768.0,5406177.0,5403840.0,5409052.0,5406392.0,5406138.0,5405820.0,5405682.0,5405349.0,5404821.0,5404253.0,5404025.0,5404043.0,5404189.0,5404254.0,5404583.0,5405031.0,5405125.0,5405234.0,5405285.0,5405290.0,5405392.0,5405324.0,5405483.0,5405326.0,5405383.0,5404728.0,5404755.0,5405323.0,5405296.0,5405299.0,5404900.0,5402355.0,5407247.0,5404900.0,5404714.0,5404641.0,5404377.0,5403952.0,5403410.0,5402897.0,5402411.0,5402406.0,5402600.0,5402803.0,5403220.0,5403621.0,5403864.0,5403715.0,5403878.0,5403948.0,5404117.0,5404181.0,5404211.0,5404091.0,5404089.0,5403529.0,5403569.0,5404050.0,5404159.0,5404143.0,5404298.0,5400843.0,5404923.0,5403689.0,5403597.0,5403365.0,5403090.0,5402740.0,5402279.0,5401672.0,5401207.0,5401120.0,5401424.0,5401669.0,5402135.0,5402579.0,5402766.0,5402791.0,5402856.0,5403003.0,5403170.0,5403239.0,5403237.0,5403143.0,5403060.020:27:29,5402664.0,5403379.0,5402556.0,5400991.0,5402658.0,5402973.0,5402770.0,5402587.0,5402301.0,5401979.0,5401436.0,5400748.0,5400397.0,5400433.0,5400665.0,5400976.0,5401594.0,5402001.0,5402034.0,5402008.0,5402119.0,5402306.0,5402456.0,5402485.0,5402565.0,5402528.0,5402579.0,5402450.0,5402169.0,5401997.0,5402375.0,5402635.0,5402665.0,5402946.0,5399798.0,5403518.0,5401506.0,5402169.0,5402096.0,5401747.0,5401512.0,5401152.0,5400608.0,5400198.0,5400038.0,5400207.0,5400382.0,5400712.0,5401282.0,5401599.0,5401584.0,5401659.0,5401714.0,5401868.0,5402044.0,5402096.0,5402208.0,5402143.0,5402182.0,5401778.0,5401833.0,5402122.0,5402432.0,5402400.0,5402649.0,5399676.0,5403347.0,5401318.0,5402001.0,5401954.0,5401690.0,5401464.0,5401084.0,5400465.0,5400045.0,5399955.0,5400188.0,5400420.0,5400914.0,5401529.0,5401692.0,5401707.0,5401663.0,5401853.0,5402013.0,5402148.0,5402281.0,5402339.0,5402371.0,5402145.0,5401887.0,5402184.0,5402592.0,5402677.0,5402717.0,5401896.0,5400547.0,5402003.0,5402489.0,5402380.020:27:31,5402145.0,5400279.0,5400090.0,5400292.0,5400596.0,5401274.0,5402042.0,5402213.0,5402191.0,5402264.0,5402433.0,5402565.0,5402688.0,5402794.0,5402877.0,5402936.0,5402900.0,5402400.0,5402478.0,5403114.0,5403269.0,5403277.0,5403688.0,5400675.0,5404079.0,5402894.0,5402957.0,5402856.0,5402592.0,5402319.0,5401863.0,5401309.0,5400662.0,5400628.0,5400900.0,5401238.0,5401959.0,5402556.0,5402737.0,5402775.0,5402831.0,5403076.0,5403288.0,5403361.0,5403584.0,5403578.0,5403622.0,5403679.0,5403236.0,5403287.0,5403920.0,5404097.0,5404218.0,5404684.0,5401756.0,5405651.0,5403902.0,5404128.0,5404071.0,5403794.0,5403575.0,5403238.0,5402634.0,5402090.0,5402069.0,5402393.0,5402679.0,5403438.0,5404023.0,5404170.0,5404296.0,5404378.0,5404552.0,5404769.0,5404805.0,5404956.0,5405019.0,5405043.0,5404817.0,5404422.0,5404885.0,5405201.0,5405183.0,5405315.0,5404480.0,5403165.0,5406727.0,5405032.0,5404830.0,5404671.0,5404444.0,5404107.0,5403498.0,5402955.0,5402574.0,5402655.0,5402876.0,5403318.0,5404079.0,5404572.020:27:34,5404524.0,5404815.0,5405041.0,5405036.0,5404787.0,5404433.0,5404851.0,5405250.0,5405259.0,5405274.0,5404627.0,5402979.0,5404880.0,5405087.0,5404917.0,5404814.0,5404536.0,5404184.0,5403671.0,5402960.0,5402586.0,5402739.0,5403087.0,5403670.0,5404584.0,5404921.0,5404890.0,5404856.0,5404965.0,5405148.0,5405344.0,5405444.0,5405516.0,5405531.0,5405281.0,5405122.0,5405617.0,5405898.0,5406001.0,5406276.0,5403456.0,5405355.0,5404806.0,5405699.0,5405661.0,5405393.0,5405108.0,5404891.0,5404161.0,5403513.0,5403329.0,5403514.0,5403818.0,5404726.0,5405563.0,5405737.0,5405755.0,5405724.0,5405856.0,5405981.0,5406076.0,5406304.0,5406236.0,5406006.0,5405713.0,5406080.0,5406467.0,5406489.0,5406486.0,5405800.0,5403492.0,5406770.0,5405972.0,5405628.0,5405288.0,5404861.0,5404289.0,5403580.0,5402680.0,5401889.0,5401743.0,5401712.0,5401957.0,5402520.0,5402579.0,5402367.0,5402017.0,5401787.0,5401789.0,5401452.0,5401318.0,5400967.0,5400803.0,5400070.0,5399954.0,5400330.0,5400213.0,5400130.0,5399814.0,5396965.020:27:36,5401934.0,5399220.0,5399031.0,5398713.0,5398464.0,5398587.0,5399217.0,5399987.0,5401181.0,5402583.0,5403366.0,5404096.0,5404592.0,5405401.0,5406187.0,5406911.0,5407606.0,5408359.0,5408695.0,5408938.0,5409864.0,5410717.0,5411315.0,5411850.0,5411704.0,5409819.0,5414378.0,5413039.0,5413059.0,5413131.0,5413110.0,5412934.0,5412532.0,5411919.0,5411585.0,5411603.0,5411977.0,5412651.0,5413642.0,5414133.0,5414130.0,5413973.0,5413916.0,5413991.0,5414003.0,5413960.0,5413917.0,5413783.0,5413618.0,5413445.0,5412898.0,5412684.0,5412930.0,5412945.0,5412772.0,5412963.0,5409735.0,5411834.0,5411147.0,5411175.0,5410757.0,5410249.0,5409619.0,5408893.0,5407992.0,5407102.0,5406592.0,5406498.0,5406756.0,5407371.0,5407793.0,5407660.0,5407351.0,5407073.0,5406904.0,5406774.0,5406685.0,5406516.0,5406253.0,5406039.0,5405858.0,5405545.0,5405248.0,5404685.0,5404353.0,5404535.0,5404556.0,5404512.0,5404566.0,5401313.0,5403787.0,5402622.0,5402860.0,5402421.0,5402079.0,5401445.0,5400833.0,5399896.0,5399018.0,5398697.020:27:38,5398723.0,5399931.0,5399874.0,5399652.0,5399536.0,5399569.0,5399412.0,5399386.0,5399426.0,5399224.0,5399043.0,5398813.0,5398601.0,5398023.0,5398035.0,5398310.0,5398195.0,5398160.0,5397980.0,5394755.0,5400087.0,5397216.0,5397090.0,5396837.0,5396493.0,5395994.0,5395530.0,5394842.0,5394157.0,5393914.0,5394046.0,5394344.0,5395040.0,5395677.0,5395677.0,5395447.0,5395423.0,5395384.0,5395362.0,5395450.0,5395520.0,5395388.0,5395411.0,5395357.0,5395273.0,5394968.0,5394767.0,5394923.0,5395194.0,5395249.0,5395220.0,5394219.0,5393186.0,5394191.0,5394664.0,5394515.0,5394341.0,5394146.0,5393644.0,5393072.0,5392251.0,5391779.0,5391766.0,5392177.0,5392935.0,5393834.0,5394201.0,5394146.0,5394022.0,5394088.0,5394192.0,5394266.0,5394400.0,5394417.0,5394531.0,5394524.0,5394544.0,5394219.0,5393953.0,5394357.0,5394695.0,5394881.0,5394965.0,5394186.0,5392238.0,5395181.0,5394570.0,5394475.0,5394331.0,5394032.0,5393649.0,5393119.0,5392413.0,5391859.0,5391805.0,5392263.0,5392981.0,5394059.0,5394484.0,5394450.020:27:40,5394462.0,5395036.0,5395080.0,5395098.0,5395166.0,5394934.0,5394730.0,5395067.0,5395469.0,5395467.0,5395687.0,5394695.0,5393586.0,5394808.0,5395266.0,5395183.0,5395031.0,5394795.0,5394455.0,5393820.0,5393111.0,5392635.0,5392608.0,5392924.0,5393762.0,5394971.0,5395219.0,5395344.0,5395331.0,5395398.0,5395536.0,5395602.0,5395800.0,5395912.0,5395987.0,5395966.0,5396044.0,5396016.0,5395450.0,5395650.0,5396177.0,5396346.0,5396361.0,5396349.0,5393293.0,5398978.0,5396148.0,5396040.0,5396050.0,5395868.0,5395581.0,5395110.0,5394497.0,5393907.0,5393867.0,5394015.0,5394707.0,5395616.0,5396284.0,5396388.0,5396346.0,5396326.0,5396372.0,5396506.0,5396625.0,5396741.0,5396698.0,5396880.0,5396830.0,5396688.0,5396354.0,5396742.0,5397161.0,5397209.0,5397420.0,5396708.0,5394941.0,5398943.0,5397145.0,5397015.0,5396788.0,5396630.0,5396280.0,5395715.0,5394978.0,5394525.0,5394547.0,5394925.0,5395809.0,5396879.0,5397217.0,5397160.0,