2020-10-15 14:47:40.563798,5997844.0
2020-10-15 14:47:40.583798,5997790.0
2020-10-15 14:47:40.603798,5997808.0
2020-10-15 14:47:40.623798,5997512.0
2020-10-15 14:47:40.643798,5997724.0
2020-10-15 14:47:40.663798,5997623.0
2020-10-15 14:47:40.683798,5998005.0
2020-10-15 14:47:40.703798,5998580.0
2020-10-15 14:47:40.723798,5996340.0
2020-10-15 14:47:40.743798,6004960.0
2020-10-15 14:47:40.763798,6000100.0
2020-10-15 14:47:40.783798,5998983.0
2020-10-15 14:47:40.803798,5998752.0
2020-10-15 14:47:40.823798,5998804.0
2020-10-15 14:47:40.843798,5998807.0
2020-10-15 14:47:40.863798,5998811.0
2020-10-15 14:47:40.883798,5999640.0
2020-10-15 14:47:40.903798,5999930.0
2020-10-15 14:47:40.923798,5999894.0
2020-10-15 14:47:40.943798,6000431.0
2020-10-15 14:47:40.963798,5999809.0
2020-10-15 14:47:40.983798,5999319.0
2020-10-15 14:47:41.003798,5998950.0
2020-10-15 14:47:41.023798,5998536.0
2020-10-15 14:47:41.043798,5998926.0
2020-10-15 14:47:41.063798,5999162.0
2020-10-15 14:47:41.083798,5998932.0
2020-10-15 14:47:41.103798,5998922.0
2020-10-15 14:47:41.123798,5998604.0
2020-10-15 14:47:41.143798,5999043.0
2020-10-15 14:47:41.163798,5998627.0
2020-10-15 14:47:41.183798,5998554.0
2020-10-15 14:47:41.203798,5998682.0
2020-10-15 14:47:41.223798,5998625.0
2020-10-15 14:47:41.243798,5998372.0
2020-10-15 14:47:41.263798,5998427.0
2020-10-15 14:47:41.283798,5998768.0
2020-10-15 14:47:41.303798,5998515.0
2020-10-15 14:47:41.323798,5998046.0
2020-10-15 14:47:41.343798,5997968.0
2020-10-15 14:47:41.363798,5998426.0
2020-10-15 14:47:41.383798,5998340.0
2020-10-15 14:47:41.403798,5998417.0
2020-10-15 14:47:41.423798,5998284.0
2020-10-15 14:47:41.443798,6002208.0
2020-10-15 14:47:41.463798,6000266.0
2020-10-15 14:47:41.483798,5999173.0
2020-10-15 14:47:41.503798,5999492.0
2020-10-15 14:47:41.523798,5999630.0
2020-10-15 14:47:41.543798,5999654.0
2020-10-15 14:47:41.563798,5999666.0
2020-10-15 14:47:41.583798,6000446.0
2020-10-15 14:47:41.603798,6000904.0
2020-10-15 14:47:41.623798,6001099.0
2020-10-15 14:47:41.643798,6000874.0
2020-10-15 14:47:41.663798,6000617.0
2020-10-15 14:47:41.683798,6000132.0
2020-10-15 14:47:41.703798,5999778.0
2020-10-15 14:47:41.723798,6000033.0
2020-10-15 14:47:41.743798,5999832.0
2020-10-15 14:47:41.763798,6000002.0
2020-10-15 14:47:41.783798,6000246.0
2020-10-15 14:47:41.803798,6000115.0
2020-10-15 14:47:41.823798,6000079.0
2020-10-15 14:47:41.843798,5999995.0
2020-10-15 14:47:41.863798,5999873.0
2020-10-15 14:47:41.883798,5999895.0
2020-10-15 14:47:41.903798,5999988.0
2020-10-15 14:47:41.923798,5999968.0
2020-10-15 14:47:41.943798,6000112.0
2020-10-15 14:47:41.963798,6000240.0
2020-10-15 14:47:41.983798,5999400.0
2020-10-15 14:47:42.003798,5999843.0
2020-10-15 14:47:42.023798,5999787.0
2020-10-15 14:47:42.043798,5999812.0
2020-10-15 14:47:42.063798,5999994.0
2020-10-15 14:47:42.083798,5999290.0
2020-10-15 14:47:42.103798,6008324.0
2020-10-15 14:47:42.123798,6001912.0
2020-10-15 14:47:42.143798,6000706.0
2020-10-15 14:47:42.163798,6000628.0
2020-10-15 14:47:42.183798,6000710.0
2020-10-15 14:47:42.203798,6000769.0
2020-10-15 14:47:42.223798,6000870.0
2020-10-15 14:47:42.243798,6001345.0
2020-10-15 14:47:42.263798,6001434.0
2020-10-15 14:47:42.283798,6001846.0
2020-10-15 14:47:42.303798,6001666.0
2020-10-15 14:47:42.323798,6001384.0
2020-10-15 14:47:42.343798,6000722.0
2020-10-15 14:47:42.363798,6000260.0
2020-10-15 14:47:42.383798,6000061.0
2020-10-15 14:47:42.403798,5999999.0
2020-10-15 14:47:42.423798,6000298.0
2020-10-15 14:47:42.443798,6000288.0
2020-10-15 14:47:42.463798,6000385.0
2020-10-15 14:47:42.483798,6000165.0
2020-10-15 14:47:42.503798,5999982.0
2020-10-15 14:47:42.523798,5999942.0
2020-10-15 14:47:42.543798,5999891.0
2020-10-15 14:47:43.029362,5999602.0
2020-10-15 14:47:43.049362,5998936.0
2020-10-15 14:47:43.069362,5999092.0
2020-10-15 14:47:43.089362,5998879.0
2020-10-15 14:47:43.109362,5998845.0
2020-10-15 14:47:43.129362,6001332.0
2020-10-15 14:47:43.149362,6002459.0
2020-10-15 14:47:43.169362,6000519.0
2020-10-15 14:47:43.189362,5999537.0
2020-10-15 14:47:43.209362,5999334.0
2020-10-15 14:47:43.229362,5999426.0
2020-10-15 14:47:43.249362,5999537.0
2020-10-15 14:47:43.269362,5999793.0
2020-10-15 14:47:43.289362,5999982.0
2020-10-15 14:47:43.309362,6000476.0
2020-10-15 14:47:43.329362,6000705.0
2020-10-15 14:47:43.349362,6000450.0
2020-10-15 14:47:43.369362,6000135.0
2020-10-15 14:47:43.389362,5999440.0
2020-10-15 14:47:43.409362,5999005.0
2020-10-15 14:47:43.429362,5998962.0
2020-10-15 14:47:43.449362,5998826.0
2020-10-15 14:47:43.469362,5998979.0
2020-10-15 14:47:43.489362,5998888.0
2020-10-15 14:47:43.509362,5998902.0
2020-10-15 14:47:43.529362,5998656.0
2020-10-15 14:47:43.549362,5998511.0
2020-10-15 14:47:43.569362,5998617.0
2020-10-15 14:47:43.589362,5998252.0
2020-10-15 14:47:43.609362,5998246.0
2020-10-15 14:47:43.629362,5998043.0
2020-10-15 14:47:43.649362,5998184.0
2020-10-15 14:47:43.669362,5998467.0
2020-10-15 14:47:43.689362,5997696.0
2020-10-15 14:47:43.709362,5997931.0
2020-10-15 14:47:43.729362,5998083.0
2020-10-15 14:47:43.749362,5998297.0
2020-10-15 14:47:43.769362,5997902.0
2020-10-15 14:47:43.789362,5997877.0
2020-10-15 14:47:43.809362,5997553.0
2020-10-15 14:47:43.829362,5997677.0
2020-10-15 14:47:43.849362,5997596.0
2020-10-15 14:47:43.869362,5997880.0
2020-10-15 14:47:43.889362,6004224.0
2020-10-15 14:47:43.909362,6000110.0
2020-10-15 14:47:43.929362,5998590.0
2020-10-15 14:47:43.949362,5998008.0
2020-10-15 14:47:43.969362,5997854.0
2020-10-15 14:47:43.989362,5997752.0
2020-10-15 14:47:44.009362,5998119.0
2020-10-15 14:47:44.029362,5998331.0
2020-10-15 14:47:44.049362,5998622.0
2020-10-15 14:47:44.069362,5998830.0
2020-10-15 14:47:44.089362,5999091.0
2020-10-15 14:47:44.109362,5998988.0
2020-10-15 14:47:44.129362,5998672.0
2020-10-15 14:47:44.149362,5998160.0
2020-10-15 14:47:44.169362,5997853.0
2020-10-15 14:47:44.189362,5997542.0
2020-10-15 14:47:44.209362,5997567.0
2020-10-15 14:47:44.229362,5997633.0
2020-10-15 14:47:44.249362,5997654.0
2020-10-15 14:47:44.269362,5997397.0
2020-10-15 14:47:44.289362,5997146.0
2020-10-15 14:47:44.309362,5997525.0
2020-10-15 14:47:44.329362,5997144.0
2020-10-15 14:47:44.349362,5997046.0
2020-10-15 14:47:44.369362,5996925.0
2020-10-15 14:47:44.389362,5996928.0
2020-10-15 14:47:44.409362,5996978.0
2020-10-15 14:47:44.429362,5997050.0
2020-10-15 14:47:44.449362,5996818.0
2020-10-15 14:47:44.469362,5996709.0
2020-10-15 14:47:44.489362,5996886.0
2020-10-15 14:47:44.509362,5996715.0
2020-10-15 14:47:44.529362,5996825.0
2020-10-15 14:47:44.549362,5996837.0
2020-10-15 14:47:44.569362,5997239.0
2020-10-15 14:47:44.589362,6001987.0
2020-10-15 14:47:44.609362,5998576.0
2020-10-15 14:47:44.629362,5997548.0
2020-10-15 14:47:44.649362,5997367.0
2020-10-15 14:47:44.669362,5997498.0
2020-10-15 14:47:44.689362,5997679.0
2020-10-15 14:47:44.709362,5997798.0
2020-10-15 14:47:44.729362,5998123.0
2020-10-15 14:47:44.749362,5998275.0
2020-10-15 14:47:44.769362,5998629.0
2020-10-15 14:47:44.789362,5998538.0
2020-10-15 14:47:44.809362,5998409.0
2020-10-15 14:47:44.829362,5997969.0
2020-10-15 14:47:44.849362,5997418.0
2020-10-15 14:47:44.869362,5997261.0
2020-10-15 14:47:44.889362,5997438.0
2020-10-15 14:47:44.909362,5997436.0
2020-10-15 14:47:44.929362,5997392.0
2020-10-15 14:47:44.949362,5997500.0
2020-10-15 14:47:44.969362,5997233.0
2020-10-15 14:47:44.989362,5997200.0
2020-10-15 14:47:45.009362,5997032.0
2020-10-15 14:47:45.685306,5996890.0
2020-10-15 14:47:45.705306,5996568.0
2020-10-15 14:47:45.725306,5996370.0
2020-10-15 14:47:45.745306,5996953.0
2020-10-15 14:47:45.765306,6005014.0
2020-10-15 14:47:45.785306,5998586.0
2020-10-15 14:47:45.805306,5996913.0
2020-10-15 14:47:45.825306,5996593.0
2020-10-15 14:47:45.845306,5996562.0
2020-10-15 14:47:45.865306,5996707.0
2020-10-15 14:47:45.885306,5996719.0
2020-10-15 14:47:45.905306,5996986.0
2020-10-15 14:47:45.925306,5997260.0
2020-10-15 14:47:45.945306,5997492.0
2020-10-15 14:47:45.965306,5997590.0
2020-10-15 14:47:45.985306,5997606.0
2020-10-15 14:47:46.005306,5997090.0
2020-10-15 14:47:46.025306,5996383.0
2020-10-15 14:47:46.045306,5996104.0
2020-10-15 14:47:46.065306,5996036.0
2020-10-15 14:47:46.085306,5996196.0
2020-10-15 14:47:46.105306,5996085.0
2020-10-15 14:47:46.125306,5995899.0
2020-10-15 14:47:46.145306,5995951.0
2020-10-15 14:47:46.165306,5995653.0
2020-10-15 14:47:46.185306,5995586.0
2020-10-15 14:47:46.205306,5995431.0
2020-10-15 14:47:46.225306,5995249.0
2020-10-15 14:47:46.245306,5995326.0
2020-10-15 14:47:46.265306,5995181.0
2020-10-15 14:47:46.285306,5995192.0
2020-10-15 14:47:46.305306,5995028.0
2020-10-15 14:47:46.325306,5995104.0
2020-10-15 14:47:46.345306,5995004.0
2020-10-15 14:47:46.365306,5994714.0
2020-10-15 14:47:46.385306,5994706.0
2020-10-15 14:47:46.405306,5994719.0
2020-10-15 14:47:46.425306,5994707.0
2020-10-15 14:47:46.445306,5994910.0
2020-10-15 14:47:46.465306,5994630.0
2020-10-15 14:47:46.485306,5995477.0
2020-10-15 14:47:46.505306,5998665.0
2020-10-15 14:47:46.525306,5996222.0
2020-10-15 14:47:46.545306,5995370.0
2020-10-15 14:47:46.565306,5995269.0
2020-10-15 14:47:46.585306,5994981.0
2020-10-15 14:47:46.605306,5995326.0
2020-10-15 14:47:46.625306,5995407.0
2020-10-15 14:47:46.645306,5995569.0
2020-10-15 14:47:46.665306,5995796.0
2020-10-15 14:47:46.685306,5996038.0
2020-10-15 14:47:46.705306,5996374.0
2020-10-15 14:47:46.725306,5996214.0
2020-10-15 14:47:46.745306,5995446.0
2020-10-15 14:47:46.765306,5995045.0
2020-10-15 14:47:46.785306,5994843.0
2020-10-15 14:47:46.805306,5994985.0
2020-10-15 14:47:46.825306,5995085.0
2020-10-15 14:47:46.845306,5995115.0
2020-10-15 14:47:46.865306,5995131.0
2020-10-15 14:47:46.885306,5994912.0
2020-10-15 14:47:46.905306,5994957.0
2020-10-15 14:47:46.925306,5994852.0
2020-10-15 14:47:46.945306,5994769.0
2020-10-15 14:47:46.965306,5994715.0
2020-10-15 14:47:46.985306,5994869.0
2020-10-15 14:47:47.005306,5995002.0
2020-10-15 14:47:47.025306,5994774.0
2020-10-15 14:47:47.045306,5994734.0
2020-10-15 14:47:47.065306,5994788.0
2020-10-15 14:47:47.085306,5995144.0
2020-10-15 14:47:47.105306,5994788.0
2020-10-15 14:47:47.125306,5994589.0
2020-10-15 14:47:47.145306,5994584.0
2020-10-15 14:47:47.165306,5994660.0
2020-10-15 14:47:47.185306,5994627.0
2020-10-15 14:47:47.205306,5994816.0
2020-10-15 14:47:47.225306,5995341.0
2020-10-15 14:47:47.245306,6004013.0
2020-10-15 14:47:47.265306,5997006.0
2020-10-15 14:47:47.285306,5995586.0
2020-10-15 14:47:47.305306,5995158.0
2020-10-15 14:47:47.325306,5995365.0
2020-10-15 14:47:47.345306,5995404.0
2020-10-15 14:47:47.365306,5995676.0
2020-10-15 14:47:47.385306,5995860.0
2020-10-15 14:47:47.405306,5995968.0
2020-10-15 14:47:47.425306,5996427.0
2020-10-15 14:47:47.445306,5996628.0
2020-10-15 14:47:47.465306,5996800.0
2020-10-15 14:47:47.485306,5996243.0
2020-10-15 14:47:47.505306,5995685.0
2020-10-15 14:47:47.525306,5995478.0
2020-10-15 14:47:47.545306,5995445.0
2020-10-15 14:47:47.565306,5995584.0
2020-10-15 14:47:47.585306,5995726.0
2020-10-15 14:47:47.605306,5995665.0
2020-10-15 14:47:47.625306,5995419.0
2020-10-15 14:47:47.645306,5995177.0
2020-10-15 14:47:47.665306,5995237.0
2020-10-15 14:47:47.529633,5995373.0
2020-10-15 14:47:47.549633,5995381.0
2020-10-15 14:47:47.569633,5995523.0
2020-10-15 14:47:47.589633,5995482.0
2020-10-15 14:47:47.609633,5995938.0
2020-10-15 14:47:47.629633,6003461.0
2020-10-15 14:47:47.649633,5998186.0
2020-10-15 14:47:47.669633,5996770.0
2020-10-15 14:47:47.689633,5996259.0
2020-10-15 14:47:47.709633,5996170.0
2020-10-15 14:47:47.729633,5996366.0
2020-10-15 14:47:47.749633,5996478.0
2020-10-15 14:47:47.769633,5996753.0
2020-10-15 14:47:47.789633,5996935.0
2020-10-15 14:47:47.809633,5997201.0
2020-10-15 14:47:47.829633,5997529.0
2020-10-15 14:47:47.849633,5997518.0
2020-10-15 14:47:47.869633,5997335.0
2020-10-15 14:47:47.889633,5996923.0
2020-10-15 14:47:47.909633,5996674.0
2020-10-15 14:47:47.929633,5996593.0
2020-10-15 14:47:47.949633,5996606.0
2020-10-15 14:47:47.969633,5996670.0
2020-10-15 14:47:47.989633,5996738.0
2020-10-15 14:47:48.009633,5996613.0
2020-10-15 14:47:48.029633,5996430.0
2020-10-15 14:47:48.049633,5996353.0
2020-10-15 14:47:48.069633,5996207.0
2020-10-15 14:47:48.089633,5996338.0
2020-10-15 14:47:48.109633,5996314.0
2020-10-15 14:47:48.129633,5996245.0
2020-10-15 14:47:48.149633,5996525.0
2020-10-15 14:47:48.169633,5996340.0
2020-10-15 14:47:48.189633,5996142.0
2020-10-15 14:47:48.209633,5996124.0
2020-10-15 14:47:48.229633,5996168.0
2020-10-15 14:47:48.249633,5996323.0
2020-10-15 14:47:48.269633,5996248.0
2020-10-15 14:47:48.289633,5996791.0
2020-10-15 14:47:48.309633,6004313.0
2020-10-15 14:47:48.329633,5999208.0
2020-10-15 14:47:48.349633,5997444.0
2020-10-15 14:47:48.369633,5997210.0
2020-10-15 14:47:48.389633,5997206.0
2020-10-15 14:47:48.409633,5997113.0
2020-10-15 14:47:48.429633,5997322.0
2020-10-15 14:47:48.449633,5997642.0
2020-10-15 14:47:48.469633,5997796.0
2020-10-15 14:47:48.489633,5998142.0
2020-10-15 14:47:48.509633,5998293.0
2020-10-15 14:47:48.529633,5998609.0
2020-10-15 14:47:48.549633,5998080.0
2020-10-15 14:47:48.569633,5997560.0
2020-10-15 14:47:48.589633,5997383.0
2020-10-15 14:47:48.609633,5997361.0
2020-10-15 14:47:48.629633,5997303.0
2020-10-15 14:47:48.649633,5997310.0
2020-10-15 14:47:48.669633,5997401.0
2020-10-15 14:47:48.689633,5997273.0
2020-10-15 14:47:48.709633,5997151.0
2020-10-15 14:47:48.729633,5997131.0
2020-10-15 14:47:48.749633,5997080.0
2020-10-15 14:47:48.769633,5997009.0
2020-10-15 14:47:48.789633,5997054.0
2020-10-15 14:47:48.809633,5996940.0
2020-10-15 14:47:48.829633,5997086.0
2020-10-15 14:47:48.849633,5997041.0
2020-10-15 14:47:48.869633,5997063.0
2020-10-15 14:47:48.889633,5996895.0
2020-10-15 14:47:48.909633,5996971.0
2020-10-15 14:47:48.929633,5996851.0
2020-10-15 14:47:48.949633,5996990.0
2020-10-15 14:47:48.969633,5996946.0
2020-10-15 14:47:48.989633,5996812.0
2020-10-15 14:47:49.009633,6000098.0
2020-10-15 14:47:49.029633,6000131.0
2020-10-15 14:47:49.049633,5998266.0
2020-10-15 14:47:49.069633,5997577.0
2020-10-15 14:47:49.089633,5997508.0
2020-10-15 14:47:49.109633,5997440.0
2020-10-15 14:47:49.129633,5997630.0
2020-10-15 14:47:49.149633,5997749.0
2020-10-15 14:47:49.169633,5998007.0
2020-10-15 14:47:49.189633,5998143.0
2020-10-15 14:47:49.209633,5998409.0
2020-10-15 14:47:49.229633,5998560.0
2020-10-15 14:47:49.249633,5998212.0
2020-10-15 14:47:49.269633,5997796.0
2020-10-15 14:47:49.289633,5997225.0
2020-10-15 14:47:49.309633,5997106.0
2020-10-15 14:47:49.329633,5997136.0
2020-10-15 14:47:49.349633,5997014.0
2020-10-15 14:47:49.369633,5996852.0
2020-10-15 14:47:49.389633,5996672.0
2020-10-15 14:47:49.409633,5996715.0
2020-10-15 14:47:49.429633,5996612.0
2020-10-15 14:47:49.449633,5996356.0
2020-10-15 14:47:49.469633,5996269.0
2020-10-15 14:47:49.489633,5996261.0
2020-10-15 14:47:49.509633,5996187.0
2020-10-15 14:47:49.852329,5996005.0
2020-10-15 14:47:49.872329,5995733.0
2020-10-15 14:47:49.892329,5995887.0
2020-10-15 14:47:49.912329,6002629.0
2020-10-15 14:47:49.932329,5997317.0
2020-10-15 14:47:49.952329,5996046.0
2020-10-15 14:47:49.972329,5995803.0
2020-10-15 14:47:49.992329,5995787.0
2020-10-15 14:47:50.012329,5995899.0
2020-10-15 14:47:50.032329,5996127.0
2020-10-15 14:47:50.052329,5996295.0
2020-10-15 14:47:50.072329,5996462.0
2020-10-15 14:47:50.092329,5996765.0
2020-10-15 14:47:50.112329,5996789.0
2020-10-15 14:47:50.132329,5996773.0
2020-10-15 14:47:50.152329,5996366.0
2020-10-15 14:47:50.172329,5995621.0
2020-10-15 14:47:50.192329,5995594.0
2020-10-15 14:47:50.212329,5995558.0
2020-10-15 14:47:50.232329,5995592.0
2020-10-15 14:47:50.252329,5995669.0
2020-10-15 14:47:50.272329,5995396.0
2020-10-15 14:47:50.292329,5995166.0
2020-10-15 14:47:50.312329,5995170.0
2020-10-15 14:47:50.332329,5995173.0
2020-10-15 14:47:50.352329,5994981.0
2020-10-15 14:47:50.372329,5994778.0
2020-10-15 14:47:50.392329,5994871.0
2020-10-15 14:47:50.412329,5994940.0
2020-10-15 14:47:50.432329,5994818.0
2020-10-15 14:47:50.452329,5994957.0
2020-10-15 14:47:50.472329,5995162.0
2020-10-15 14:47:50.492329,5994530.0
2020-10-15 14:47:50.512329,5994605.0
2020-10-15 14:47:50.532329,5994829.0
2020-10-15 14:47:50.552329,5994712.0
2020-10-15 14:47:50.572329,5994861.0
2020-10-15 14:47:50.592329,5994182.0
2020-10-15 14:47:50.612329,6003209.0
2020-10-15 14:47:50.632329,5996778.0
2020-10-15 14:47:50.652329,5995516.0
2020-10-15 14:47:50.672329,5995509.0
2020-10-15 14:47:50.692329,5995366.0
2020-10-15 14:47:50.712329,5995409.0
2020-10-15 14:47:50.732329,5995336.0
2020-10-15 14:47:50.752329,5995688.0
2020-10-15 14:47:50.772329,5995837.0
2020-10-15 14:47:50.792329,5996083.0
2020-10-15 14:47:50.812329,5996262.0
2020-10-15 14:47:50.832329,5996286.0
2020-10-15 14:47:50.852329,5995786.0
2020-10-15 14:47:50.872329,5995442.0
2020-10-15 14:47:50.892329,5995243.0
2020-10-15 14:47:50.912329,5995359.0
2020-10-15 14:47:50.932329,5995423.0
2020-10-15 14:47:50.952329,5995278.0
2020-10-15 14:47:50.972329,5995118.0
2020-10-15 14:47:50.992329,5995138.0
2020-10-15 14:47:51.012329,5995113.0
2020-10-15 14:47:51.032329,5995008.0
2020-10-15 14:47:51.052329,5995098.0
2020-10-15 14:47:51.072329,5994968.0
2020-10-15 14:47:51.092329,5995078.0
2020-10-15 14:47:51.112329,5995320.0
2020-10-15 14:47:51.132329,5995226.0
2020-10-15 14:47:51.152329,5994711.0
2020-10-15 14:47:51.172329,5994997.0
2020-10-15 14:47:51.192329,5994839.0
2020-10-15 14:47:51.212329,5994841.0
2020-10-15 14:47:51.232329,5994980.0
2020-10-15 14:47:51.252329,5995026.0
2020-10-15 14:47:51.272329,6004044.0
2020-10-15 14:47:51.292329,5997186.0
2020-10-15 14:47:51.312329,5995544.0
2020-10-15 14:47:51.332329,5995310.0
2020-10-15 14:47:51.352329,5995317.0
2020-10-15 14:47:51.372329,5995465.0
2020-10-15 14:47:51.392329,5995691.0
2020-10-15 14:47:51.412329,5995788.0
2020-10-15 14:47:51.432329,5996156.0
2020-10-15 14:47:51.452329,5996443.0
2020-10-15 14:47:51.472329,5996553.0
2020-10-15 14:47:51.492329,5996641.0
2020-10-15 14:47:51.512329,5996124.0
2020-10-15 14:47:51.532329,5995710.0
2020-10-15 14:47:51.552329,5995560.0
2020-10-15 14:47:51.572329,5995631.0
2020-10-15 14:47:51.592329,5995736.0
2020-10-15 14:47:51.612329,5995840.0
2020-10-15 14:47:51.632329,5995595.0
2020-10-15 14:47:51.652329,5995589.0
2020-10-15 14:47:51.672329,5995434.0
2020-10-15 14:47:51.692329,5995393.0
2020-10-15 14:47:51.712329,5995451.0
2020-10-15 14:47:51.732329,5995366.0
2020-10-15 14:47:51.752329,5995249.0
2020-10-15 14:47:51.772329,5995224.0
2020-10-15 14:47:51.792329,5995544.0
2020-10-15 14:47:51.812329,5995448.0
2020-10-15 14:47:51.832329,5995082.0
2020-10-15 14:47:51.715909,5995265.0
2020-10-15 14:47:51.735909,5996070.0
2020-10-15 14:47:51.755909,5995954.0
2020-10-15 14:47:51.775909,5996063.0
2020-10-15 14:47:51.795909,5996403.0
2020-10-15 14:47:51.815909,5996531.0
2020-10-15 14:47:51.835909,5996859.0
2020-10-15 14:47:51.855909,5996869.0
2020-10-15 14:47:51.875909,5997220.0
2020-10-15 14:47:51.895909,5997201.0
2020-10-15 14:47:51.915909,5996691.0
2020-10-15 14:47:51.935909,5996168.0
2020-10-15 14:47:51.955909,5996145.0
2020-10-15 14:47:51.975909,5996150.0
2020-10-15 14:47:51.995909,5996344.0
2020-10-15 14:47:52.015909,5996609.0
2020-10-15 14:47:52.035909,5996571.0
2020-10-15 14:47:52.055909,5996370.0
2020-10-15 14:47:52.075909,5996279.0
2020-10-15 14:47:52.095909,5996316.0
2020-10-15 14:47:52.115909,5996309.0
2020-10-15 14:47:52.135909,5996342.0
2020-10-15 14:47:52.155909,5996559.0
2020-10-15 14:47:52.175909,5996298.0
2020-10-15 14:47:52.195909,5996278.0
2020-10-15 14:47:52.215909,5996310.0
2020-10-15 14:47:52.235909,5996111.0
2020-10-15 14:47:52.255909,5996185.0
2020-10-15 14:47:52.275909,5996245.0
2020-10-15 14:47:52.295909,5996157.0
2020-10-15 14:47:52.315909,5996208.0
2020-10-15 14:47:52.335909,5996557.0
2020-10-15 14:47:52.355909,6004176.0
2020-10-15 14:47:52.375909,5998836.0
2020-10-15 14:47:52.395909,5997280.0
2020-10-15 14:47:52.415909,5996844.0
2020-10-15 14:47:52.435909,5996790.0
2020-10-15 14:47:52.455909,5996861.0
2020-10-15 14:47:52.475909,5997048.0
2020-10-15 14:47:52.495909,5997324.0
2020-10-15 14:47:52.515909,5997558.0
2020-10-15 14:47:52.535909,5997773.0
2020-10-15 14:47:52.555909,5997953.0
2020-10-15 14:47:52.575909,5998039.0
2020-10-15 14:47:52.595909,5997808.0
2020-10-15 14:47:52.615909,5997651.0
2020-10-15 14:47:52.635909,5997116.0
2020-10-15 14:47:52.655909,5997260.0
2020-10-15 14:47:52.675909,5997293.0
2020-10-15 14:47:52.695909,5997232.0
2020-10-15 14:47:52.715909,5997252.0
2020-10-15 14:47:52.735909,5997185.0
2020-10-15 14:47:52.755909,5997117.0
2020-10-15 14:47:52.775909,5996958.0
2020-10-15 14:47:52.795909,5996953.0
2020-10-15 14:47:52.815909,5997023.0
2020-10-15 14:47:52.835909,5996796.0
2020-10-15 14:47:52.855909,5996835.0
2020-10-15 14:47:52.875909,5996919.0
2020-10-15 14:47:52.895909,5996878.0
2020-10-15 14:47:52.915909,5996877.0
2020-10-15 14:47:52.935909,5997120.0
2020-10-15 14:47:52.955909,5996814.0
2020-10-15 14:47:52.975909,5996848.0
2020-10-15 14:47:52.995909,5996869.0
2020-10-15 14:47:53.015909,5997089.0
2020-10-15 14:47:53.035909,5996864.0
2020-10-15 14:47:53.055909,5997134.0
2020-10-15 14:47:53.075909,6003671.0
2020-10-15 14:47:53.095909,5999896.0
2020-10-15 14:47:53.115909,5998153.0
2020-10-15 14:47:53.135909,5997715.0
2020-10-15 14:47:53.155909,5997517.0
2020-10-15 14:47:53.175909,5997673.0
2020-10-15 14:47:53.195909,5997797.0
2020-10-15 14:47:53.215909,5997993.0
2020-10-15 14:47:53.235909,5998034.0
2020-10-15 14:47:53.255909,5998384.0
2020-10-15 14:47:53.275909,5998589.0
2020-10-15 14:47:53.295909,5998727.0
2020-10-15 14:47:53.315909,5998432.0
2020-10-15 14:47:53.335909,5998150.0
2020-10-15 14:47:53.355909,5997637.0
2020-10-15 14:47:53.375909,5997812.0
2020-10-15 14:47:53.395909,5997872.0
2020-10-15 14:47:53.415909,5997745.0
2020-10-15 14:47:53.435909,5997782.0
2020-10-15 14:47:53.455909,5997702.0
2020-10-15 14:47:53.475909,5997574.0
2020-10-15 14:47:53.495909,5997504.0
2020-10-15 14:47:53.515909,5997474.0
2020-10-15 14:47:53.535909,5997563.0
2020-10-15 14:47:53.555909,5997465.0
2020-10-15 14:47:53.575909,5997511.0
2020-10-15 14:47:53.595909,5997311.0
2020-10-15 14:47:53.615909,5997567.0
2020-10-15 14:47:53.635909,5997527.0
2020-10-15 14:47:53.655909,5997329.0
2020-10-15 14:47:53.675909,5997351.0
2020-10-15 14:47:53.695909,5997302.0
2020-10-15 14:47:54.697416,5997452.0
2020-10-15 14:47:54.717416,5998472.0
2020-10-15 14:47:54.737416,5998587.0
2020-10-15 14:47:54.757416,5998773.0
2020-10-15 14:47:54.777416,5998760.0
2020-10-15 14:47:54.797416,5999172.0
2020-10-15 14:47:54.817416,5999059.0
2020-10-15 14:47:54.837416,5998755.0
2020-10-15 14:47:54.857416,5998332.0
2020-10-15 14:47:54.877416,5998074.0
2020-10-15 14:47:54.897416,5998016.0
2020-10-15 14:47:54.917416,5998068.0
2020-10-15 14:47:54.937416,5998228.0
2020-10-15 14:47:54.957416,5998071.0
2020-10-15 14:47:54.977416,5998043.0
2020-10-15 14:47:54.997416,5998073.0
2020-10-15 14:47:55.017416,5997724.0
2020-10-15 14:47:55.037416,5997994.0
2020-10-15 14:47:55.057416,5997733.0
2020-10-15 14:47:55.077416,5997863.0
2020-10-15 14:47:55.097416,5997932.0
2020-10-15 14:47:55.117416,5997942.0
2020-10-15 14:47:55.137416,5997974.0
2020-10-15 14:47:55.157416,5997888.0
2020-10-15 14:47:55.177416,5998081.0
2020-10-15 14:47:55.197416,5998053.0
2020-10-15 14:47:55.217416,5997865.0
2020-10-15 14:47:55.237416,5997661.0
2020-10-15 14:47:55.257416,5997848.0
2020-10-15 14:47:55.277416,5997925.0
2020-10-15 14:47:55.297416,5998053.0
2020-10-15 14:47:55.317416,5997799.0
2020-10-15 14:47:55.337416,5997935.0
2020-10-15 14:47:55.357416,6002939.0
2020-10-15 14:47:55.377416,5999500.0
2020-10-15 14:47:55.397416,5998499.0
2020-10-15 14:47:55.417416,5998526.0
2020-10-15 14:47:55.437416,5998613.0
2020-10-15 14:47:55.457416,5998660.0
2020-10-15 14:47:55.477416,5998764.0
2020-10-15 14:47:55.497416,5999070.0
2020-10-15 14:47:55.517416,5999334.0
2020-10-15 14:47:55.537416,5999740.0
2020-10-15 14:47:55.557416,5999635.0
2020-10-15 14:47:55.577416,5999414.0
2020-10-15 14:47:55.597416,5998971.0
2020-10-15 14:47:55.617416,5998505.0
2020-10-15 14:47:55.637416,5998688.0
2020-10-15 14:47:55.657416,5998389.0
2020-10-15 14:47:55.677416,5998410.0
2020-10-15 14:47:55.697416,5998439.0
2020-10-15 14:47:55.717416,5998377.0
2020-10-15 14:47:55.737416,5998205.0
2020-10-15 14:47:55.757416,5998025.0
2020-10-15 14:47:55.777416,5998100.0
2020-10-15 14:47:55.797416,5998074.0
2020-10-15 14:47:55.817416,5997913.0
2020-10-15 14:47:55.837416,5997901.0
2020-10-15 14:47:55.857416,5998123.0
2020-10-15 14:47:55.877416,5998049.0
2020-10-15 14:47:55.897416,5997968.0
2020-10-15 14:47:55.917416,5998008.0
2020-10-15 14:47:55.937416,5997912.0
2020-10-15 14:47:55.957416,5998319.0
2020-10-15 14:47:55.977416,5998193.0
2020-10-15 14:47:55.997416,5997708.0
2020-10-15 14:47:56.017416,5997816.0
2020-10-15 14:47:56.037416,5997713.0
2020-10-15 14:47:56.057416,5997788.0
2020-10-15 14:47:56.077416,5997682.0
2020-10-15 14:47:56.097416,5998101.0
2020-10-15 14:47:56.117416,6007068.0
2020-10-15 14:47:56.137416,5999966.0
2020-10-15 14:47:56.157416,5998465.0
2020-10-15 14:47:56.177416,5998284.0
2020-10-15 14:47:56.197416,5998180.0
2020-10-15 14:47:56.217416,5998235.0
2020-10-15 14:47:56.237416,5998519.0
2020-10-15 14:47:56.257416,5998556.0
2020-10-15 14:47:56.277416,5998723.0
2020-10-15 14:47:56.297416,5999141.0
2020-10-15 14:47:56.317416,5999313.0
2020-10-15 14:47:56.337416,5999505.0
2020-10-15 14:47:56.357416,5999036.0
2020-10-15 14:47:56.377416,5998486.0
2020-10-15 14:47:56.397416,5998246.0
2020-10-15 14:47:56.417416,5998242.0
2020-10-15 14:47:56.437416,5998318.0
2020-10-15 14:47:56.457416,5998244.0
2020-10-15 14:47:56.477416,5998255.0
2020-10-15 14:47:56.497416,5998066.0
2020-10-15 14:47:56.517416,5998043.0
2020-10-15 14:47:56.537416,5997920.0
2020-10-15 14:47:56.557416,5997967.0
2020-10-15 14:47:56.577416,5997805.0
2020-10-15 14:47:56.597416,5997793.0
2020-10-15 14:47:56.617416,5997823.0
2020-10-15 14:47:56.637416,5997642.0
2020-10-15 14:47:56.657416,5997597.0
2020-10-15 14:47:56.677416,5997991.0
2020-10-15 14:47:56.332569,5997762.0
2020-10-15 14:47:56.352569,5998012.0
2020-10-15 14:47:56.372569,5998287.0
2020-10-15 14:47:56.392569,5998403.0
2020-10-15 14:47:56.412569,5998592.0
2020-10-15 14:47:56.432569,5998725.0
2020-10-15 14:47:56.452569,5998938.0
2020-10-15 14:47:56.472569,5998984.0
2020-10-15 14:47:56.492569,5998815.0
2020-10-15 14:47:56.512569,5998426.0
2020-10-15 14:47:56.532569,5998132.0
2020-10-15 14:47:56.552569,5998108.0
2020-10-15 14:47:56.572569,5998356.0
2020-10-15 14:47:56.592569,5998147.0
2020-10-15 14:47:56.612569,5998124.0
2020-10-15 14:47:56.632569,5998118.0
2020-10-15 14:47:56.652569,5998068.0
2020-10-15 14:47:56.672569,5997964.0
2020-10-15 14:47:56.692569,5997983.0
2020-10-15 14:47:56.712569,5998167.0
2020-10-15 14:47:56.732569,5997667.0
2020-10-15 14:47:56.752569,5997937.0
2020-10-15 14:47:56.772569,5998110.0
2020-10-15 14:47:56.792569,5997735.0
2020-10-15 14:47:56.812569,5997718.0
2020-10-15 14:47:56.832569,5997741.0
2020-10-15 14:47:56.852569,5997858.0
2020-10-15 14:47:56.872569,5997997.0
2020-10-15 14:47:56.892569,5997983.0
2020-10-15 14:47:56.912569,6003072.0
2020-10-15 14:47:56.932569,6000723.0
2020-10-15 14:47:56.952569,5999147.0
2020-10-15 14:47:56.972569,5998925.0
2020-10-15 14:47:56.992569,5998612.0
2020-10-15 14:47:57.012569,5998548.0
2020-10-15 14:47:57.032569,5998559.0
2020-10-15 14:47:57.052569,5998692.0
2020-10-15 14:47:57.072569,5999078.0
2020-10-15 14:47:57.092569,5999249.0
2020-10-15 14:47:57.112569,5999346.0
2020-10-15 14:47:57.132569,5999537.0
2020-10-15 14:47:57.152569,5999110.0
2020-10-15 14:47:57.172569,5998804.0
2020-10-15 14:47:57.192569,5998322.0
2020-10-15 14:47:57.212569,5998173.0
2020-10-15 14:47:57.232569,5998034.0
2020-10-15 14:47:57.252569,5998120.0
2020-10-15 14:47:57.272569,5997967.0
2020-10-15 14:47:57.292569,5997845.0
2020-10-15 14:47:57.312569,5997791.0
2020-10-15 14:47:57.332569,5997433.0
2020-10-15 14:47:57.352569,5997280.0
2020-10-15 14:47:57.372569,5997102.0
2020-10-15 14:47:57.392569,5997096.0
2020-10-15 14:47:57.412569,5996967.0
2020-10-15 14:47:57.432569,5996772.0
2020-10-15 14:47:57.452569,5996569.0
2020-10-15 14:47:57.472569,5996496.0
2020-10-15 14:47:57.492569,5996400.0
2020-10-15 14:47:57.512569,5996251.0
2020-10-15 14:47:57.532569,5995783.0
2020-10-15 14:47:57.552569,5997317.0
2020-10-15 14:47:57.572569,5999271.0
2020-10-15 14:47:57.592569,5997049.0
2020-10-15 14:47:57.612569,5996019.0
2020-10-15 14:47:57.632569,5996069.0
2020-10-15 14:47:57.652569,5995875.0
2020-10-15 14:47:57.672569,5995862.0
2020-10-15 14:47:57.692569,5995869.0
2020-10-15 14:47:57.712569,5996030.0
2020-10-15 14:47:57.732569,5996056.0
2020-10-15 14:47:57.752569,5996085.0
2020-10-15 14:47:57.772569,5996053.0
2020-10-15 14:47:57.792569,5995453.0
2020-10-15 14:47:57.812569,5994964.0
2020-10-15 14:47:57.832569,5994099.0
2020-10-15 14:47:57.852569,5994075.0
2020-10-15 14:47:57.872569,5993734.0
2020-10-15 14:47:57.892569,5993741.0
2020-10-15 14:47:57.912569,5993432.0
2020-10-15 14:47:57.932569,5993620.0
2020-10-15 14:47:57.952569,5992998.0
2020-10-15 14:47:57.972569,5992794.0
2020-10-15 14:47:57.992569,5992190.0
2020-10-15 14:47:58.012569,5992243.0
2020-10-15 14:47:58.032569,5992014.0
2020-10-15 14:47:58.052569,5992116.0
2020-10-15 14:47:58.072569,5991622.0
2020-10-15 14:47:58.092569,5991406.0
2020-10-15 14:47:58.112569,5991157.0
2020-10-15 14:47:58.132569,5990953.0
2020-10-15 14:47:58.152569,5991066.0
2020-10-15 14:47:58.172569,5990888.0
2020-10-15 14:47:58.192569,5990757.0
2020-10-15 14:47:58.212569,5997714.0
2020-10-15 14:47:58.232569,5992963.0
2020-10-15 14:47:58.252569,5991318.0
2020-10-15 14:47:58.272569,5990877.0
2020-10-15 14:47:58.292569,5990743.0
2020-10-15 14:47:58.312569,5990680.0
2020-10-15 14:47:58.790943,5990850.0
2020-10-15 14:47:58.810943,5989910.0
2020-10-15 14:47:58.830943,5990136.0
2020-10-15 14:47:58.850943,5989973.0
2020-10-15 14:47:58.870943,5989839.0
2020-10-15 14:47:58.890943,5989857.0
2020-10-15 14:47:58.910943,5989622.0
2020-10-15 14:47:58.930943,5989494.0
2020-10-15 14:47:58.950943,5989483.0
2020-10-15 14:47:58.970943,5989368.0
2020-10-15 14:47:58.990943,5989307.0
2020-10-15 14:47:59.010943,5989459.0
2020-10-15 14:47:59.030943,5989289.0
2020-10-15 14:47:59.050943,5989033.0
2020-10-15 14:47:59.070943,5989107.0
2020-10-15 14:47:59.090943,5989209.0
2020-10-15 14:47:59.110943,5989221.0
2020-10-15 14:47:59.130943,5989056.0
2020-10-15 14:47:59.150943,5988988.0
2020-10-15 14:47:59.170943,5989720.0
2020-10-15 14:47:59.190943,5992512.0
2020-10-15 14:47:59.210943,5990556.0
2020-10-15 14:47:59.230943,5989885.0
2020-10-15 14:47:59.250943,5989581.0
2020-10-15 14:47:59.270943,5990150.0
2020-10-15 14:47:59.290943,5990125.0
2020-10-15 14:47:59.310943,5990121.0
2020-10-15 14:47:59.330943,5990559.0
2020-10-15 14:47:59.350943,5990749.0
2020-10-15 14:47:59.370943,5990910.0
2020-10-15 14:47:59.390943,5991003.0
2020-10-15 14:47:59.410943,5990793.0
2020-10-15 14:47:59.430943,5990530.0
2020-10-15 14:47:59.450943,5990123.0
2020-10-15 14:47:59.470943,5990266.0
2020-10-15 14:47:59.490943,5990346.0
2020-10-15 14:47:59.510943,5990604.0
2020-10-15 14:47:59.530943,5990514.0
2020-10-15 14:47:59.550943,5990600.0
2020-10-15 14:47:59.570943,5990556.0
2020-10-15 14:47:59.590943,5990631.0
2020-10-15 14:47:59.610943,5990508.0
2020-10-15 14:47:59.630943,5990706.0
2020-10-15 14:47:59.650943,5990784.0
2020-10-15 14:47:59.670943,5990703.0
2020-10-15 14:47:59.690943,5990478.0
2020-10-15 14:47:59.710943,5990534.0
2020-10-15 14:47:59.730943,5990546.0
2020-10-15 14:47:59.750943,5990717.0
2020-10-15 14:47:59.770943,5990787.0
2020-10-15 14:47:59.790943,5992619.0
2020-10-15 14:47:59.810943,5994038.0
2020-10-15 14:47:59.830943,5992248.0
2020-10-15 14:47:59.850943,5991500.0
2020-10-15 14:47:59.870943,5991538.0
2020-10-15 14:47:59.890943,5991616.0
2020-10-15 14:47:59.910943,5992022.0
2020-10-15 14:47:59.930943,5992251.0
2020-10-15 14:47:59.950943,5992367.0
2020-10-15 14:47:59.970943,5992778.0
2020-10-15 14:47:59.990943,5993002.0
2020-10-15 14:48:00.010943,5992981.0
2020-10-15 14:48:00.030943,5992930.0
2020-10-15 14:48:00.050943,5992526.0
2020-10-15 14:48:00.070943,5992318.0
2020-10-15 14:48:00.090943,5992430.0
2020-10-15 14:48:00.110943,5992607.0
2020-10-15 14:48:00.130943,5992818.0
2020-10-15 14:48:00.150943,5992779.0
2020-10-15 14:48:00.170943,5992737.0
2020-10-15 14:48:00.190943,5992750.0
2020-10-15 14:48:00.210943,5992670.0
2020-10-15 14:48:00.230943,5992812.0
2020-10-15 14:48:00.250943,5992793.0
2020-10-15 14:48:00.270943,5992967.0
2020-10-15 14:48:00.290943,5992869.0
2020-10-15 14:48:00.310943,5992574.0
2020-10-15 14:48:00.330943,5992803.0
2020-10-15 14:48:00.350943,5993041.0
2020-10-15 14:48:00.370943,5992963.0
2020-10-15 14:48:00.390943,5993416.0
2020-10-15 14:48:00.410943,5993254.0
2020-10-15 14:48:00.430943,5999324.0
2020-10-15 14:48:00.450943,5994956.0
2020-10-15 14:48:00.470943,5994009.0
2020-10-15 14:48:00.490943,5994147.0
2020-10-15 14:48:00.510943,5994073.0
2020-10-15 14:48:00.530943,5994384.0
2020-10-15 14:48:00.550943,5994571.0
2020-10-15 14:48:00.570943,5994883.0
2020-10-15 14:48:00.590943,5995073.0
2020-10-15 14:48:00.610943,5995247.0
2020-10-15 14:48:00.630943,5995549.0
2020-10-15 14:48:00.650943,5995359.0
2020-10-15 14:48:00.670943,5994845.0
2020-10-15 14:48:00.690943,5994644.0
2020-10-15 14:48:00.710943,5994590.0
2020-10-15 14:48:00.730943,5994666.0
2020-10-15 14:48:00.750943,5994999.0
2020-10-15 14:48:00.770943,5994866.0
2020-10-15 14:48:01.457037,5994947.0
2020-10-15 14:48:01.477037,5995014.0
2020-10-15 14:48:01.497037,5995110.0
2020-10-15 14:48:01.517037,5995203.0
2020-10-15 14:48:01.537037,5995041.0
2020-10-15 14:48:01.557037,5994855.0
2020-10-15 14:48:01.577037,5995074.0
2020-10-15 14:48:01.597037,5995078.0
2020-10-15 14:48:01.617037,5995408.0
2020-10-15 14:48:01.637037,5995170.0
2020-10-15 14:48:01.657037,5994868.0
2020-10-15 14:48:01.677037,6000100.0
2020-10-15 14:48:01.697037,5997010.0
2020-10-15 14:48:01.717037,5995869.0
2020-10-15 14:48:01.737037,5995770.0
2020-10-15 14:48:01.757037,5996054.0
2020-10-15 14:48:01.777037,5996125.0
2020-10-15 14:48:01.797037,5996297.0
2020-10-15 14:48:01.817037,5996610.0
2020-10-15 14:48:01.837037,5996640.0
2020-10-15 14:48:01.857037,5996906.0
2020-10-15 14:48:01.877037,5996981.0
2020-10-15 14:48:01.897037,5996806.0
2020-10-15 14:48:01.917037,5996626.0
2020-10-15 14:48:01.937037,5996445.0
2020-10-15 14:48:01.957037,5996358.0
2020-10-15 14:48:01.977037,5996379.0
2020-10-15 14:48:01.997037,5996447.0
2020-10-15 14:48:02.017037,5996457.0
2020-10-15 14:48:02.037037,5996401.0
2020-10-15 14:48:02.057037,5996441.0
2020-10-15 14:48:02.077037,5996299.0
2020-10-15 14:48:02.097037,5996306.0
2020-10-15 14:48:02.117037,5996120.0
2020-10-15 14:48:02.137037,5996155.0
2020-10-15 14:48:02.157037,5996176.0
2020-10-15 14:48:02.177037,5996012.0
2020-10-15 14:48:02.197037,5995895.0
2020-10-15 14:48:02.217037,5995864.0
2020-10-15 14:48:02.237037,5995926.0
2020-10-15 14:48:02.257037,5996014.0
2020-10-15 14:48:02.277037,5995971.0
2020-10-15 14:48:02.297037,5996002.0
2020-10-15 14:48:02.317037,5995869.0
2020-10-15 14:48:02.337037,5996020.0
2020-10-15 14:48:02.357037,5996033.0
2020-10-15 14:48:02.377037,5995609.0
2020-10-15 14:48:02.397037,5995810.0
2020-10-15 14:48:02.417037,5995788.0
2020-10-15 14:48:02.437037,5995777.0
2020-10-15 14:48:02.457037,5995969.0
2020-10-15 14:48:02.477037,5995528.0
2020-10-15 14:48:02.497037,6004369.0
2020-10-15 14:48:02.517037,5998086.0
2020-10-15 14:48:02.537037,5996507.0
2020-10-15 14:48:02.557037,5996163.0
2020-10-15 14:48:02.577037,5996316.0
2020-10-15 14:48:02.597037,5996348.0
2020-10-15 14:48:02.617037,5996492.0
2020-10-15 14:48:02.637037,5996718.0
2020-10-15 14:48:02.657037,5996855.0
2020-10-15 14:48:02.677037,5997101.0
2020-10-15 14:48:02.697037,5997110.0
2020-10-15 14:48:02.717037,5997080.0
2020-10-15 14:48:02.737037,5996737.0
2020-10-15 14:48:02.757037,5996472.0
2020-10-15 14:48:02.777037,5996216.0
2020-10-15 14:48:02.797037,5996086.0
2020-10-15 14:48:02.817037,5996075.0
2020-10-15 14:48:02.837037,5996344.0
2020-10-15 14:48:02.857037,5996241.0
2020-10-15 14:48:02.877037,5996196.0
2020-10-15 14:48:02.897037,5996071.0
2020-10-15 14:48:02.917037,5996092.0
2020-10-15 14:48:02.937037,5995820.0
2020-10-15 14:48:02.957037,5995856.0
2020-10-15 14:48:02.977037,5995824.0
2020-10-15 14:48:02.997037,5995913.0
2020-10-15 14:48:03.017037,5995846.0
2020-10-15 14:48:03.037037,5995883.0
2020-10-15 14:48:03.057037,5995574.0
2020-10-15 14:48:03.077037,5995810.0
2020-10-15 14:48:03.097037,5995836.0
2020-10-15 14:48:03.117037,5995958.0
2020-10-15 14:48:03.137037,5995625.0
2020-10-15 14:48:03.157037,5995335.0
2020-10-15 14:48:03.177037,5995546.0
2020-10-15 14:48:03.197037,5995642.0
2020-10-15 14:48:03.217037,5995787.0
2020-10-15 14:48:03.237037,5996015.0
2020-10-15 14:48:03.257037,5995555.0
2020-10-15 14:48:03.277037,6002048.0
2020-10-15 14:48:03.297037,5997644.0
2020-10-15 14:48:03.317037,5996568.0
2020-10-15 14:48:03.337037,5996430.0
2020-10-15 14:48:03.357037,5996403.0
2020-10-15 14:48:03.377037,5996629.0
2020-10-15 14:48:03.397037,5996751.0
2020-10-15 14:48:03.417037,5997045.0
2020-10-15 14:48:03.437037,5997273.0
2020-10-15 14:48:06.954449,5997364.0
2020-10-15 14:48:06.974449,5996772.0
2020-10-15 14:48:06.994449,5996438.0
2020-10-15 14:48:07.014449,5996366.0
2020-10-15 14:48:07.034449,5996282.0
2020-10-15 14:48:07.054449,5996232.0
2020-10-15 14:48:07.074449,5996215.0
2020-10-15 14:48:07.094449,5996289.0
2020-10-15 14:48:07.114449,5996113.0
2020-10-15 14:48:07.134449,5996166.0
2020-10-15 14:48:07.154449,5996125.0
2020-10-15 14:48:07.174449,5996093.0
2020-10-15 14:48:07.194449,5996149.0
2020-10-15 14:48:07.214449,5996171.0
2020-10-15 14:48:07.234449,5996192.0
2020-10-15 14:48:07.254449,5996269.0
2020-10-15 14:48:07.274449,5996164.0
2020-10-15 14:48:07.294449,5996185.0
2020-10-15 14:48:07.314449,5996245.0
2020-10-15 14:48:07.334449,5996407.0
2020-10-15 14:48:07.354449,6003316.0
2020-10-15 14:48:07.374449,5998955.0
2020-10-15 14:48:07.394449,5997110.0
2020-10-15 14:48:07.414449,5996806.0
2020-10-15 14:48:07.434449,5996637.0
2020-10-15 14:48:07.454449,5996721.0
2020-10-15 14:48:07.474449,5996917.0
2020-10-15 14:48:07.494449,5997315.0
2020-10-15 14:48:07.514449,5997464.0
2020-10-15 14:48:07.534449,5997812.0
2020-10-15 14:48:07.554449,5998010.0
2020-10-15 14:48:07.574449,5997979.0
2020-10-15 14:48:07.594449,5997812.0
2020-10-15 14:48:07.614449,5997328.0
2020-10-15 14:48:07.634449,5996927.0
2020-10-15 14:48:07.654449,5996949.0
2020-10-15 14:48:07.674449,5997020.0
2020-10-15 14:48:07.694449,5997209.0
2020-10-15 14:48:07.714449,5997107.0
2020-10-15 14:48:07.734449,5997078.0
2020-10-15 14:48:07.754449,5996992.0
2020-10-15 14:48:07.774449,5996868.0
2020-10-15 14:48:07.794449,5996895.0
2020-10-15 14:48:07.814449,5996710.0
2020-10-15 14:48:07.834449,5996682.0
2020-10-15 14:48:07.854449,5996604.0
2020-10-15 14:48:07.874449,5996654.0
2020-10-15 14:48:07.894449,5996698.0
2020-10-15 14:48:07.914449,5996804.0
2020-10-15 14:48:07.934449,5996672.0
2020-10-15 14:48:07.954449,5996861.0
2020-10-15 14:48:07.974449,5996703.0
2020-10-15 14:48:07.994449,5996747.0
2020-10-15 14:48:08.014449,5996794.0
2020-10-15 14:48:08.034449,5996719.0
2020-10-15 14:48:08.054449,5996741.0
2020-10-15 14:48:08.074449,5996896.0
2020-10-15 14:48:08.094449,5996708.0
2020-10-15 14:48:08.114449,5996847.0
2020-10-15 14:48:08.134449,5997025.0
2020-10-15 14:48:08.154449,6001268.0
2020-10-15 14:48:08.174449,5999832.0
2020-10-15 14:48:08.194449,5998110.0
2020-10-15 14:48:08.214449,5997729.0
2020-10-15 14:48:08.234449,5997477.0
2020-10-15 14:48:08.254449,5997516.0
2020-10-15 14:48:08.274449,5997701.0
2020-10-15 14:48:08.294449,5998026.0
2020-10-15 14:48:08.314449,5998193.0
2020-10-15 14:48:08.334449,5998295.0
2020-10-15 14:48:08.354449,5998608.0
2020-10-15 14:48:08.374449,5998726.0
2020-10-15 14:48:08.394449,5998444.0
2020-10-15 14:48:08.414449,5998084.0
2020-10-15 14:48:08.434449,5997453.0
2020-10-15 14:48:08.454449,5997513.0
2020-10-15 14:48:08.474449,5997594.0
2020-10-15 14:48:08.494449,5997701.0
2020-10-15 14:48:08.514449,5998142.0
2020-10-15 14:48:08.534449,5997539.0
2020-10-15 14:48:08.554449,5997556.0
2020-10-15 14:48:08.574449,5997355.0
2020-10-15 14:48:08.594449,5997484.0
2020-10-15 14:48:08.614449,5997502.0
2020-10-15 14:48:08.634449,5997179.0
2020-10-15 14:48:08.654449,5997079.0
2020-10-15 14:48:08.674449,5997077.0
2020-10-15 14:48:08.694449,5997015.0
2020-10-15 14:48:08.714449,5996840.0
2020-10-15 14:48:08.734449,5997598.0
2020-10-15 14:48:08.754449,5997132.0
2020-10-15 14:48:08.774449,5997029.0
2020-10-15 14:48:08.794449,5997501.0
2020-10-15 14:48:08.814449,5996733.0
2020-10-15 14:48:08.834449,5996947.0
2020-10-15 14:48:08.854449,5997378.0
2020-10-15 14:48:08.874449,5997434.0
2020-10-15 14:48:08.894449,5997521.0
2020-10-15 14:48:08.914449,5996880.0
2020-10-15 14:48:08.934449,5996835.0
2020-10-15 14:48:07.908970,5997400.0
2020-10-15 14:48:07.928970,5997461.0
2020-10-15 14:48:07.948970,5997716.0
2020-10-15 14:48:07.968970,5998430.0
2020-10-15 14:48:07.988970,5998888.0
2020-10-15 14:48:08.008970,5998260.0
2020-10-15 14:48:08.028970,5997713.0
2020-10-15 14:48:08.048970,5997083.0
2020-10-15 14:48:08.068970,5997104.0
2020-10-15 14:48:08.088970,5997047.0
2020-10-15 14:48:08.108970,5997398.0
2020-10-15 14:48:08.128970,5996614.0
2020-10-15 14:48:08.148970,5997193.0
2020-10-15 14:48:08.168970,5996475.0
2020-10-15 14:48:08.188970,5996614.0
2020-10-15 14:48:08.208970,5996369.0
2020-10-15 14:48:08.228970,5996690.0
2020-10-15 14:48:08.248970,5996672.0
2020-10-15 14:48:08.268970,5995596.0
2020-10-15 14:48:08.288970,5996468.0
2020-10-15 14:48:08.308970,5996423.0
2020-10-15 14:48:08.328970,5995681.0
2020-10-15 14:48:08.348970,5995906.0
2020-10-15 14:48:08.368970,5996240.0
2020-10-15 14:48:08.388970,5996684.0
2020-10-15 14:48:08.408970,5995927.0
2020-10-15 14:48:08.428970,5995607.0
2020-10-15 14:48:08.448970,5995748.0
2020-10-15 14:48:08.468970,5996386.0
2020-10-15 14:48:08.488970,5996012.0
2020-10-15 14:48:08.508970,5996070.0
2020-10-15 14:48:08.528970,6004308.0
2020-10-15 14:48:08.548970,5998395.0
2020-10-15 14:48:08.568970,5996323.0
2020-10-15 14:48:08.588970,5996119.0
2020-10-15 14:48:08.608970,5995905.0
2020-10-15 14:48:08.628970,5997004.0
2020-10-15 14:48:08.648970,5996286.0
2020-10-15 14:48:08.668970,5996006.0
2020-10-15 14:48:08.688970,5996944.0
2020-10-15 14:48:08.708970,5996705.0
2020-10-15 14:48:08.728970,5997418.0
2020-10-15 14:48:08.748970,5996827.0
2020-10-15 14:48:08.768970,5996598.0
2020-10-15 14:48:08.788970,5995752.0
2020-10-15 14:48:08.808970,5995744.0
2020-10-15 14:48:08.828970,5996052.0
2020-10-15 14:48:08.848970,5995654.0
2020-10-15 14:48:08.868970,5995297.0
2020-10-15 14:48:08.888970,5995849.0
2020-10-15 14:48:08.908970,5995742.0
2020-10-15 14:48:08.928970,5995475.0
2020-10-15 14:48:08.948970,5995433.0
2020-10-15 14:48:08.968970,5994801.0
2020-10-15 14:48:08.988970,5995070.0
2020-10-15 14:48:09.008970,5995262.0
2020-10-15 14:48:09.028970,5995176.0
2020-10-15 14:48:09.048970,5995417.0
2020-10-15 14:48:09.068970,5994809.0
2020-10-15 14:48:09.088970,5994584.0
2020-10-15 14:48:09.108970,5994992.0
2020-10-15 14:48:09.128970,5994685.0
2020-10-15 14:48:09.148970,5994958.0
2020-10-15 14:48:09.168970,5994622.0
2020-10-15 14:48:09.188970,5994542.0
2020-10-15 14:48:09.208970,5997196.0
2020-10-15 14:48:09.228970,5998519.0
2020-10-15 14:48:09.248970,5996533.0
2020-10-15 14:48:09.268970,5995604.0
2020-10-15 14:48:09.288970,5995591.0
2020-10-15 14:48:09.308970,5995248.0
2020-10-15 14:48:09.328970,5995588.0
2020-10-15 14:48:09.348970,5995728.0
2020-10-15 14:48:09.368970,5995805.0
2020-10-15 14:48:09.388970,5995992.0
2020-10-15 14:48:09.408970,5996063.0
2020-10-15 14:48:09.428970,5996955.0
2020-10-15 14:48:09.448970,5996127.0
2020-10-15 14:48:09.468970,5996038.0
2020-10-15 14:48:09.488970,5995233.0
2020-10-15 14:48:09.508970,5995195.0
2020-10-15 14:48:09.528970,5995168.0
2020-10-15 14:48:09.548970,5995388.0
2020-10-15 14:48:09.568970,5995829.0
2020-10-15 14:48:09.588970,5995175.0
2020-10-15 14:48:09.608970,5995741.0
2020-10-15 14:48:09.628970,5995201.0
2020-10-15 14:48:09.648970,5995414.0
2020-10-15 14:48:09.668970,5995162.0
2020-10-15 14:48:09.688970,5995223.0
2020-10-15 14:48:09.708970,5994868.0
2020-10-15 14:48:09.728970,5995356.0
2020-10-15 14:48:09.748970,5994876.0
2020-10-15 14:48:09.768970,5995519.0
2020-10-15 14:48:09.788970,5995205.0
2020-10-15 14:48:09.808970,5994367.0
2020-10-15 14:48:09.828970,5995007.0
2020-10-15 14:48:09.848970,5994637.0
2020-10-15 14:48:09.868970,5995096.0
2020-10-15 14:48:09.888970,5994840.0
2020-10-15 14:48:11.590333,5994996.0
2020-10-15 14:48:11.610333,5996839.0
2020-10-15 14:48:11.630333,5996499.0
2020-10-15 14:48:11.650333,5996791.0
2020-10-15 14:48:11.670333,5996010.0
2020-10-15 14:48:11.690333,5995524.0
2020-10-15 14:48:11.710333,5995331.0
2020-10-15 14:48:11.730333,5995532.0
2020-10-15 14:48:11.750333,5995658.0
2020-10-15 14:48:11.770333,5995431.0
2020-10-15 14:48:11.790333,5995862.0
2020-10-15 14:48:11.810333,5995512.0
2020-10-15 14:48:11.830333,5995077.0
2020-10-15 14:48:11.850333,5994989.0
2020-10-15 14:48:11.870333,5995337.0
2020-10-15 14:48:11.890333,5995105.0
2020-10-15 14:48:11.910333,5994961.0
2020-10-15 14:48:11.930333,5995234.0
2020-10-15 14:48:11.950333,5995197.0
2020-10-15 14:48:11.970333,5995353.0
2020-10-15 14:48:11.990333,5995001.0
2020-10-15 14:48:12.010333,5995479.0
2020-10-15 14:48:12.030333,5995409.0
2020-10-15 14:48:12.050333,5994933.0
2020-10-15 14:48:12.070333,5995196.0
2020-10-15 14:48:12.090333,5995363.0
2020-10-15 14:48:12.110333,5995072.0
2020-10-15 14:48:12.130333,5995216.0
2020-10-15 14:48:12.150333,5996017.0
2020-10-15 14:48:12.170333,6004361.0
2020-10-15 14:48:12.190333,5997386.0
2020-10-15 14:48:12.210333,5996029.0
2020-10-15 14:48:12.230333,5995739.0
2020-10-15 14:48:12.250333,5995481.0
2020-10-15 14:48:12.270333,5995811.0
2020-10-15 14:48:12.290333,5995994.0
2020-10-15 14:48:12.310333,5996570.0
2020-10-15 14:48:12.330333,5996206.0
2020-10-15 14:48:12.350333,5996795.0
2020-10-15 14:48:12.370333,5996938.0
2020-10-15 14:48:12.390333,5996701.0
2020-10-15 14:48:12.410333,5996381.0
2020-10-15 14:48:12.430333,5995885.0
2020-10-15 14:48:12.450333,5995367.0
2020-10-15 14:48:12.470333,5994952.0
2020-10-15 14:48:12.490333,5996022.0
2020-10-15 14:48:12.510333,5996203.0
2020-10-15 14:48:12.530333,5995565.0
2020-10-15 14:48:12.550333,5995787.0
2020-10-15 14:48:12.570333,5995426.0
2020-10-15 14:48:12.590333,5995379.0
2020-10-15 14:48:12.610333,5995402.0
2020-10-15 14:48:12.630333,5995519.0
2020-10-15 14:48:12.650333,5995611.0
2020-10-15 14:48:12.670333,5995139.0
2020-10-15 14:48:12.690333,5995434.0
2020-10-15 14:48:12.710333,5995568.0
2020-10-15 14:48:12.730333,5995876.0
2020-10-15 14:48:12.750333,5995503.0
2020-10-15 14:48:12.770333,5995147.0
2020-10-15 14:48:12.790333,5996003.0
2020-10-15 14:48:12.810333,5995745.0
2020-10-15 14:48:12.830333,5995973.0
2020-10-15 14:48:12.850333,5995627.0
2020-10-15 14:48:12.870333,5995143.0
2020-10-15 14:48:12.890333,5995109.0
2020-10-15 14:48:12.910333,5995331.0
2020-10-15 14:48:12.930333,5995500.0
2020-10-15 14:48:12.950333,5995197.0
2020-10-15 14:48:12.970333,5995611.0
2020-10-15 14:48:12.990333,6002046.0
2020-10-15 14:48:13.010333,5997184.0
2020-10-15 14:48:13.030333,5995977.0
2020-10-15 14:48:13.050333,5995727.0
2020-10-15 14:48:13.070333,5995700.0
2020-10-15 14:48:13.090333,5996744.0
2020-10-15 14:48:13.110333,5996132.0
2020-10-15 14:48:13.130333,5996346.0
2020-10-15 14:48:13.150333,5997488.0
2020-10-15 14:48:13.170333,5997098.0
2020-10-15 14:48:13.190333,5997148.0
2020-10-15 14:48:13.210333,5997528.0
2020-10-15 14:48:13.230333,5996790.0
2020-10-15 14:48:13.250333,5996113.0
2020-10-15 14:48:13.270333,5996647.0
2020-10-15 14:48:13.290333,5995706.0
2020-10-15 14:48:13.310333,5995908.0
2020-10-15 14:48:13.330333,5996328.0
2020-10-15 14:48:13.350333,5996604.0
2020-10-15 14:48:13.370333,5995881.0
2020-10-15 14:48:13.390333,5995967.0
2020-10-15 14:48:13.410333,5995594.0
2020-10-15 14:48:13.430333,5995739.0
2020-10-15 14:48:13.450333,5995250.0
2020-10-15 14:48:13.470333,5995285.0
2020-10-15 14:48:13.490333,5995953.0
2020-10-15 14:48:13.510333,5995126.0
2020-10-15 14:48:13.530333,5995635.0
2020-10-15 14:48:13.550333,5995834.0
2020-10-15 14:48:13.570333,5995724.0
2020-10-15 14:48:12.330592,5995385.0
2020-10-15 14:48:12.350592,5995342.0
2020-10-15 14:48:12.370592,6004744.0
2020-10-15 14:48:12.390592,5997201.0
2020-10-15 14:48:12.410592,5996129.0
2020-10-15 14:48:12.430592,5995849.0
2020-10-15 14:48:12.450592,5995471.0
2020-10-15 14:48:12.470592,5996055.0
2020-10-15 14:48:12.490592,5995863.0
2020-10-15 14:48:12.510592,5996799.0
2020-10-15 14:48:12.530592,5996651.0
2020-10-15 14:48:12.550592,5996692.0
2020-10-15 14:48:12.570592,5997068.0
2020-10-15 14:48:12.590592,5996965.0
2020-10-15 14:48:12.610592,5996756.0
2020-10-15 14:48:12.630592,5995736.0
2020-10-15 14:48:12.650592,5995980.0
2020-10-15 14:48:12.670592,5995419.0
2020-10-15 14:48:12.690592,5995684.0
2020-10-15 14:48:12.710592,5996222.0
2020-10-15 14:48:12.730592,5996041.0
2020-10-15 14:48:12.750592,5995775.0
2020-10-15 14:48:12.770592,5995490.0
2020-10-15 14:48:12.790592,5995711.0
2020-10-15 14:48:12.810592,5995544.0
2020-10-15 14:48:12.830592,5995365.0
2020-10-15 14:48:12.850592,5995348.0
2020-10-15 14:48:12.870592,5995427.0
2020-10-15 14:48:12.890592,5995707.0
2020-10-15 14:48:12.910592,5995119.0
2020-10-15 14:48:12.930592,5995224.0
2020-10-15 14:48:12.950592,5995592.0
2020-10-15 14:48:12.970592,5994692.0
2020-10-15 14:48:12.990592,5994497.0
2020-10-15 14:48:13.010592,5994972.0
2020-10-15 14:48:13.030592,5994642.0
2020-10-15 14:48:13.050592,5995208.0
2020-10-15 14:48:13.070592,5995378.0
2020-10-15 14:48:13.090592,6002595.0
2020-10-15 14:48:13.110592,5997334.0
2020-10-15 14:48:13.130592,5995644.0
2020-10-15 14:48:13.150592,5995025.0
2020-10-15 14:48:13.170592,5994505.0
2020-10-15 14:48:13.190592,5995408.0
2020-10-15 14:48:13.210592,5995497.0
2020-10-15 14:48:13.230592,5995414.0
2020-10-15 14:48:13.250592,5995331.0
2020-10-15 14:48:13.270592,5995509.0
2020-10-15 14:48:13.290592,5995645.0
2020-10-15 14:48:13.310592,5996015.0
2020-10-15 14:48:13.330592,5995563.0
2020-10-15 14:48:13.350592,5995156.0
2020-10-15 14:48:13.370592,5994792.0
2020-10-15 14:48:13.390592,5994732.0
2020-10-15 14:48:13.410592,5994884.0
2020-10-15 14:48:13.430592,5994745.0
2020-10-15 14:48:13.450592,5994794.0
2020-10-15 14:48:13.470592,5994301.0
2020-10-15 14:48:13.490592,5994529.0
2020-10-15 14:48:13.510592,5994024.0
2020-10-15 14:48:13.530592,5994269.0
2020-10-15 14:48:13.550592,5994080.0
2020-10-15 14:48:13.570592,5994559.0
2020-10-15 14:48:13.590592,5994239.0
2020-10-15 14:48:13.610592,5994049.0
2020-10-15 14:48:13.630592,5994112.0
2020-10-15 14:48:13.650592,5994199.0
2020-10-15 14:48:13.670592,5993935.0
2020-10-15 14:48:13.690592,5994408.0
2020-10-15 14:48:13.710592,5994097.0
2020-10-15 14:48:13.730592,5994481.0
2020-10-15 14:48:13.750592,5993721.0
2020-10-15 14:48:13.770592,5993953.0
2020-10-15 14:48:13.790592,5993949.0
2020-10-15 14:48:13.810592,5993644.0
2020-10-15 14:48:13.830592,5993770.0
2020-10-15 14:48:13.850592,5994236.0
2020-10-15 14:48:13.870592,6003044.0
2020-10-15 14:48:13.890592,5996238.0
2020-10-15 14:48:13.910592,5994597.0
2020-10-15 14:48:13.930592,5994771.0
2020-10-15 14:48:13.950592,5994213.0
2020-10-15 14:48:13.970592,5994335.0
2020-10-15 14:48:13.990592,5994947.0
2020-10-15 14:48:14.010592,5994686.0
2020-10-15 14:48:14.030592,5995342.0
2020-10-15 14:48:14.050592,5995398.0
2020-10-15 14:48:14.070592,5995337.0
2020-10-15 14:48:14.090592,5995470.0
2020-10-15 14:48:14.110592,5995048.0
2020-10-15 14:48:14.130592,5994664.0
2020-10-15 14:48:14.150592,5995005.0
2020-10-15 14:48:14.170592,5994209.0
2020-10-15 14:48:14.190592,5994119.0
2020-10-15 14:48:14.210592,5994414.0
2020-10-15 14:48:14.230592,5993960.0
2020-10-15 14:48:14.250592,5994227.0
2020-10-15 14:48:14.270592,5993959.0
2020-10-15 14:48:14.290592,5994473.0
2020-10-15 14:48:14.310592,5993819.0
2020-10-15 14:48:13.114099,5994182.0
2020-10-15 14:48:13.134099,5993877.0
2020-10-15 14:48:13.154099,5994010.0
2020-10-15 14:48:13.174099,5993999.0
2020-10-15 14:48:13.194099,5993838.0
2020-10-15 14:48:13.214099,5994107.0
2020-10-15 14:48:13.234099,5993610.0
2020-10-15 14:48:13.254099,5994040.0
2020-10-15 14:48:13.274099,5994468.0
2020-10-15 14:48:13.294099,6001823.0
2020-10-15 14:48:13.314099,5996963.0
2020-10-15 14:48:13.334099,5994958.0
2020-10-15 14:48:13.354099,5994712.0
2020-10-15 14:48:13.374099,5994208.0
2020-10-15 14:48:13.394099,5994716.0
2020-10-15 14:48:13.414099,5994476.0
2020-10-15 14:48:13.434099,5994936.0
2020-10-15 14:48:13.454099,5995347.0
2020-10-15 14:48:13.474099,5995568.0
2020-10-15 14:48:13.494099,5995392.0
2020-10-15 14:48:13.514099,5995825.0
2020-10-15 14:48:13.534099,5995349.0
2020-10-15 14:48:13.554099,5994290.0
2020-10-15 14:48:13.574099,5994337.0
2020-10-15 14:48:13.594099,5994269.0
2020-10-15 14:48:13.614099,5994056.0
2020-10-15 14:48:13.634099,5993723.0
2020-10-15 14:48:13.654099,5993766.0
2020-10-15 14:48:13.674099,5994174.0
2020-10-15 14:48:13.694099,5993689.0
2020-10-15 14:48:13.714099,5993755.0
2020-10-15 14:48:13.734099,5993537.0
2020-10-15 14:48:13.754099,5993497.0
2020-10-15 14:48:13.774099,5993118.0
2020-10-15 14:48:13.794099,5993082.0
2020-10-15 14:48:13.814099,5993205.0
2020-10-15 14:48:13.834099,5993166.0
2020-10-15 14:48:13.854099,5992922.0
2020-10-15 14:48:13.874099,5993475.0
2020-10-15 14:48:13.894099,5992830.0
2020-10-15 14:48:13.914099,5992748.0
2020-10-15 14:48:13.934099,5992776.0
2020-10-15 14:48:13.954099,5992514.0
2020-10-15 14:48:13.974099,5992157.0
2020-10-15 14:48:13.994099,5991904.0
2020-10-15 14:48:14.014099,5991889.0
2020-10-15 14:48:14.034099,5992033.0
2020-10-15 14:48:14.054099,5991914.0
2020-10-15 14:48:14.074099,5992592.0
2020-10-15 14:48:14.094099,5996827.0
2020-10-15 14:48:14.114099,5993380.0
2020-10-15 14:48:14.134099,5992743.0
2020-10-15 14:48:14.154099,5992092.0
2020-10-15 14:48:14.174099,5992190.0
2020-10-15 14:48:14.194099,5991874.0
2020-10-15 14:48:14.214099,5992477.0
2020-10-15 14:48:14.234099,5992087.0
2020-10-15 14:48:14.254099,5992397.0
2020-10-15 14:48:14.274099,5992534.0
2020-10-15 14:48:14.294099,5992671.0
2020-10-15 14:48:14.314099,5992447.0
2020-10-15 14:48:14.334099,5991530.0
2020-10-15 14:48:14.354099,5991437.0
2020-10-15 14:48:14.374099,5991376.0
2020-10-15 14:48:14.394099,5990859.0
2020-10-15 14:48:14.414099,5990680.0
2020-10-15 14:48:14.434099,5990758.0
2020-10-15 14:48:14.454099,5990657.0
2020-10-15 14:48:14.474099,5990301.0
2020-10-15 14:48:14.494099,5990458.0
2020-10-15 14:48:14.514099,5989884.0
2020-10-15 14:48:14.534099,5990373.0
2020-10-15 14:48:14.554099,5990399.0
2020-10-15 14:48:14.574099,5989828.0
2020-10-15 14:48:14.594099,5989910.0
2020-10-15 14:48:14.614099,5989638.0
2020-10-15 14:48:14.634099,5989793.0
2020-10-15 14:48:14.654099,5990336.0
2020-10-15 14:48:14.674099,5989774.0
2020-10-15 14:48:14.694099,5989479.0
2020-10-15 14:48:14.714099,5989237.0
2020-10-15 14:48:14.734099,5989332.0
2020-10-15 14:48:14.754099,5989601.0
2020-10-15 14:48:14.774099,5988764.0
2020-10-15 14:48:14.794099,5989835.0
2020-10-15 14:48:14.814099,5995757.0
2020-10-15 14:48:14.834099,5991115.0
2020-10-15 14:48:14.854099,5989808.0
2020-10-15 14:48:14.874099,5990058.0
2020-10-15 14:48:14.894099,5989227.0
2020-10-15 14:48:14.914099,5990321.0
2020-10-15 14:48:14.934099,5989698.0
2020-10-15 14:48:14.954099,5989859.0
2020-10-15 14:48:14.974099,5990090.0
2020-10-15 14:48:14.994099,5990356.0
2020-10-15 14:48:15.014099,5990779.0
2020-10-15 14:48:15.034099,5990156.0
2020-10-15 14:48:15.054099,5989939.0
2020-10-15 14:48:15.074099,5989894.0
2020-10-15 14:48:15.094099,5989602.0
2020-10-15 14:48:15.079589,5989144.0
2020-10-15 14:48:15.099589,5989115.0
2020-10-15 14:48:15.119589,5989372.0
2020-10-15 14:48:15.139589,5988955.0
2020-10-15 14:48:15.159589,5989482.0
2020-10-15 14:48:15.179589,5989504.0
2020-10-15 14:48:15.199589,5989301.0
2020-10-15 14:48:15.219589,5988632.0
2020-10-15 14:48:15.239589,5988685.0
2020-10-15 14:48:15.259589,5988666.0
2020-10-15 14:48:15.279589,5989090.0
2020-10-15 14:48:15.299589,5989045.0
2020-10-15 14:48:15.319589,5989252.0
2020-10-15 14:48:15.339589,5996953.0
2020-10-15 14:48:15.359589,5991016.0
2020-10-15 14:48:15.379589,5989855.0
2020-10-15 14:48:15.399589,5989818.0
2020-10-15 14:48:15.419589,5990017.0
2020-10-15 14:48:15.439589,5989596.0
2020-10-15 14:48:15.459589,5990377.0
2020-10-15 14:48:15.479589,5990646.0
2020-10-15 14:48:15.499589,5990723.0
2020-10-15 14:48:15.519589,5990781.0
2020-10-15 14:48:15.539589,5991358.0
2020-10-15 14:48:15.559589,5990870.0
2020-10-15 14:48:15.579589,5990924.0
2020-10-15 14:48:15.599589,5990174.0
2020-10-15 14:48:15.619589,5990639.0
2020-10-15 14:48:15.639589,5989865.0
2020-10-15 14:48:15.659589,5990784.0
2020-10-15 14:48:15.679589,5990264.0
2020-10-15 14:48:15.699589,5990261.0
2020-10-15 14:48:15.719589,5990988.0
2020-10-15 14:48:15.739589,5990299.0
2020-10-15 14:48:15.759589,5990287.0
2020-10-15 14:48:15.779589,5990705.0
2020-10-15 14:48:15.799589,5990229.0
2020-10-15 14:48:15.819589,5990445.0
2020-10-15 14:48:15.839589,5990028.0
2020-10-15 14:48:15.859589,5990352.0
2020-10-15 14:48:15.879589,5991433.0
2020-10-15 14:48:15.899589,5990256.0
2020-10-15 14:48:15.919589,5990665.0
2020-10-15 14:48:15.939589,5990404.0
2020-10-15 14:48:15.959589,5990292.0
2020-10-15 14:48:15.979589,5990356.0
2020-10-15 14:48:15.999589,5990527.0
2020-10-15 14:48:16.019589,5991240.0
2020-10-15 14:48:16.039589,5991461.0
2020-10-15 14:48:16.059589,6000560.0
2020-10-15 14:48:16.079589,5993536.0
2020-10-15 14:48:16.099589,5992047.0
2020-10-15 14:48:16.119589,5991569.0
2020-10-15 14:48:16.139589,5992116.0
2020-10-15 14:48:16.159589,5991861.0
2020-10-15 14:48:16.179589,5991857.0
2020-10-15 14:48:16.199589,5992740.0
2020-10-15 14:48:16.219589,5992463.0
2020-10-15 14:48:16.239589,5992607.0
2020-10-15 14:48:16.259589,5993206.0
2020-10-15 14:48:16.279589,5993078.0
2020-10-15 14:48:16.299589,5992921.0
2020-10-15 14:48:16.319589,5992445.0
2020-10-15 14:48:16.339589,5991886.0
2020-10-15 14:48:16.359589,5992730.0
2020-10-15 14:48:16.379589,5992568.0
2020-10-15 14:48:16.399589,5992837.0
2020-10-15 14:48:16.419589,5992855.0
2020-10-15 14:48:16.439589,5992834.0
2020-10-15 14:48:16.459589,5992271.0
2020-10-15 14:48:16.479589,5992689.0
2020-10-15 14:48:16.499589,5992546.0
2020-10-15 14:48:16.519589,5992387.0
2020-10-15 14:48:16.539589,5992696.0
2020-10-15 14:48:16.559589,5992634.0
2020-10-15 14:48:16.579589,5992933.0
2020-10-15 14:48:16.599589,5993455.0
2020-10-15 14:48:16.619589,5993058.0
2020-10-15 14:48:16.639589,5992503.0
2020-10-15 14:48:16.659589,5993066.0
2020-10-15 14:48:16.679589,5993142.0
2020-10-15 14:48:16.699589,5992421.0
2020-10-15 14:48:16.719589,5993630.0
2020-10-15 14:48:16.739589,5993447.0
2020-10-15 14:48:16.759589,6002457.0
2020-10-15 14:48:16.779589,5995581.0
2020-10-15 14:48:16.799589,5993970.0
2020-10-15 14:48:16.819589,5993224.0
2020-10-15 14:48:16.839589,5993868.0
2020-10-15 14:48:16.859589,5993677.0
2020-10-15 14:48:16.879589,5994204.0
2020-10-15 14:48:16.899589,5994132.0
2020-10-15 14:48:16.919589,5994652.0
2020-10-15 14:48:16.939589,5994489.0
2020-10-15 14:48:16.959589,5995071.0
2020-10-15 14:48:16.979589,5995013.0
2020-10-15 14:48:16.999589,5994940.0
2020-10-15 14:48:17.019589,5994814.0
2020-10-15 14:48:17.039589,5993768.0
2020-10-15 14:48:17.059589,5994414.0
2020-10-15 14:48:17.018152,5994001.0
2020-10-15 14:48:17.038152,5994305.0
2020-10-15 14:48:17.058152,5994876.0
2020-10-15 14:48:17.078152,5994350.0
2020-10-15 14:48:17.098152,5993857.0
2020-10-15 14:48:17.118152,5993941.0
2020-10-15 14:48:17.138152,5994109.0
2020-10-15 14:48:17.158152,5994227.0
2020-10-15 14:48:17.178152,5994463.0
2020-10-15 14:48:17.198152,5993862.0
2020-10-15 14:48:17.218152,6002897.0
2020-10-15 14:48:17.238152,5996099.0
2020-10-15 14:48:17.258152,5994659.0
2020-10-15 14:48:17.278152,5994694.0
2020-10-15 14:48:17.298152,5994327.0
2020-10-15 14:48:17.318152,5994742.0
2020-10-15 14:48:17.338152,5995372.0
2020-10-15 14:48:17.358152,5995445.0
2020-10-15 14:48:17.378152,5995401.0
2020-10-15 14:48:17.398152,5995511.0
2020-10-15 14:48:17.418152,5995710.0
2020-10-15 14:48:17.438152,5995934.0
2020-10-15 14:48:17.458152,5995149.0
2020-10-15 14:48:17.478152,5994954.0
2020-10-15 14:48:17.498152,5994472.0
2020-10-15 14:48:17.518152,5994592.0
2020-10-15 14:48:17.538152,5994805.0
2020-10-15 14:48:17.558152,5994420.0
2020-10-15 14:48:17.578152,5994293.0
2020-10-15 14:48:17.598152,5994101.0
2020-10-15 14:48:17.618152,5994725.0
2020-10-15 14:48:17.638152,5994437.0
2020-10-15 14:48:17.658152,5994180.0
2020-10-15 14:48:17.678152,5994000.0
2020-10-15 14:48:17.698152,5993920.0
2020-10-15 14:48:17.718152,5993989.0
2020-10-15 14:48:17.738152,5993664.0
2020-10-15 14:48:17.758152,5993613.0
2020-10-15 14:48:17.778152,5993680.0
2020-10-15 14:48:17.798152,5993291.0
2020-10-15 14:48:17.818152,5993538.0
2020-10-15 14:48:17.838152,5994022.0
2020-10-15 14:48:17.858152,5993553.0
2020-10-15 14:48:17.878152,6002179.0
2020-10-15 14:48:17.898152,5996044.0
2020-10-15 14:48:17.918152,5994674.0
2020-10-15 14:48:17.938152,5995027.0
2020-10-15 14:48:17.958152,5994340.0
2020-10-15 14:48:17.978152,5994370.0
2020-10-15 14:48:17.998152,5993863.0
2020-10-15 14:48:18.018152,5994427.0
2020-10-15 14:48:18.038152,5994689.0
2020-10-15 14:48:18.058152,5994569.0
2020-10-15 14:48:18.078152,5994849.0
2020-10-15 14:48:18.098152,5994685.0
2020-10-15 14:48:18.118152,5994645.0
2020-10-15 14:48:18.138152,5993574.0
2020-10-15 14:48:18.158152,5993605.0
2020-10-15 14:48:18.178152,5993698.0
2020-10-15 14:48:18.198152,5993846.0
2020-10-15 14:48:18.218152,5993425.0
2020-10-15 14:48:18.238152,5993462.0
2020-10-15 14:48:18.258152,5993140.0
2020-10-15 14:48:18.278152,5993175.0
2020-10-15 14:48:18.298152,5993173.0
2020-10-15 14:48:18.318152,5993017.0
2020-10-15 14:48:18.338152,5993187.0
2020-10-15 14:48:18.358152,5992956.0
2020-10-15 14:48:18.378152,5993044.0
2020-10-15 14:48:18.398152,5992641.0
2020-10-15 14:48:18.418152,5993516.0
2020-10-15 14:48:18.438152,5993133.0
2020-10-15 14:48:18.458152,5992780.0
2020-10-15 14:48:18.478152,5992605.0
2020-10-15 14:48:18.498152,5992778.0
2020-10-15 14:48:18.518152,5992963.0
2020-10-15 14:48:18.538152,5993075.0
2020-10-15 14:48:18.558152,5992526.0
2020-10-15 14:48:18.578152,5997065.0
2020-10-15 14:48:18.598152,5995473.0
2020-10-15 14:48:18.618152,5993891.0
2020-10-15 14:48:18.638152,5993373.0
2020-10-15 14:48:18.658152,5993364.0
2020-10-15 14:48:18.678152,5993235.0
2020-10-15 14:48:18.698152,5993435.0
2020-10-15 14:48:18.718152,5993653.0
2020-10-15 14:48:18.738152,5993742.0
2020-10-15 14:48:18.758152,5994154.0
2020-10-15 14:48:18.778152,5994323.0
2020-10-15 14:48:18.798152,5994506.0
2020-10-15 14:48:18.818152,5994009.0
2020-10-15 14:48:18.838152,5993419.0
2020-10-15 14:48:18.858152,5993431.0
2020-10-15 14:48:18.878152,5993126.0
2020-10-15 14:48:18.898152,5993428.0
2020-10-15 14:48:18.918152,5993379.0
2020-10-15 14:48:18.938152,5993355.0
2020-10-15 14:48:18.958152,5993354.0
2020-10-15 14:48:18.978152,5993106.0
2020-10-15 14:48:18.998152,5992823.0
2020-10-15 14:48:19.151582,5993206.0
2020-10-15 14:48:19.171582,5992632.0
2020-10-15 14:48:19.191582,5992621.0
2020-10-15 14:48:19.211582,5992664.0
2020-10-15 14:48:19.231582,5992879.0
2020-10-15 14:48:19.251582,5999462.0
2020-10-15 14:48:19.271582,5995053.0
2020-10-15 14:48:19.291582,5993533.0
2020-10-15 14:48:19.311582,5993003.0
2020-10-15 14:48:19.331582,5993038.0
2020-10-15 14:48:19.351582,5993207.0
2020-10-15 14:48:19.371582,5993544.0
2020-10-15 14:48:19.391582,5993388.0
2020-10-15 14:48:19.411582,5993636.0
2020-10-15 14:48:19.431582,5993905.0
2020-10-15 14:48:19.451582,5994063.0
2020-10-15 14:48:19.471582,5994186.0
2020-10-15 14:48:19.491582,5993939.0
2020-10-15 14:48:19.511582,5993520.0
2020-10-15 14:48:19.531582,5993250.0
2020-10-15 14:48:19.551582,5993171.0
2020-10-15 14:48:19.571582,5993171.0
2020-10-15 14:48:19.591582,5993284.0
2020-10-15 14:48:19.611582,5993205.0
2020-10-15 14:48:19.631582,5993074.0
2020-10-15 14:48:19.651582,5993029.0
2020-10-15 14:48:19.671582,5992972.0
2020-10-15 14:48:19.691582,5992967.0
2020-10-15 14:48:19.711582,5992858.0
2020-10-15 14:48:19.731582,5993123.0
2020-10-15 14:48:19.751582,5993065.0
2020-10-15 14:48:19.771582,5993143.0
2020-10-15 14:48:19.791582,5992669.0
2020-10-15 14:48:19.811582,5992906.0
2020-10-15 14:48:19.831582,5993015.0
2020-10-15 14:48:19.851582,5993020.0
2020-10-15 14:48:19.871582,5993015.0
2020-10-15 14:48:19.891582,5993120.0
2020-10-15 14:48:19.911582,6001668.0
2020-10-15 14:48:19.931582,5995167.0
2020-10-15 14:48:19.951582,5993738.0
2020-10-15 14:48:19.971582,5993464.0
2020-10-15 14:48:19.991582,5993601.0
2020-10-15 14:48:20.011582,5993707.0
2020-10-15 14:48:20.031582,5993876.0
2020-10-15 14:48:20.051582,5993996.0
2020-10-15 14:48:20.071582,5994131.0
2020-10-15 14:48:20.091582,5994301.0
2020-10-15 14:48:20.111582,5994491.0
2020-10-15 14:48:20.131582,5994228.0
2020-10-15 14:48:20.151582,5993867.0
2020-10-15 14:48:20.171582,5993625.0
2020-10-15 14:48:20.191582,5993315.0
2020-10-15 14:48:20.211582,5993312.0
2020-10-15 14:48:20.231582,5993366.0
2020-10-15 14:48:20.251582,5993351.0
2020-10-15 14:48:20.271582,5993489.0
2020-10-15 14:48:20.291582,5993504.0
2020-10-15 14:48:20.311582,5993479.0
2020-10-15 14:48:20.331582,5993196.0
2020-10-15 14:48:20.351582,5993135.0
2020-10-15 14:48:20.371582,5993144.0
2020-10-15 14:48:20.391582,5992960.0
2020-10-15 14:48:20.411582,5993048.0
2020-10-15 14:48:20.431582,5993289.0
2020-10-15 14:48:20.451582,5992751.0
2020-10-15 14:48:20.471582,5992842.0
2020-10-15 14:48:20.491582,5992904.0
2020-10-15 14:48:20.511582,5993076.0
2020-10-15 14:48:20.531582,5992949.0
2020-10-15 14:48:20.551582,5993181.0
2020-10-15 14:48:20.571582,6001900.0
2020-10-15 14:48:20.591582,5995263.0
2020-10-15 14:48:20.611582,5993883.0
2020-10-15 14:48:20.631582,5993552.0
2020-10-15 14:48:20.651582,5993528.0
2020-10-15 14:48:20.671582,5993760.0
2020-10-15 14:48:20.691582,5993943.0
2020-10-15 14:48:20.711582,5994215.0
2020-10-15 14:48:20.731582,5994546.0
2020-10-15 14:48:20.751582,5994669.0
2020-10-15 14:48:20.771582,5994657.0
2020-10-15 14:48:20.791582,5994620.0
2020-10-15 14:48:20.811582,5994400.0
2020-10-15 14:48:20.831582,5993939.0
2020-10-15 14:48:20.851582,5993727.0
2020-10-15 14:48:20.871582,5993621.0
2020-10-15 14:48:20.891582,5993773.0
2020-10-15 14:48:20.911582,5993733.0
2020-10-15 14:48:20.931582,5993651.0
2020-10-15 14:48:20.951582,5993643.0
2020-10-15 14:48:20.971582,5993635.0
2020-10-15 14:48:20.991582,5993408.0
2020-10-15 14:48:21.011582,5993496.0
2020-10-15 14:48:21.031582,5993510.0
2020-10-15 14:48:21.051582,5993803.0
2020-10-15 14:48:21.071582,5993541.0
2020-10-15 14:48:21.091582,5993102.0
2020-10-15 14:48:21.111582,5993378.0
2020-10-15 14:48:21.131582,5993370.0
2020-10-15 14:48:21.356364,5993347.0
2020-10-15 14:48:21.376364,5994145.0
2020-10-15 14:48:21.396364,5994308.0
2020-10-15 14:48:21.416364,5994615.0
2020-10-15 14:48:21.436364,5994846.0
2020-10-15 14:48:21.456364,5995097.0
2020-10-15 14:48:21.476364,5995294.0
2020-10-15 14:48:21.496364,5994865.0
2020-10-15 14:48:21.516364,5994321.0
2020-10-15 14:48:21.536364,5994049.0
2020-10-15 14:48:21.556364,5994041.0
2020-10-15 14:48:21.576364,5994204.0
2020-10-15 14:48:21.596364,5994424.0
2020-10-15 14:48:21.616364,5994304.0
2020-10-15 14:48:21.636364,5994264.0
2020-10-15 14:48:21.656364,5994227.0
2020-10-15 14:48:21.676364,5994079.0
2020-10-15 14:48:21.696364,5994176.0
2020-10-15 14:48:21.716364,5994301.0
2020-10-15 14:48:21.736364,5994274.0
2020-10-15 14:48:21.756364,5993851.0
2020-10-15 14:48:21.776364,5993956.0
2020-10-15 14:48:21.796364,5993835.0
2020-10-15 14:48:21.816364,5994060.0
2020-10-15 14:48:21.836364,5993731.0
2020-10-15 14:48:21.856364,5994085.0
2020-10-15 14:48:21.876364,6002480.0
2020-10-15 14:48:21.896364,5996073.0
2020-10-15 14:48:21.916364,5994535.0
2020-10-15 14:48:21.936364,5994181.0
2020-10-15 14:48:21.956364,5994200.0
2020-10-15 14:48:21.976364,5994139.0
2020-10-15 14:48:21.996364,5994127.0
2020-10-15 14:48:22.016364,5994563.0
2020-10-15 14:48:22.036364,5994856.0
2020-10-15 14:48:22.056364,5994888.0
2020-10-15 14:48:22.076364,5994970.0
2020-10-15 14:48:22.096364,5994968.0
2020-10-15 14:48:22.116364,5994433.0
2020-10-15 14:48:22.136364,5993928.0
2020-10-15 14:48:22.156364,5993647.0
2020-10-15 14:48:22.176364,5993556.0
2020-10-15 14:48:22.196364,5993670.0
2020-10-15 14:48:22.216364,5993574.0
2020-10-15 14:48:22.236364,5993414.0
2020-10-15 14:48:22.256364,5993229.0
2020-10-15 14:48:22.276364,5993053.0
2020-10-15 14:48:22.296364,5992884.0
2020-10-15 14:48:22.316364,5992835.0
2020-10-15 14:48:22.336364,5992772.0
2020-10-15 14:48:22.356364,5993025.0
2020-10-15 14:48:22.376364,5992680.0
2020-10-15 14:48:22.396364,5992386.0
2020-10-15 14:48:22.416364,5992176.0
2020-10-15 14:48:22.436364,5992240.0
2020-10-15 14:48:22.456364,5992158.0
2020-10-15 14:48:22.476364,5992084.0
2020-10-15 14:48:22.496364,5991786.0
2020-10-15 14:48:22.516364,5992240.0
2020-10-15 14:48:22.536364,5995944.0
2020-10-15 14:48:22.556364,5993034.0
2020-10-15 14:48:22.576364,5991924.0
2020-10-15 14:48:22.596364,5991736.0
2020-10-15 14:48:22.616364,5991730.0
2020-10-15 14:48:22.636364,5992013.0
2020-10-15 14:48:22.656364,5991863.0
2020-10-15 14:48:22.676364,5992072.0
2020-10-15 14:48:22.696364,5992097.0
2020-10-15 14:48:22.716364,5992426.0
2020-10-15 14:48:22.736364,5992176.0
2020-10-15 14:48:22.756364,5992039.0
2020-10-15 14:48:22.776364,5991399.0
2020-10-15 14:48:22.796364,5991018.0
2020-10-15 14:48:22.816364,5990907.0
2020-10-15 14:48:22.836364,5990949.0
2020-10-15 14:48:22.856364,5990771.0
2020-10-15 14:48:22.876364,5990561.0
2020-10-15 14:48:22.896364,5990387.0
2020-10-15 14:48:22.916364,5990322.0
2020-10-15 14:48:22.936364,5990088.0
2020-10-15 14:48:22.956364,5989911.0
2020-10-15 14:48:22.976364,5990229.0
2020-10-15 14:48:22.996364,5990137.0
2020-10-15 14:48:23.016364,5989932.0
2020-10-15 14:48:23.036364,5989301.0
2020-10-15 14:48:23.056364,5989450.0
2020-10-15 14:48:23.076364,5989312.0
2020-10-15 14:48:23.096364,5989338.0
2020-10-15 14:48:23.116364,5988997.0
2020-10-15 14:48:23.136364,5989710.0
2020-10-15 14:48:23.156364,5994512.0
2020-10-15 14:48:23.176364,5990798.0
2020-10-15 14:48:23.196364,5989682.0
2020-10-15 14:48:23.216364,5989586.0
2020-10-15 14:48:23.236364,5989437.0
2020-10-15 14:48:23.256364,5989620.0
2020-10-15 14:48:23.276364,5989676.0
2020-10-15 14:48:23.296364,5989997.0
2020-10-15 14:48:23.316364,5990062.0
2020-10-15 14:48:23.336364,5990198.0
2020-10-15 14:48:23.140931,5990514.0
2020-10-15 14:48:23.160931,5988802.0
2020-10-15 14:48:23.180931,5988708.0
2020-10-15 14:48:23.200931,5988612.0
2020-10-15 14:48:23.220931,5988737.0
2020-10-15 14:48:23.240931,5988675.0
2020-10-15 14:48:23.260931,5988718.0
2020-10-15 14:48:23.280931,5988678.0
2020-10-15 14:48:23.300931,5988324.0
2020-10-15 14:48:23.320931,5988014.0
2020-10-15 14:48:23.340931,5988195.0
2020-10-15 14:48:23.360931,5988285.0
2020-10-15 14:48:23.380931,5988591.0
2020-10-15 14:48:23.400931,5988548.0
2020-10-15 14:48:23.420931,5988632.0
2020-10-15 14:48:23.440931,5994352.0
2020-10-15 14:48:23.460931,5990036.0
2020-10-15 14:48:23.480931,5989164.0
2020-10-15 14:48:23.500931,5988849.0
2020-10-15 14:48:23.520931,5988839.0
2020-10-15 14:48:23.540931,5989120.0
2020-10-15 14:48:23.560931,5989287.0
2020-10-15 14:48:23.580931,5989422.0
2020-10-15 14:48:23.600931,5989632.0
2020-10-15 14:48:23.620931,5990051.0
2020-10-15 14:48:23.640931,5990110.0
2020-10-15 14:48:23.660931,5989830.0
2020-10-15 14:48:23.680931,5989387.0
2020-10-15 14:48:23.700931,5989121.0
2020-10-15 14:48:23.720931,5988845.0
2020-10-15 14:48:23.740931,5989195.0
2020-10-15 14:48:23.760931,5989161.0
2020-10-15 14:48:23.780931,5988969.0
2020-10-15 14:48:23.800931,5988793.0
2020-10-15 14:48:23.820931,5988762.0
2020-10-15 14:48:23.840931,5988719.0
2020-10-15 14:48:23.860931,5988654.0
2020-10-15 14:48:23.880931,5988561.0
2020-10-15 14:48:23.900931,5988661.0
2020-10-15 14:48:23.920931,5988762.0
2020-10-15 14:48:23.940931,5988941.0
2020-10-15 14:48:23.960931,5988866.0
2020-10-15 14:48:23.980931,5988576.0
2020-10-15 14:48:24.000931,5988823.0
2020-10-15 14:48:24.020931,5988699.0
2020-10-15 14:48:24.040931,5988790.0
2020-10-15 14:48:24.060931,5988925.0
2020-10-15 14:48:24.080931,5989267.0
2020-10-15 14:48:24.100931,5997816.0
2020-10-15 14:48:24.120931,5991257.0
2020-10-15 14:48:24.140931,5989665.0
2020-10-15 14:48:24.160931,5989337.0
2020-10-15 14:48:24.180931,5989512.0
2020-10-15 14:48:24.200931,5989581.0
2020-10-15 14:48:24.220931,5989578.0
2020-10-15 14:48:24.240931,5990044.0
2020-10-15 14:48:24.260931,5990093.0
2020-10-15 14:48:24.280931,5990441.0
2020-10-15 14:48:24.300931,5990679.0
2020-10-15 14:48:24.320931,5990636.0
2020-10-15 14:48:24.340931,5990300.0
2020-10-15 14:48:24.360931,5989852.0
2020-10-15 14:48:24.380931,5989621.0
2020-10-15 14:48:24.400931,5989814.0
2020-10-15 14:48:24.420931,5989842.0
2020-10-15 14:48:24.440931,5989809.0
2020-10-15 14:48:24.460931,5989736.0
2020-10-15 14:48:24.480931,5989730.0
2020-10-15 14:48:24.500931,5989848.0
2020-10-15 14:48:24.520931,5989709.0
2020-10-15 14:48:24.540931,5989653.0
2020-10-15 14:48:24.560931,5989768.0
2020-10-15 14:48:24.580931,5989718.0
2020-10-15 14:48:24.600931,5989837.0
2020-10-15 14:48:24.620931,5990066.0
2020-10-15 14:48:24.640931,5990033.0
2020-10-15 14:48:24.660931,5989571.0
2020-10-15 14:48:24.680931,5989859.0
2020-10-15 14:48:24.700931,5989848.0
2020-10-15 14:48:24.720931,5990116.0
2020-10-15 14:48:24.740931,5990123.0
2020-10-15 14:48:24.760931,5990503.0
2020-10-15 14:48:24.780931,5998986.0
2020-10-15 14:48:24.800931,5992564.0
2020-10-15 14:48:24.820931,5990943.0
2020-10-15 14:48:24.840931,5990787.0
2020-10-15 14:48:24.860931,5990855.0
2020-10-15 14:48:24.880931,5990880.0
2020-10-15 14:48:24.900931,5991082.0
2020-10-15 14:48:24.920931,5991271.0
2020-10-15 14:48:24.940931,5991389.0
2020-10-15 14:48:24.960931,5991677.0
2020-10-15 14:48:24.980931,5991901.0
2020-10-15 14:48:25.000931,5991965.0
2020-10-15 14:48:25.020931,5991645.0
2020-10-15 14:48:25.040931,5991183.0
2020-10-15 14:48:25.060931,5991084.0
2020-10-15 14:48:25.080931,5990973.0
2020-10-15 14:48:25.100931,5991030.0
2020-10-15 14:48:25.120931,5991172.0
2020-10-15 14:48:25.923253,5991034.0
2020-10-15 14:48:25.943253,5990536.0
2020-10-15 14:48:25.963253,5990465.0
2020-10-15 14:48:25.983253,5990371.0
2020-10-15 14:48:26.003253,5990396.0
2020-10-15 14:48:26.023253,5990491.0
2020-10-15 14:48:26.043253,5990399.0
2020-10-15 14:48:26.063253,5997168.0
2020-10-15 14:48:26.083253,5993069.0
2020-10-15 14:48:26.103253,5991415.0
2020-10-15 14:48:26.123253,5990879.0
2020-10-15 14:48:26.143253,5990996.0
2020-10-15 14:48:26.163253,5991003.0
2020-10-15 14:48:26.183253,5991083.0
2020-10-15 14:48:26.203253,5991430.0
2020-10-15 14:48:26.223253,5991367.0
2020-10-15 14:48:26.243253,5991711.0
2020-10-15 14:48:26.263253,5991637.0
2020-10-15 14:48:26.283253,5991820.0
2020-10-15 14:48:26.303253,5991456.0
2020-10-15 14:48:26.323253,5990856.0
2020-10-15 14:48:26.343253,5990479.0
2020-10-15 14:48:26.363253,5990508.0
2020-10-15 14:48:26.383253,5990483.0
2020-10-15 14:48:26.403253,5990481.0
2020-10-15 14:48:26.423253,5990472.0
2020-10-15 14:48:26.443253,5990323.0
2020-10-15 14:48:26.463253,5990487.0
2020-10-15 14:48:26.483253,5990116.0
2020-10-15 14:48:26.503253,5989961.0
2020-10-15 14:48:26.523253,5989964.0
2020-10-15 14:48:26.543253,5989964.0
2020-10-15 14:48:26.563253,5990210.0
2020-10-15 14:48:26.583253,5989887.0
2020-10-15 14:48:26.603253,5989699.0
2020-10-15 14:48:26.623253,5989669.0
2020-10-15 14:48:26.643253,5989846.0
2020-10-15 14:48:26.663253,5989713.0
2020-10-15 14:48:26.683253,5989725.0
2020-10-15 14:48:26.703253,5989491.0
2020-10-15 14:48:26.723253,5995404.0
2020-10-15 14:48:26.743253,5992443.0
2020-10-15 14:48:26.763253,5990710.0
2020-10-15 14:48:26.783253,5990318.0
2020-10-15 14:48:26.803253,5990230.0
2020-10-15 14:48:26.823253,5990110.0
2020-10-15 14:48:26.843253,5990259.0
2020-10-15 14:48:26.863253,5990536.0
2020-10-15 14:48:26.883253,5990889.0
2020-10-15 14:48:26.903253,5991022.0
2020-10-15 14:48:26.923253,5991219.0
2020-10-15 14:48:26.943253,5991278.0
2020-10-15 14:48:26.963253,5990983.0
2020-10-15 14:48:26.983253,5990500.0
2020-10-15 14:48:27.003253,5990316.0
2020-10-15 14:48:27.023253,5990137.0
2020-10-15 14:48:27.043253,5990245.0
2020-10-15 14:48:27.063253,5990180.0
2020-10-15 14:48:27.083253,5990167.0
2020-10-15 14:48:27.103253,5990012.0
2020-10-15 14:48:27.123253,5989924.0
2020-10-15 14:48:27.143253,5989990.0
2020-10-15 14:48:27.163253,5989883.0
2020-10-15 14:48:27.183253,5989743.0
2020-10-15 14:48:27.203253,5989869.0
2020-10-15 14:48:27.223253,5989759.0
2020-10-15 14:48:27.243253,5989735.0
2020-10-15 14:48:27.263253,5989748.0
2020-10-15 14:48:27.283253,5989952.0
2020-10-15 14:48:27.303253,5989964.0
2020-10-15 14:48:27.323253,5989671.0
2020-10-15 14:48:27.343253,5989999.0
2020-10-15 14:48:27.363253,5989879.0
2020-10-15 14:48:27.383253,5989948.0
2020-10-15 14:48:27.403253,5990048.0
2020-10-15 14:48:27.423253,5990254.0
2020-10-15 14:48:27.443253,5996810.0
2020-10-15 14:48:27.463253,5991846.0
2020-10-15 14:48:27.483253,5990597.0
2020-10-15 14:48:27.503253,5990565.0
2020-10-15 14:48:27.523253,5990616.0
2020-10-15 14:48:27.543253,5990674.0
2020-10-15 14:48:27.563253,5990885.0
2020-10-15 14:48:27.583253,5991121.0
2020-10-15 14:48:27.603253,5991287.0
2020-10-15 14:48:27.623253,5991586.0
2020-10-15 14:48:27.643253,5991657.0
2020-10-15 14:48:27.663253,5991322.0
2020-10-15 14:48:27.683253,5991053.0
2020-10-15 14:48:27.703253,5990646.0
2020-10-15 14:48:27.723253,5990541.0
2020-10-15 14:48:27.743253,5990765.0
2020-10-15 14:48:27.763253,5990659.0
2020-10-15 14:48:27.783253,5990674.0
2020-10-15 14:48:27.803253,5990580.0
2020-10-15 14:48:27.823253,5990547.0
2020-10-15 14:48:27.843253,5990375.0
2020-10-15 14:48:27.863253,5990277.0
2020-10-15 14:48:27.883253,5990490.0
2020-10-15 14:48:27.903253,5990186.0
2020-10-15 14:48:32.262476,5990296.0
2020-10-15 14:48:32.282476,5990081.0
2020-10-15 14:48:32.302476,5990029.0
2020-10-15 14:48:32.322476,5990242.0
2020-10-15 14:48:32.342476,5989945.0
2020-10-15 14:48:32.362476,5990944.0
2020-10-15 14:48:32.382476,5994366.0
2020-10-15 14:48:32.402476,5991549.0
2020-10-15 14:48:32.422476,5990714.0
2020-10-15 14:48:32.442476,5990475.0
2020-10-15 14:48:32.462476,5990558.0
2020-10-15 14:48:32.482476,5990672.0
2020-10-15 14:48:32.502476,5991009.0
2020-10-15 14:48:32.522476,5991120.0
2020-10-15 14:48:32.542476,5991441.0
2020-10-15 14:48:32.562476,5991640.0
2020-10-15 14:48:32.582476,5991837.0
2020-10-15 14:48:32.602476,5991518.0
2020-10-15 14:48:32.622476,5991065.0
2020-10-15 14:48:32.642476,5990726.0
2020-10-15 14:48:32.662476,5990643.0
2020-10-15 14:48:32.682476,5990616.0
2020-10-15 14:48:32.702476,5990713.0
2020-10-15 14:48:32.722476,5990798.0
2020-10-15 14:48:32.742476,5990857.0
2020-10-15 14:48:32.762476,5990724.0
2020-10-15 14:48:32.782476,5990618.0
2020-10-15 14:48:32.802476,5990392.0
2020-10-15 14:48:32.822476,5990549.0
2020-10-15 14:48:32.842476,5990404.0
2020-10-15 14:48:32.862476,5990370.0
2020-10-15 14:48:32.882476,5990369.0
2020-10-15 14:48:32.902476,5990397.0
2020-10-15 14:48:32.922476,5990414.0
2020-10-15 14:48:32.942476,5990408.0
2020-10-15 14:48:32.962476,5990261.0
2020-10-15 14:48:32.982476,5990330.0
2020-10-15 14:48:33.002476,5990310.0
2020-10-15 14:48:33.022476,5990434.0
2020-10-15 14:48:33.042476,5990276.0
2020-10-15 14:48:33.062476,5990122.0
2020-10-15 14:48:33.082476,5992155.0
2020-10-15 14:48:33.102476,5993884.0
2020-10-15 14:48:33.122476,5991913.0
2020-10-15 14:48:33.142476,5990919.0
2020-10-15 14:48:33.162476,5990938.0
2020-10-15 14:48:33.182476,5990879.0
2020-10-15 14:48:33.202476,5991015.0
2020-10-15 14:48:33.222476,5991084.0
2020-10-15 14:48:33.242476,5991509.0
2020-10-15 14:48:33.262476,5991580.0
2020-10-15 14:48:33.282476,5991878.0
2020-10-15 14:48:33.302476,5992119.0
2020-10-15 14:48:33.322476,5991792.0
2020-10-15 14:48:33.342476,5991387.0
2020-10-15 14:48:33.362476,5991061.0
2020-10-15 14:48:33.382476,5990814.0
2020-10-15 14:48:33.402476,5991096.0
2020-10-15 14:48:33.422476,5991109.0
2020-10-15 14:48:33.442476,5991103.0
2020-10-15 14:48:33.462476,5990977.0
2020-10-15 14:48:33.482476,5990916.0
2020-10-15 14:48:33.502476,5990729.0
2020-10-15 14:48:33.522476,5990776.0
2020-10-15 14:48:33.542476,5990567.0
2020-10-15 14:48:33.562476,5990768.0
2020-10-15 14:48:33.582476,5990830.0
2020-10-15 14:48:33.602476,5990936.0
2020-10-15 14:48:33.622476,5991017.0
2020-10-15 14:48:33.642476,5990488.0
2020-10-15 14:48:33.662476,5990824.0
2020-10-15 14:48:33.682476,5990541.0
2020-10-15 14:48:33.702476,5990777.0
2020-10-15 14:48:33.722476,5990848.0
2020-10-15 14:48:33.742476,5990869.0
2020-10-15 14:48:33.762476,5998596.0
2020-10-15 14:48:33.782476,5992886.0
2020-10-15 14:48:33.802476,5991477.0
2020-10-15 14:48:33.822476,5991265.0
2020-10-15 14:48:33.842476,5991288.0
2020-10-15 14:48:33.862476,5991207.0
2020-10-15 14:48:33.882476,5991598.0
2020-10-15 14:48:33.902476,5991837.0
2020-10-15 14:48:33.922476,5992037.0
2020-10-15 14:48:33.942476,5992367.0
2020-10-15 14:48:33.962476,5992552.0
2020-10-15 14:48:33.982476,5992239.0
2020-10-15 14:48:34.002476,5991806.0
2020-10-15 14:48:34.022476,5991399.0
2020-10-15 14:48:34.042476,5991381.0
2020-10-15 14:48:34.062476,5991459.0
2020-10-15 14:48:34.082476,5991486.0
2020-10-15 14:48:34.102476,5991500.0
2020-10-15 14:48:34.122476,5991362.0
2020-10-15 14:48:34.142476,5991441.0
2020-10-15 14:48:34.162476,5991275.0
2020-10-15 14:48:34.182476,5991485.0
2020-10-15 14:48:34.202476,5991258.0
2020-10-15 14:48:34.222476,5991200.0
2020-10-15 14:48:34.242476,5991272.0
2020-10-15 14:48:33.669098,5991268.0
2020-10-15 14:48:33.689098,5990658.0
2020-10-15 14:48:33.709098,5990789.0
2020-10-15 14:48:33.729098,5991004.0
2020-10-15 14:48:33.749098,5991185.0
2020-10-15 14:48:33.769098,5991171.0
2020-10-15 14:48:33.789098,5990608.0
2020-10-15 14:48:33.809098,5990331.0
2020-10-15 14:48:33.829098,5990139.0
2020-10-15 14:48:33.849098,5990015.0
2020-10-15 14:48:33.869098,5990037.0
2020-10-15 14:48:33.889098,5990315.0
2020-10-15 14:48:33.909098,5990256.0
2020-10-15 14:48:33.929098,5989900.0
2020-10-15 14:48:33.949098,5989829.0
2020-10-15 14:48:33.969098,5989813.0
2020-10-15 14:48:33.989098,5989598.0
2020-10-15 14:48:34.009098,5989719.0
2020-10-15 14:48:34.029098,5989712.0
2020-10-15 14:48:34.049098,5989715.0
2020-10-15 14:48:34.069098,5989799.0
2020-10-15 14:48:34.089098,5989854.0
2020-10-15 14:48:34.109098,5989602.0
2020-10-15 14:48:34.129098,5989461.0
2020-10-15 14:48:34.149098,5989613.0
2020-10-15 14:48:34.169098,5989567.0
2020-10-15 14:48:34.189098,5989705.0
2020-10-15 14:48:34.209098,5989545.0
2020-10-15 14:48:34.229098,5992421.0
2020-10-15 14:48:34.249098,5992566.0
2020-10-15 14:48:34.269098,5990855.0
2020-10-15 14:48:34.289098,5990331.0
2020-10-15 14:48:34.309098,5990305.0
2020-10-15 14:48:34.329098,5990271.0
2020-10-15 14:48:34.349098,5990338.0
2020-10-15 14:48:34.369098,5990651.0
2020-10-15 14:48:34.389098,5990771.0
2020-10-15 14:48:34.409098,5990959.0
2020-10-15 14:48:34.429098,5991217.0
2020-10-15 14:48:34.449098,5991215.0
2020-10-15 14:48:34.469098,5990991.0
2020-10-15 14:48:34.489098,5990596.0
2020-10-15 14:48:34.509098,5990215.0
2020-10-15 14:48:34.529098,5990282.0
2020-10-15 14:48:34.549098,5990309.0
2020-10-15 14:48:34.569098,5990152.0
2020-10-15 14:48:34.589098,5990251.0
2020-10-15 14:48:34.609098,5990234.0
2020-10-15 14:48:34.629098,5990007.0
2020-10-15 14:48:34.649098,5990086.0
2020-10-15 14:48:34.669098,5989968.0
2020-10-15 14:48:34.689098,5989835.0
2020-10-15 14:48:34.709098,5989847.0
2020-10-15 14:48:34.729098,5989892.0
2020-10-15 14:48:34.749098,5989806.0
2020-10-15 14:48:34.769098,5989934.0
2020-10-15 14:48:34.789098,5989514.0
2020-10-15 14:48:34.809098,5989751.0
2020-10-15 14:48:34.829098,5989585.0
2020-10-15 14:48:34.849098,5989675.0
2020-10-15 14:48:34.869098,5990118.0
2020-10-15 14:48:34.889098,5990473.0
2020-10-15 14:48:34.909098,5995186.0
2020-10-15 14:48:34.929098,5991555.0
2020-10-15 14:48:34.949098,5990337.0
2020-10-15 14:48:34.969098,5990174.0
2020-10-15 14:48:34.989098,5990110.0
2020-10-15 14:48:35.009098,5990218.0
2020-10-15 14:48:35.029098,5990643.0
2020-10-15 14:48:35.049098,5990698.0
2020-10-15 14:48:35.069098,5990843.0
2020-10-15 14:48:35.089098,5991297.0
2020-10-15 14:48:35.109098,5991398.0
2020-10-15 14:48:35.129098,5991099.0
2020-10-15 14:48:35.149098,5990720.0
2020-10-15 14:48:35.169098,5990221.0
2020-10-15 14:48:35.189098,5990350.0
2020-10-15 14:48:35.209098,5990486.0
2020-10-15 14:48:35.229098,5990423.0
2020-10-15 14:48:35.249098,5990302.0
2020-10-15 14:48:35.269098,5990325.0
2020-10-15 14:48:35.289098,5989972.0
2020-10-15 14:48:35.309098,5990069.0
2020-10-15 14:48:35.329098,5990064.0
2020-10-15 14:48:35.349098,5990028.0
2020-10-15 14:48:35.369098,5990721.0
2020-10-15 14:48:35.389098,5990427.0
2020-10-15 14:48:35.409098,5989974.0
2020-10-15 14:48:35.429098,5989884.0
2020-10-15 14:48:35.449098,5989837.0
2020-10-15 14:48:35.469098,5990094.0
2020-10-15 14:48:35.489098,5989989.0
2020-10-15 14:48:35.509098,5990736.0
2020-10-15 14:48:35.529098,5998716.0
2020-10-15 14:48:35.549098,5992868.0
2020-10-15 14:48:35.569098,5991177.0
2020-10-15 14:48:35.589098,5991084.0
2020-10-15 14:48:35.609098,5991017.0
2020-10-15 14:48:35.629098,5990902.0
2020-10-15 14:48:35.649098,5991120.0
2020-10-15 14:48:35.045292,5991503.0
2020-10-15 14:48:35.065292,5991149.0
2020-10-15 14:48:35.085292,5991174.0
2020-10-15 14:48:35.105292,5991140.0
2020-10-15 14:48:35.125292,5991410.0
2020-10-15 14:48:35.145292,5991290.0
2020-10-15 14:48:35.165292,5991379.0
2020-10-15 14:48:35.185292,5991372.0
2020-10-15 14:48:35.205292,5991314.0
2020-10-15 14:48:35.225292,5991690.0
2020-10-15 14:48:35.245292,5991607.0
2020-10-15 14:48:35.265292,5991432.0
2020-10-15 14:48:35.285292,5991245.0
2020-10-15 14:48:35.305292,5991173.0
2020-10-15 14:48:35.325292,5991510.0
2020-10-15 14:48:35.345292,5991505.0
2020-10-15 14:48:35.365292,5991673.0
2020-10-15 14:48:35.385292,5997833.0
2020-10-15 14:48:35.405292,5994614.0
2020-10-15 14:48:35.425292,5992990.0
2020-10-15 14:48:35.445292,5992444.0
2020-10-15 14:48:35.465292,5992586.0
2020-10-15 14:48:35.485292,5992576.0
2020-10-15 14:48:35.505292,5992764.0
2020-10-15 14:48:35.525292,5993215.0
2020-10-15 14:48:35.545292,5993382.0
2020-10-15 14:48:35.565292,5993822.0
2020-10-15 14:48:35.585292,5994051.0
2020-10-15 14:48:35.605292,5993924.0
2020-10-15 14:48:35.625292,5993824.0
2020-10-15 14:48:35.645292,5993159.0
2020-10-15 14:48:35.665292,5992998.0
2020-10-15 14:48:35.685292,5992903.0
2020-10-15 14:48:35.705292,5993119.0
2020-10-15 14:48:35.725292,5993018.0
2020-10-15 14:48:35.745292,5993109.0
2020-10-15 14:48:35.765292,5993148.0
2020-10-15 14:48:35.785292,5992954.0
2020-10-15 14:48:35.805292,5992963.0
2020-10-15 14:48:35.825292,5993083.0
2020-10-15 14:48:35.845292,5993102.0
2020-10-15 14:48:35.865292,5993448.0
2020-10-15 14:48:35.885292,5993306.0
2020-10-15 14:48:35.905292,5992863.0
2020-10-15 14:48:35.925292,5993096.0
2020-10-15 14:48:35.945292,5993068.0
2020-10-15 14:48:35.965292,5993025.0
2020-10-15 14:48:35.985292,5993135.0
2020-10-15 14:48:36.005292,5993398.0
2020-10-15 14:48:36.025292,6002431.0
2020-10-15 14:48:36.045292,5995383.0
2020-10-15 14:48:36.065292,5994036.0
2020-10-15 14:48:36.085292,5993607.0
2020-10-15 14:48:36.105292,5993575.0
2020-10-15 14:48:36.125292,5993785.0
2020-10-15 14:48:36.145292,5994073.0
2020-10-15 14:48:36.165292,5994387.0
2020-10-15 14:48:36.185292,5994408.0
2020-10-15 14:48:36.205292,5994679.0
2020-10-15 14:48:36.225292,5994924.0
2020-10-15 14:48:36.245292,5994785.0
2020-10-15 14:48:36.265292,5994265.0
2020-10-15 14:48:36.285292,5993990.0
2020-10-15 14:48:36.305292,5994008.0
2020-10-15 14:48:36.325292,5993986.0
2020-10-15 14:48:36.345292,5994020.0
2020-10-15 14:48:36.365292,5993895.0
2020-10-15 14:48:36.385292,5993892.0
2020-10-15 14:48:36.405292,5993795.0
2020-10-15 14:48:36.425292,5993760.0
2020-10-15 14:48:36.445292,5993720.0
2020-10-15 14:48:36.465292,5993689.0
2020-10-15 14:48:36.485292,5993523.0
2020-10-15 14:48:36.505292,5993596.0
2020-10-15 14:48:36.525292,5993786.0
2020-10-15 14:48:36.545292,5993291.0
2020-10-15 14:48:36.565292,5993155.0
2020-10-15 14:48:36.585292,5993468.0
2020-10-15 14:48:36.605292,5993492.0
2020-10-15 14:48:36.625292,5993489.0
2020-10-15 14:48:36.645292,5993588.0
2020-10-15 14:48:36.665292,5993189.0
2020-10-15 14:48:36.685292,6000419.0
2020-10-15 14:48:36.705292,5995189.0
2020-10-15 14:48:36.725292,5994169.0
2020-10-15 14:48:36.745292,5993862.0
2020-10-15 14:48:36.765292,5993933.0
2020-10-15 14:48:36.785292,5994061.0
2020-10-15 14:48:36.805292,5994129.0
2020-10-15 14:48:36.825292,5994252.0
2020-10-15 14:48:36.845292,5994489.0
2020-10-15 14:48:36.865292,5994757.0
2020-10-15 14:48:36.885292,5994717.0
2020-10-15 14:48:36.905292,5994732.0
2020-10-15 14:48:36.925292,5994018.0
2020-10-15 14:48:36.945292,5993571.0
2020-10-15 14:48:36.965292,5993477.0
2020-10-15 14:48:36.985292,5993665.0
2020-10-15 14:48:37.005292,5993580.0
2020-10-15 14:48:37.025292,5993535.0
2020-10-15 14:48:37.501199,5993618.0
2020-10-15 14:48:37.521199,5992085.0
2020-10-15 14:48:37.541199,5992140.0
2020-10-15 14:48:37.561199,5992194.0
2020-10-15 14:48:37.581199,5992233.0
2020-10-15 14:48:37.601199,5992235.0
2020-10-15 14:48:37.621199,5991958.0
2020-10-15 14:48:37.641199,5999976.0
2020-10-15 14:48:37.661199,5994665.0
2020-10-15 14:48:37.681199,5992597.0
2020-10-15 14:48:37.701199,5992089.0
2020-10-15 14:48:37.721199,5991844.0
2020-10-15 14:48:37.741199,5991768.0
2020-10-15 14:48:37.761199,5991843.0
2020-10-15 14:48:37.781199,5991862.0
2020-10-15 14:48:37.801199,5992283.0
2020-10-15 14:48:37.821199,5992035.0
2020-10-15 14:48:37.841199,5992035.0
2020-10-15 14:48:37.861199,5992034.0
2020-10-15 14:48:37.881199,5991435.0
2020-10-15 14:48:37.901199,5990754.0
2020-10-15 14:48:37.921199,5990234.0
2020-10-15 14:48:37.941199,5990185.0
2020-10-15 14:48:37.961199,5990039.0
2020-10-15 14:48:37.981199,5989611.0
2020-10-15 14:48:38.001199,5989389.0
2020-10-15 14:48:38.021199,5989175.0
2020-10-15 14:48:38.041199,5988921.0
2020-10-15 14:48:38.061199,5988900.0
2020-10-15 14:48:38.081199,5988417.0
2020-10-15 14:48:38.101199,5988379.0
2020-10-15 14:48:38.121199,5988136.0
2020-10-15 14:48:38.141199,5987705.0
2020-10-15 14:48:38.161199,5987621.0
2020-10-15 14:48:38.181199,5987389.0
2020-10-15 14:48:38.201199,5987410.0
2020-10-15 14:48:38.221199,5987160.0
2020-10-15 14:48:38.241199,5986676.0
2020-10-15 14:48:38.261199,5987463.0
2020-10-15 14:48:38.281199,5990783.0
2020-10-15 14:48:38.301199,5987939.0
2020-10-15 14:48:38.321199,5987073.0
2020-10-15 14:48:38.341199,5986789.0
2020-10-15 14:48:38.361199,5986796.0
2020-10-15 14:48:38.381199,5986758.0
2020-10-15 14:48:38.401199,5986882.0
2020-10-15 14:48:38.421199,5986844.0
2020-10-15 14:48:38.441199,5987158.0
2020-10-15 14:48:38.461199,5987519.0
2020-10-15 14:48:38.481199,5987400.0
2020-10-15 14:48:38.501199,5986972.0
2020-10-15 14:48:38.521199,5986564.0
2020-10-15 14:48:38.541199,5986168.0
2020-10-15 14:48:38.561199,5986261.0
2020-10-15 14:48:38.581199,5985932.0
2020-10-15 14:48:38.601199,5986040.0
2020-10-15 14:48:38.621199,5986013.0
2020-10-15 14:48:38.641199,5985739.0
2020-10-15 14:48:38.661199,5985767.0
2020-10-15 14:48:38.681199,5985744.0
2020-10-15 14:48:38.701199,5985655.0
2020-10-15 14:48:38.721199,5985675.0
2020-10-15 14:48:38.741199,5985392.0
2020-10-15 14:48:38.761199,5985017.0
2020-10-15 14:48:38.781199,5985238.0
2020-10-15 14:48:38.801199,5985283.0
2020-10-15 14:48:38.821199,5985126.0
2020-10-15 14:48:38.841199,5985107.0
2020-10-15 14:48:38.861199,5984547.0
2020-10-15 14:48:38.881199,5992737.0
2020-10-15 14:48:38.901199,5986860.0
2020-10-15 14:48:38.921199,5985751.0
2020-10-15 14:48:38.941199,5985364.0
2020-10-15 14:48:38.961199,5985354.0
2020-10-15 14:48:38.981199,5985554.0
2020-10-15 14:48:39.001199,5985583.0
2020-10-15 14:48:39.021199,5985760.0
2020-10-15 14:48:39.041199,5986076.0
2020-10-15 14:48:39.061199,5986150.0
2020-10-15 14:48:39.081199,5986442.0
2020-10-15 14:48:39.101199,5986144.0
2020-10-15 14:48:39.121199,5985889.0
2020-10-15 14:48:39.141199,5985363.0
2020-10-15 14:48:39.161199,5985248.0
2020-10-15 14:48:39.181199,5985495.0
2020-10-15 14:48:39.201199,5985511.0
2020-10-15 14:48:39.221199,5985306.0
2020-10-15 14:48:39.241199,5985177.0
2020-10-15 14:48:39.261199,5985191.0
2020-10-15 14:48:39.281199,5985282.0
2020-10-15 14:48:39.301199,5985332.0
2020-10-15 14:48:39.321199,5985368.0
2020-10-15 14:48:39.341199,5985375.0
2020-10-15 14:48:39.361199,5984582.0
2020-10-15 14:48:39.381199,5984843.0
2020-10-15 14:48:39.401199,5984957.0
2020-10-15 14:48:39.421199,5985046.0
2020-10-15 14:48:39.441199,5985285.0
2020-10-15 14:48:39.461199,5984704.0
2020-10-15 14:48:39.481199,5992724.0
2020-10-15 14:48:39.958786,5986892.0
2020-10-15 14:48:39.978786,5986593.0
2020-10-15 14:48:39.998786,5986863.0
2020-10-15 14:48:40.018786,5986832.0
2020-10-15 14:48:40.038786,5986428.0
2020-10-15 14:48:40.058786,5986143.0
2020-10-15 14:48:40.078786,5986006.0
2020-10-15 14:48:40.098786,5986246.0
2020-10-15 14:48:40.118786,5985952.0
2020-10-15 14:48:40.138786,5986061.0
2020-10-15 14:48:40.158786,5985977.0
2020-10-15 14:48:40.178786,5985977.0
2020-10-15 14:48:40.198786,5985975.0
2020-10-15 14:48:40.218786,5986222.0
2020-10-15 14:48:40.238786,5986235.0
2020-10-15 14:48:40.258786,5985990.0
2020-10-15 14:48:40.278786,5985590.0
2020-10-15 14:48:40.298786,5985747.0
2020-10-15 14:48:40.318786,5985850.0
2020-10-15 14:48:40.338786,5985947.0
2020-10-15 14:48:40.358786,5985941.0
2020-10-15 14:48:40.378786,5985975.0
2020-10-15 14:48:40.398786,5991933.0
2020-10-15 14:48:40.418786,5987860.0
2020-10-15 14:48:40.438786,5986598.0
2020-10-15 14:48:40.458786,5986448.0
2020-10-15 14:48:40.478786,5986661.0
2020-10-15 14:48:40.498786,5986670.0
2020-10-15 14:48:40.518786,5986878.0
2020-10-15 14:48:40.538786,5986924.0
2020-10-15 14:48:40.558786,5987234.0
2020-10-15 14:48:40.578786,5987330.0
2020-10-15 14:48:40.598786,5987454.0
2020-10-15 14:48:40.618786,5987158.0
2020-10-15 14:48:40.638786,5986789.0
2020-10-15 14:48:40.658786,5986550.0
2020-10-15 14:48:40.678786,5986492.0
2020-10-15 14:48:40.698786,5986526.0
2020-10-15 14:48:40.718786,5986368.0
2020-10-15 14:48:40.738786,5986335.0
2020-10-15 14:48:40.758786,5986210.0
2020-10-15 14:48:40.778786,5986057.0
2020-10-15 14:48:40.798786,5986080.0
2020-10-15 14:48:40.818786,5985938.0
2020-10-15 14:48:40.838786,5986063.0
2020-10-15 14:48:40.858786,5986019.0
2020-10-15 14:48:40.878786,5985932.0
2020-10-15 14:48:40.898786,5985593.0
2020-10-15 14:48:40.918786,5985732.0
2020-10-15 14:48:40.938786,5985551.0
2020-10-15 14:48:40.958786,5985438.0
2020-10-15 14:48:40.978786,5985618.0
2020-10-15 14:48:40.998786,5985108.0
2020-10-15 14:48:41.018786,5990496.0
2020-10-15 14:48:41.038786,5988349.0
2020-10-15 14:48:41.058786,5986345.0
2020-10-15 14:48:41.078786,5985751.0
2020-10-15 14:48:41.098786,5985618.0
2020-10-15 14:48:41.118786,5985665.0
2020-10-15 14:48:41.138786,5985816.0
2020-10-15 14:48:41.158786,5986100.0
2020-10-15 14:48:41.178786,5986120.0
2020-10-15 14:48:41.198786,5986328.0
2020-10-15 14:48:41.218786,5986500.0
2020-10-15 14:48:41.238786,5986540.0
2020-10-15 14:48:41.258786,5986269.0
2020-10-15 14:48:41.278786,5985705.0
2020-10-15 14:48:41.298786,5985597.0
2020-10-15 14:48:41.318786,5985747.0
2020-10-15 14:48:41.338786,5985716.0
2020-10-15 14:48:41.358786,5985637.0
2020-10-15 14:48:41.378786,5985465.0
2020-10-15 14:48:41.398786,5985280.0
2020-10-15 14:48:41.418786,5985197.0
2020-10-15 14:48:41.438786,5985024.0
2020-10-15 14:48:41.458786,5984976.0
2020-10-15 14:48:41.478786,5985000.0
2020-10-15 14:48:41.498786,5985132.0
2020-10-15 14:48:41.518786,5984948.0
2020-10-15 14:48:41.538786,5985160.0
2020-10-15 14:48:41.558786,5985123.0
2020-10-15 14:48:41.578786,5984573.0
2020-10-15 14:48:41.598786,5984844.0
2020-10-15 14:48:41.618786,5984927.0
2020-10-15 14:48:41.638786,5984802.0
2020-10-15 14:48:41.658786,5985053.0
2020-10-15 14:48:41.678786,5984708.0
2020-10-15 14:48:41.698786,5994596.0
2020-10-15 14:48:41.718786,5987230.0
2020-10-15 14:48:41.738786,5985559.0
2020-10-15 14:48:41.758786,5985255.0
2020-10-15 14:48:41.778786,5985255.0
2020-10-15 14:48:41.798786,5985392.0
2020-10-15 14:48:41.818786,5985456.0
2020-10-15 14:48:41.838786,5985740.0
2020-10-15 14:48:41.858786,5985978.0
2020-10-15 14:48:41.878786,5985996.0
2020-10-15 14:48:41.898786,5986348.0
2020-10-15 14:48:41.918786,5986317.0
2020-10-15 14:48:41.938786,5985907.0
2020-10-15 14:48:41.802448,5985767.0
2020-10-15 14:48:41.822448,5985238.0
2020-10-15 14:48:41.842448,5985241.0
2020-10-15 14:48:41.862448,5985153.0
2020-10-15 14:48:41.882448,5985114.0
2020-10-15 14:48:41.902448,5985256.0
2020-10-15 14:48:41.922448,5985185.0
2020-10-15 14:48:41.942448,5985298.0
2020-10-15 14:48:41.962448,5985317.0
2020-10-15 14:48:41.982448,5985009.0
2020-10-15 14:48:42.002448,5985002.0
2020-10-15 14:48:42.022448,5985147.0
2020-10-15 14:48:42.042448,5985143.0
2020-10-15 14:48:42.062448,5985179.0
2020-10-15 14:48:42.082448,5984920.0
2020-10-15 14:48:42.102448,5988769.0
2020-10-15 14:48:42.122448,5988936.0
2020-10-15 14:48:42.142448,5986569.0
2020-10-15 14:48:42.162448,5985831.0
2020-10-15 14:48:42.182448,5985730.0
2020-10-15 14:48:42.202448,5985893.0
2020-10-15 14:48:42.222448,5986088.0
2020-10-15 14:48:42.242448,5986130.0
2020-10-15 14:48:42.262448,5986388.0
2020-10-15 14:48:42.282448,5986729.0
2020-10-15 14:48:42.302448,5986755.0
2020-10-15 14:48:42.322448,5986946.0
2020-10-15 14:48:42.342448,5986828.0
2020-10-15 14:48:42.362448,5986372.0
2020-10-15 14:48:42.382448,5986069.0
2020-10-15 14:48:42.402448,5986104.0
2020-10-15 14:48:42.422448,5986081.0
2020-10-15 14:48:42.442448,5986194.0
2020-10-15 14:48:42.462448,5986185.0
2020-10-15 14:48:42.482448,5986000.0
2020-10-15 14:48:42.502448,5986014.0
2020-10-15 14:48:42.522448,5985964.0
2020-10-15 14:48:42.542448,5985998.0
2020-10-15 14:48:42.562448,5985973.0
2020-10-15 14:48:42.582448,5986010.0
2020-10-15 14:48:42.602448,5986141.0
2020-10-15 14:48:42.622448,5986020.0
2020-10-15 14:48:42.642448,5986128.0
2020-10-15 14:48:42.662448,5985876.0
2020-10-15 14:48:42.682448,5986097.0
2020-10-15 14:48:42.702448,5986150.0
2020-10-15 14:48:42.722448,5986279.0
2020-10-15 14:48:42.742448,5986077.0
2020-10-15 14:48:42.762448,5986044.0
2020-10-15 14:48:42.782448,5986085.0
2020-10-15 14:48:42.802448,5985960.0
2020-10-15 14:48:42.822448,5986038.0
2020-10-15 14:48:42.842448,5986240.0
2020-10-15 14:48:42.862448,5993926.0
2020-10-15 14:48:42.882448,5988799.0
2020-10-15 14:48:42.902448,5987189.0
2020-10-15 14:48:42.922448,5986649.0
2020-10-15 14:48:42.942448,5986582.0
2020-10-15 14:48:42.962448,5986439.0
2020-10-15 14:48:42.982448,5986830.0
2020-10-15 14:48:43.002448,5987128.0
2020-10-15 14:48:43.022448,5987323.0
2020-10-15 14:48:43.042448,5987537.0
2020-10-15 14:48:43.062448,5987761.0
2020-10-15 14:48:43.082448,5987874.0
2020-10-15 14:48:43.102448,5987636.0
2020-10-15 14:48:43.122448,5987173.0
2020-10-15 14:48:43.142448,5986978.0
2020-10-15 14:48:43.162448,5986962.0
2020-10-15 14:48:43.182448,5987046.0
2020-10-15 14:48:43.202448,5986957.0
2020-10-15 14:48:43.222448,5987020.0
2020-10-15 14:48:43.242448,5986951.0
2020-10-15 14:48:43.262448,5986831.0
2020-10-15 14:48:43.282448,5986744.0
2020-10-15 14:48:43.302448,5986810.0
2020-10-15 14:48:43.322448,5986695.0
2020-10-15 14:48:43.342448,5986637.0
2020-10-15 14:48:43.362448,5986629.0
2020-10-15 14:48:43.382448,5986738.0
2020-10-15 14:48:43.402448,5986722.0
2020-10-15 14:48:43.422448,5986632.0
2020-10-15 14:48:43.442448,5986735.0
2020-10-15 14:48:43.462448,5986502.0
2020-10-15 14:48:43.482448,5986694.0
2020-10-15 14:48:43.502448,5986608.0
2020-10-15 14:48:43.522448,5986583.0
2020-10-15 14:48:43.542448,5986423.0
2020-10-15 14:48:43.562448,5986562.0
2020-10-15 14:48:43.582448,5986552.0
2020-10-15 14:48:43.602448,5986408.0
2020-10-15 14:48:43.622448,5986709.0
2020-10-15 14:48:43.642448,5994123.0
2020-10-15 14:48:43.662448,5989338.0
2020-10-15 14:48:43.682448,5987500.0
2020-10-15 14:48:43.702448,5986874.0
2020-10-15 14:48:43.722448,5986908.0
2020-10-15 14:48:43.742448,5986912.0
2020-10-15 14:48:43.762448,5987154.0
2020-10-15 14:48:43.782448,5987159.0
2020-10-15 14:48:44.557219,5987430.0
2020-10-15 14:48:44.577219,5986854.0
2020-10-15 14:48:44.597219,5986860.0
2020-10-15 14:48:44.617219,5986615.0
2020-10-15 14:48:44.637219,5986601.0
2020-10-15 14:48:44.657219,5986470.0
2020-10-15 14:48:44.677219,5986457.0
2020-10-15 14:48:44.697219,5986241.0
2020-10-15 14:48:44.717219,5986408.0
2020-10-15 14:48:44.737219,5986441.0
2020-10-15 14:48:44.757219,5986370.0
2020-10-15 14:48:44.777219,5986326.0
2020-10-15 14:48:44.797219,5986231.0
2020-10-15 14:48:44.817219,5986141.0
2020-10-15 14:48:44.837219,5986256.0
2020-10-15 14:48:44.857219,5986084.0
2020-10-15 14:48:44.877219,5986099.0
2020-10-15 14:48:44.897219,5985886.0
2020-10-15 14:48:44.917219,5985994.0
2020-10-15 14:48:44.937219,5986246.0
2020-10-15 14:48:44.957219,5985595.0
2020-10-15 14:48:44.977219,5985608.0
2020-10-15 14:48:44.997219,5985797.0
2020-10-15 14:48:45.017219,5985742.0
2020-10-15 14:48:45.037219,5985410.0
2020-10-15 14:48:45.057219,5986005.0
2020-10-15 14:48:45.077219,5990567.0
2020-10-15 14:48:45.097219,5987289.0
2020-10-15 14:48:45.117219,5986208.0
2020-10-15 14:48:45.137219,5986228.0
2020-10-15 14:48:45.157219,5986015.0
2020-10-15 14:48:45.177219,5986619.0
2020-10-15 14:48:45.197219,5986549.0
2020-10-15 14:48:45.217219,5986881.0
2020-10-15 14:48:45.237219,5987246.0
2020-10-15 14:48:45.257219,5987686.0
2020-10-15 14:48:45.277219,5987906.0
2020-10-15 14:48:45.297219,5987623.0
2020-10-15 14:48:45.317219,5987237.0
2020-10-15 14:48:45.337219,5986558.0
2020-10-15 14:48:45.357219,5986044.0
2020-10-15 14:48:45.377219,5986280.0
2020-10-15 14:48:45.397219,5986363.0
2020-10-15 14:48:45.417219,5986285.0
2020-10-15 14:48:45.437219,5985962.0
2020-10-15 14:48:45.457219,5985940.0
2020-10-15 14:48:45.477219,5985863.0
2020-10-15 14:48:45.497219,5985758.0
2020-10-15 14:48:45.517219,5985469.0
2020-10-15 14:48:45.537219,5985700.0
2020-10-15 14:48:45.557219,5985804.0
2020-10-15 14:48:45.577219,5985986.0
2020-10-15 14:48:45.597219,5986025.0
2020-10-15 14:48:45.617219,5985662.0
2020-10-15 14:48:45.637219,5985703.0
2020-10-15 14:48:45.657219,5985733.0
2020-10-15 14:48:45.677219,5985733.0
2020-10-15 14:48:45.697219,5985587.0
2020-10-15 14:48:45.717219,5985323.0
2020-10-15 14:48:45.737219,5985495.0
2020-10-15 14:48:45.757219,5985693.0
2020-10-15 14:48:45.777219,5985829.0
2020-10-15 14:48:45.797219,5985580.0
2020-10-15 14:48:45.817219,5985707.0
2020-10-15 14:48:45.837219,5992220.0
2020-10-15 14:48:45.857219,5987351.0
2020-10-15 14:48:45.877219,5986408.0
2020-10-15 14:48:45.897219,5986283.0
2020-10-15 14:48:45.917219,5986317.0
2020-10-15 14:48:45.937219,5986422.0
2020-10-15 14:48:45.957219,5986582.0
2020-10-15 14:48:45.977219,5986733.0
2020-10-15 14:48:45.997219,5986842.0
2020-10-15 14:48:46.017219,5987101.0
2020-10-15 14:48:46.037219,5987188.0
2020-10-15 14:48:46.057219,5987150.0
2020-10-15 14:48:46.077219,5986794.0
2020-10-15 14:48:46.097219,5986494.0
2020-10-15 14:48:46.117219,5986355.0
2020-10-15 14:48:46.137219,5986383.0
2020-10-15 14:48:46.157219,5986385.0
2020-10-15 14:48:46.177219,5986316.0
2020-10-15 14:48:46.197219,5986116.0
2020-10-15 14:48:46.217219,5986180.0
2020-10-15 14:48:46.237219,5986117.0
2020-10-15 14:48:46.257219,5985844.0
2020-10-15 14:48:46.277219,5985961.0
2020-10-15 14:48:46.297219,5986118.0
2020-10-15 14:48:46.317219,5985792.0
2020-10-15 14:48:46.337219,5985930.0
2020-10-15 14:48:46.357219,5985937.0
2020-10-15 14:48:46.377219,5985634.0
2020-10-15 14:48:46.397219,5985463.0
2020-10-15 14:48:46.417219,5985602.0
2020-10-15 14:48:46.437219,5985570.0
2020-10-15 14:48:46.457219,5985458.0
2020-10-15 14:48:46.477219,5985716.0
2020-10-15 14:48:46.497219,5994247.0
2020-10-15 14:48:46.517219,5988224.0
2020-10-15 14:48:46.537219,5986258.0
2020-10-15 14:48:46.299960,5985831.0
2020-10-15 14:48:46.319960,5986256.0
2020-10-15 14:48:46.339960,5986037.0
2020-10-15 14:48:46.359960,5985635.0
2020-10-15 14:48:46.379960,5985363.0
2020-10-15 14:48:46.399960,5984832.0
2020-10-15 14:48:46.419960,5984892.0
2020-10-15 14:48:46.439960,5984782.0
2020-10-15 14:48:46.459960,5984756.0
2020-10-15 14:48:46.479960,5984716.0
2020-10-15 14:48:46.499960,5984666.0
2020-10-15 14:48:46.519960,5984397.0
2020-10-15 14:48:46.539960,5984190.0
2020-10-15 14:48:46.559960,5984276.0
2020-10-15 14:48:46.579960,5983934.0
2020-10-15 14:48:46.599960,5983769.0
2020-10-15 14:48:46.619960,5983912.0
2020-10-15 14:48:46.639960,5983824.0
2020-10-15 14:48:46.659960,5983651.0
2020-10-15 14:48:46.679960,5983471.0
2020-10-15 14:48:46.699960,5983366.0
2020-10-15 14:48:46.719960,5983281.0
2020-10-15 14:48:46.739960,5983287.0
2020-10-15 14:48:46.759960,5983501.0
2020-10-15 14:48:46.779960,5983117.0
2020-10-15 14:48:46.799960,5984012.0
2020-10-15 14:48:46.819960,5987466.0
2020-10-15 14:48:46.839960,5984640.0
2020-10-15 14:48:46.859960,5983729.0
2020-10-15 14:48:46.879960,5983512.0
2020-10-15 14:48:46.899960,5983504.0
2020-10-15 14:48:46.919960,5983834.0
2020-10-15 14:48:46.939960,5983918.0
2020-10-15 14:48:46.959960,5984177.0
2020-10-15 14:48:46.979960,5984207.0
2020-10-15 14:48:46.999960,5984501.0
2020-10-15 14:48:47.019960,5984628.0
2020-10-15 14:48:47.039960,5984091.0
2020-10-15 14:48:47.059960,5983741.0
2020-10-15 14:48:47.079960,5983140.0
2020-10-15 14:48:47.099960,5983049.0
2020-10-15 14:48:47.119960,5983063.0
2020-10-15 14:48:47.139960,5982896.0
2020-10-15 14:48:47.159960,5983038.0
2020-10-15 14:48:47.179960,5982814.0
2020-10-15 14:48:47.199960,5982734.0
2020-10-15 14:48:47.219960,5982765.0
2020-10-15 14:48:47.239960,5982550.0
2020-10-15 14:48:47.259960,5982766.0
2020-10-15 14:48:47.279960,5982634.0
2020-10-15 14:48:47.299960,5982384.0
2020-10-15 14:48:47.319960,5982509.0
2020-10-15 14:48:47.339960,5982672.0
2020-10-15 14:48:47.359960,5982471.0
2020-10-15 14:48:47.379960,5982525.0
2020-10-15 14:48:47.399960,5982583.0
2020-10-15 14:48:47.419960,5982314.0
2020-10-15 14:48:47.439960,5982238.0
2020-10-15 14:48:47.459960,5982194.0
2020-10-15 14:48:47.479960,5982364.0
2020-10-15 14:48:47.499960,5982311.0
2020-10-15 14:48:47.519960,5982937.0
2020-10-15 14:48:47.539960,5991171.0
2020-10-15 14:48:47.559960,5984883.0
2020-10-15 14:48:47.579960,5983308.0
2020-10-15 14:48:47.599960,5983090.0
2020-10-15 14:48:47.619960,5982958.0
2020-10-15 14:48:47.639960,5982962.0
2020-10-15 14:48:47.659960,5983142.0
2020-10-15 14:48:47.679960,5983435.0
2020-10-15 14:48:47.699960,5983526.0
2020-10-15 14:48:47.719960,5983915.0
2020-10-15 14:48:47.739960,5984414.0
2020-10-15 14:48:47.759960,5984524.0
2020-10-15 14:48:47.779960,5983819.0
2020-10-15 14:48:47.799960,5983382.0
2020-10-15 14:48:47.819960,5983099.0
2020-10-15 14:48:47.839960,5982879.0
2020-10-15 14:48:47.859960,5983052.0
2020-10-15 14:48:47.879960,5983117.0
2020-10-15 14:48:47.899960,5982978.0
2020-10-15 14:48:47.919960,5983042.0
2020-10-15 14:48:47.939960,5982982.0
2020-10-15 14:48:47.959960,5982951.0
2020-10-15 14:48:47.979960,5982934.0
2020-10-15 14:48:47.999960,5982942.0
2020-10-15 14:48:48.019960,5982946.0
2020-10-15 14:48:48.039960,5983013.0
2020-10-15 14:48:48.059960,5982911.0
2020-10-15 14:48:48.079960,5982755.0
2020-10-15 14:48:48.099960,5982752.0
2020-10-15 14:48:48.119960,5982613.0
2020-10-15 14:48:48.139960,5982868.0
2020-10-15 14:48:48.159960,5982757.0
2020-10-15 14:48:48.179960,5982565.0
2020-10-15 14:48:48.199960,5982399.0
2020-10-15 14:48:48.219960,5982437.0
2020-10-15 14:48:48.239960,5982617.0
2020-10-15 14:48:48.259960,5982670.0
2020-10-15 14:48:48.279960,5982478.0
2020-10-15 14:48:48.465531,5983767.0
2020-10-15 14:48:48.485531,5984087.0
2020-10-15 14:48:48.505531,5984439.0
2020-10-15 14:48:48.525531,5984658.0
2020-10-15 14:48:48.545531,5984458.0
2020-10-15 14:48:48.565531,5983980.0
2020-10-15 14:48:48.585531,5983476.0
2020-10-15 14:48:48.605531,5983388.0
2020-10-15 14:48:48.625531,5983339.0
2020-10-15 14:48:48.645531,5983339.0
2020-10-15 14:48:48.665531,5983336.0
2020-10-15 14:48:48.685531,5983700.0
2020-10-15 14:48:48.705531,5983479.0
2020-10-15 14:48:48.725531,5983327.0
2020-10-15 14:48:48.745531,5983388.0
2020-10-15 14:48:48.765531,5983208.0
2020-10-15 14:48:48.785531,5983495.0
2020-10-15 14:48:48.805531,5983154.0
2020-10-15 14:48:48.825531,5983113.0
2020-10-15 14:48:48.845531,5983208.0
2020-10-15 14:48:48.865531,5983230.0
2020-10-15 14:48:48.885531,5983202.0
2020-10-15 14:48:48.905531,5983108.0
2020-10-15 14:48:48.925531,5983332.0
2020-10-15 14:48:48.945531,5983327.0
2020-10-15 14:48:48.965531,5983434.0
2020-10-15 14:48:48.985531,5983313.0
2020-10-15 14:48:49.005531,5982988.0
2020-10-15 14:48:49.025531,5983363.0
2020-10-15 14:48:49.045531,5983161.0
2020-10-15 14:48:49.065531,5983300.0
2020-10-15 14:48:49.085531,5983296.0
2020-10-15 14:48:49.105531,5983815.0
2020-10-15 14:48:49.125531,5992760.0
2020-10-15 14:48:49.145531,5985747.0
2020-10-15 14:48:49.165531,5984102.0
2020-10-15 14:48:49.185531,5983935.0
2020-10-15 14:48:49.205531,5983856.0
2020-10-15 14:48:49.225531,5984020.0
2020-10-15 14:48:49.245531,5984146.0
2020-10-15 14:48:49.265531,5984412.0
2020-10-15 14:48:49.285531,5984578.0
2020-10-15 14:48:49.305531,5984877.0
2020-10-15 14:48:49.325531,5985226.0
2020-10-15 14:48:49.345531,5985229.0
2020-10-15 14:48:49.365531,5984567.0
2020-10-15 14:48:49.385531,5984220.0
2020-10-15 14:48:49.405531,5984034.0
2020-10-15 14:48:49.425531,5983884.0
2020-10-15 14:48:49.445531,5983937.0
2020-10-15 14:48:49.465531,5984127.0
2020-10-15 14:48:49.485531,5984172.0
2020-10-15 14:48:49.505531,5984059.0
2020-10-15 14:48:49.525531,5983956.0
2020-10-15 14:48:49.545531,5983744.0
2020-10-15 14:48:49.565531,5983702.0
2020-10-15 14:48:49.585531,5983642.0
2020-10-15 14:48:49.605531,5983863.0
2020-10-15 14:48:49.625531,5983710.0
2020-10-15 14:48:49.645531,5983861.0
2020-10-15 14:48:49.665531,5983858.0
2020-10-15 14:48:49.685531,5983675.0
2020-10-15 14:48:49.705531,5983851.0
2020-10-15 14:48:49.725531,5983761.0
2020-10-15 14:48:49.745531,5984082.0
2020-10-15 14:48:49.765531,5983838.0
2020-10-15 14:48:49.785531,5983618.0
2020-10-15 14:48:49.805531,5983770.0
2020-10-15 14:48:49.825531,5983686.0
2020-10-15 14:48:49.845531,5983864.0
2020-10-15 14:48:49.865531,5984091.0
2020-10-15 14:48:49.885531,5984200.0
2020-10-15 14:48:49.905531,5993654.0
2020-10-15 14:48:49.925531,5986339.0
2020-10-15 14:48:49.945531,5984814.0
2020-10-15 14:48:49.965531,5984485.0
2020-10-15 14:48:49.985531,5984436.0
2020-10-15 14:48:50.005531,5984627.0
2020-10-15 14:48:50.025531,5984664.0
2020-10-15 14:48:50.045531,5985124.0
2020-10-15 14:48:50.065531,5985177.0
2020-10-15 14:48:50.085531,5985321.0
2020-10-15 14:48:50.105531,5985651.0
2020-10-15 14:48:50.125531,5985646.0
2020-10-15 14:48:50.145531,5985308.0
2020-10-15 14:48:50.165531,5984828.0
2020-10-15 14:48:50.185531,5984595.0
2020-10-15 14:48:50.205531,5984580.0
2020-10-15 14:48:50.225531,5984644.0
2020-10-15 14:48:50.245531,5984586.0
2020-10-15 14:48:50.265531,5984715.0
2020-10-15 14:48:50.285531,5984546.0
2020-10-15 14:48:50.305531,5984384.0
2020-10-15 14:48:50.325531,5984423.0
2020-10-15 14:48:50.345531,5984125.0
2020-10-15 14:48:50.365531,5984268.0
2020-10-15 14:48:50.385531,5984255.0
2020-10-15 14:48:50.405531,5984178.0
2020-10-15 14:48:50.425531,5984161.0
2020-10-15 14:48:50.445531,5984164.0
2020-10-15 14:48:51.239776,5984091.0
2020-10-15 14:48:51.259776,5984194.0
2020-10-15 14:48:51.279776,5984472.0
2020-10-15 14:48:51.299776,5984814.0
2020-10-15 14:48:51.319776,5993378.0
2020-10-15 14:48:51.339776,5986711.0
2020-10-15 14:48:51.359776,5985175.0
2020-10-15 14:48:51.379776,5985087.0
2020-10-15 14:48:51.399776,5984880.0
2020-10-15 14:48:51.419776,5985083.0
2020-10-15 14:48:51.439776,5985164.0
2020-10-15 14:48:51.459776,5985478.0
2020-10-15 14:48:51.479776,5985888.0
2020-10-15 14:48:51.499776,5986120.0
2020-10-15 14:48:51.519776,5986205.0
2020-10-15 14:48:51.539776,5986018.0
2020-10-15 14:48:51.559776,5985576.0
2020-10-15 14:48:51.579776,5985195.0
2020-10-15 14:48:51.599776,5984840.0
2020-10-15 14:48:51.619776,5984948.0
2020-10-15 14:48:51.639776,5985007.0
2020-10-15 14:48:51.659776,5985077.0
2020-10-15 14:48:51.679776,5985117.0
2020-10-15 14:48:51.699776,5984889.0
2020-10-15 14:48:51.719776,5984939.0
2020-10-15 14:48:51.739776,5984736.0
2020-10-15 14:48:51.759776,5984755.0
2020-10-15 14:48:51.779776,5984741.0
2020-10-15 14:48:51.799776,5984866.0
2020-10-15 14:48:51.819776,5984773.0
2020-10-15 14:48:51.839776,5984706.0
2020-10-15 14:48:51.859776,5984702.0
2020-10-15 14:48:51.879776,5984829.0
2020-10-15 14:48:51.899776,5984738.0
2020-10-15 14:48:51.919776,5984627.0
2020-10-15 14:48:51.939776,5984645.0
2020-10-15 14:48:51.959776,5984341.0
2020-10-15 14:48:51.979776,5984406.0
2020-10-15 14:48:51.999776,5984291.0
2020-10-15 14:48:52.019776,5984702.0
2020-10-15 14:48:52.039776,5984633.0
2020-10-15 14:48:52.059776,5984949.0
2020-10-15 14:48:52.079776,5984679.0
2020-10-15 14:48:52.099776,5988212.0
2020-10-15 14:48:52.119776,5988967.0
2020-10-15 14:48:52.139776,5986365.0
2020-10-15 14:48:52.159776,5985501.0
2020-10-15 14:48:52.179776,5985563.0
2020-10-15 14:48:52.199776,5985354.0
2020-10-15 14:48:52.219776,5985601.0
2020-10-15 14:48:52.239776,5985668.0
2020-10-15 14:48:52.259776,5985997.0
2020-10-15 14:48:52.279776,5986208.0
2020-10-15 14:48:52.299776,5986448.0
2020-10-15 14:48:52.319776,5986577.0
2020-10-15 14:48:52.339776,5986332.0
2020-10-15 14:48:52.359776,5985806.0
2020-10-15 14:48:52.379776,5985507.0
2020-10-15 14:48:52.399776,5985144.0
2020-10-15 14:48:52.419776,5985274.0
2020-10-15 14:48:52.439776,5985449.0
2020-10-15 14:48:52.459776,5985465.0
2020-10-15 14:48:52.479776,5985363.0
2020-10-15 14:48:52.499776,5985263.0
2020-10-15 14:48:52.519776,5985204.0
2020-10-15 14:48:52.539776,5985112.0
2020-10-15 14:48:52.559776,5985144.0
2020-10-15 14:48:52.579776,5984989.0
2020-10-15 14:48:52.599776,5985023.0
2020-10-15 14:48:52.619776,5985159.0
2020-10-15 14:48:52.639776,5985070.0
2020-10-15 14:48:52.659776,5985003.0
2020-10-15 14:48:52.679776,5985060.0
2020-10-15 14:48:52.699776,5985073.0
2020-10-15 14:48:52.719776,5984953.0
2020-10-15 14:48:52.739776,5985150.0
2020-10-15 14:48:52.759776,5984651.0
2020-10-15 14:48:52.779776,5984669.0
2020-10-15 14:48:52.799776,5984665.0
2020-10-15 14:48:52.819776,5985027.0
2020-10-15 14:48:52.839776,5985187.0
2020-10-15 14:48:52.859776,5985289.0
2020-10-15 14:48:52.879776,5985376.0
2020-10-15 14:48:52.899776,5992424.0
2020-10-15 14:48:52.919776,5988239.0
2020-10-15 14:48:52.939776,5986483.0
2020-10-15 14:48:52.959776,5985828.0
2020-10-15 14:48:52.979776,5985794.0
2020-10-15 14:48:52.999776,5985872.0
2020-10-15 14:48:53.019776,5986035.0
2020-10-15 14:48:53.039776,5986240.0
2020-10-15 14:48:53.059776,5986291.0
2020-10-15 14:48:53.079776,5986794.0
2020-10-15 14:48:53.099776,5987081.0
2020-10-15 14:48:53.119776,5987258.0
2020-10-15 14:48:53.139776,5986868.0
2020-10-15 14:48:53.159776,5986396.0
2020-10-15 14:48:53.179776,5985900.0
2020-10-15 14:48:53.199776,5985819.0
2020-10-15 14:48:53.219776,5985722.0
2020-10-15 14:48:53.062428,5986040.0
2020-10-15 14:48:53.082428,5985625.0
2020-10-15 14:48:53.102428,5985442.0
2020-10-15 14:48:53.122428,5985470.0
2020-10-15 14:48:53.142428,5985516.0
2020-10-15 14:48:53.162428,5985335.0
2020-10-15 14:48:53.182428,5985467.0
2020-10-15 14:48:53.202428,5985270.0
2020-10-15 14:48:53.222428,5985335.0
2020-10-15 14:48:53.242428,5985000.0
2020-10-15 14:48:53.262428,5985456.0
2020-10-15 14:48:53.282428,5985654.0
2020-10-15 14:48:53.302428,5985704.0
2020-10-15 14:48:53.322428,5985744.0
2020-10-15 14:48:53.342428,5991591.0
2020-10-15 14:48:53.362428,5989092.0
2020-10-15 14:48:53.382428,5987129.0
2020-10-15 14:48:53.402428,5986642.0
2020-10-15 14:48:53.422428,5986337.0
2020-10-15 14:48:53.442428,5986282.0
2020-10-15 14:48:53.462428,5986406.0
2020-10-15 14:48:53.482428,5986658.0
2020-10-15 14:48:53.502428,5986790.0
2020-10-15 14:48:53.522428,5986858.0
2020-10-15 14:48:53.542428,5987407.0
2020-10-15 14:48:53.562428,5987424.0
2020-10-15 14:48:53.582428,5987036.0
2020-10-15 14:48:53.602428,5986464.0
2020-10-15 14:48:53.622428,5986100.0
2020-10-15 14:48:53.642428,5985944.0
2020-10-15 14:48:53.662428,5986027.0
2020-10-15 14:48:53.682428,5986020.0
2020-10-15 14:48:53.702428,5986051.0
2020-10-15 14:48:53.722428,5986181.0
2020-10-15 14:48:53.742428,5985821.0
2020-10-15 14:48:53.762428,5985792.0
2020-10-15 14:48:53.782428,5985765.0
2020-10-15 14:48:53.802428,5985674.0
2020-10-15 14:48:53.822428,5985712.0
2020-10-15 14:48:53.842428,5985465.0
2020-10-15 14:48:53.862428,5985512.0
2020-10-15 14:48:53.882428,5985442.0
2020-10-15 14:48:53.902428,5985491.0
2020-10-15 14:48:53.922428,5985337.0
2020-10-15 14:48:53.942428,5985096.0
2020-10-15 14:48:53.962428,5984995.0
2020-10-15 14:48:53.982428,5985075.0
2020-10-15 14:48:54.002428,5985444.0
2020-10-15 14:48:54.022428,5985443.0
2020-10-15 14:48:54.042428,5985440.0
2020-10-15 14:48:54.062428,5985146.0
2020-10-15 14:48:54.082428,5987727.0
2020-10-15 14:48:54.102428,5989259.0
2020-10-15 14:48:54.122428,5986824.0
2020-10-15 14:48:54.142428,5985904.0
2020-10-15 14:48:54.162428,5985717.0
2020-10-15 14:48:54.182428,5985850.0
2020-10-15 14:48:54.202428,5986008.0
2020-10-15 14:48:54.222428,5986081.0
2020-10-15 14:48:54.242428,5986312.0
2020-10-15 14:48:54.262428,5986545.0
2020-10-15 14:48:54.282428,5986643.0
2020-10-15 14:48:54.302428,5986861.0
2020-10-15 14:48:54.322428,5986466.0
2020-10-15 14:48:54.342428,5985927.0
2020-10-15 14:48:54.362428,5985494.0
2020-10-15 14:48:54.382428,5985321.0
2020-10-15 14:48:54.402428,5985350.0
2020-10-15 14:48:54.422428,5985353.0
2020-10-15 14:48:54.442428,5985406.0
2020-10-15 14:48:54.462428,5985191.0
2020-10-15 14:48:54.482428,5985069.0
2020-10-15 14:48:54.502428,5985061.0
2020-10-15 14:48:54.522428,5984744.0
2020-10-15 14:48:54.542428,5984845.0
2020-10-15 14:48:54.562428,5984758.0
2020-10-15 14:48:54.582428,5984661.0
2020-10-15 14:48:54.602428,5984644.0
2020-10-15 14:48:54.622428,5984591.0
2020-10-15 14:48:54.642428,5984570.0
2020-10-15 14:48:54.662428,5984483.0
2020-10-15 14:48:54.682428,5984387.0
2020-10-15 14:48:54.702428,5984206.0
2020-10-15 14:48:54.722428,5983975.0
2020-10-15 14:48:54.742428,5983867.0
2020-10-15 14:48:54.762428,5984296.0
2020-10-15 14:48:54.782428,5984240.0
2020-10-15 14:48:54.802428,5984328.0
2020-10-15 14:48:54.822428,5984464.0
2020-10-15 14:48:54.842428,5991220.0
2020-10-15 14:48:54.862428,5987185.0
2020-10-15 14:48:54.882428,5985414.0
2020-10-15 14:48:54.902428,5984865.0
2020-10-15 14:48:54.922428,5984691.0
2020-10-15 14:48:54.942428,5984679.0
2020-10-15 14:48:54.962428,5984903.0
2020-10-15 14:48:54.982428,5984911.0
2020-10-15 14:48:55.002428,5985201.0
2020-10-15 14:48:55.022428,5985607.0
2020-10-15 14:48:55.042428,5985848.0
2020-10-15 14:48:55.317791,5985837.0
2020-10-15 14:48:55.337791,5984492.0
2020-10-15 14:48:55.357791,5984261.0
2020-10-15 14:48:55.377791,5984167.0
2020-10-15 14:48:55.397791,5984053.0
2020-10-15 14:48:55.417791,5984051.0
2020-10-15 14:48:55.437791,5984229.0
2020-10-15 14:48:55.457791,5984034.0
2020-10-15 14:48:55.477791,5983963.0
2020-10-15 14:48:55.497791,5983947.0
2020-10-15 14:48:55.517791,5983691.0
2020-10-15 14:48:55.537791,5983534.0
2020-10-15 14:48:55.557791,5983577.0
2020-10-15 14:48:55.577791,5983719.0
2020-10-15 14:48:55.597791,5983999.0
2020-10-15 14:48:55.617791,5983886.0
2020-10-15 14:48:55.637791,5984093.0
2020-10-15 14:48:55.657791,5984875.0
2020-10-15 14:48:55.677791,5993127.0
2020-10-15 14:48:55.697791,5986862.0
2020-10-15 14:48:55.717791,5985028.0
2020-10-15 14:48:55.737791,5984774.0
2020-10-15 14:48:55.757791,5984654.0
2020-10-15 14:48:55.777791,5984724.0
2020-10-15 14:48:55.797791,5984813.0
2020-10-15 14:48:55.817791,5984856.0
2020-10-15 14:48:55.837791,5985183.0
2020-10-15 14:48:55.857791,5985334.0
2020-10-15 14:48:55.877791,5985500.0
2020-10-15 14:48:55.897791,5985716.0
2020-10-15 14:48:55.917791,5985315.0
2020-10-15 14:48:55.937791,5985001.0
2020-10-15 14:48:55.957791,5984498.0
2020-10-15 14:48:55.977791,5984371.0
2020-10-15 14:48:55.997791,5984647.0
2020-10-15 14:48:56.017791,5984562.0
2020-10-15 14:48:56.037791,5984490.0
2020-10-15 14:48:56.057791,5984566.0
2020-10-15 14:48:56.077791,5984228.0
2020-10-15 14:48:56.097791,5984260.0
2020-10-15 14:48:56.117791,5984017.0
2020-10-15 14:48:56.137791,5984093.0
2020-10-15 14:48:56.157791,5984200.0
