20:23:24,5765817.0,5765176.0,5766035.0,5774758.0,5766238.0,5765793.0,5764930.0,5765301.0,5765320.0,5764890.0,5764820.0,5764831.0,5764713.0,5764779.0,5764562.0,5765078.0,5764868.0,5764952.0,5765291.0,5764862.0,5765200.0,5764814.0,5764971.0,5764927.0,5765026.0,5764882.0,5764704.0,5765078.0,5765534.0,5765359.0,5765129.0,5765072.0,5764860.0,5764584.0,5763897.0,5768348.0,5773535.0,5766345.0,5764920.0,5764847.0,5764958.0,5764922.0,5765124.0,5764992.0,5764777.0,5764843.0,5764771.0,5764818.0,5765017.0,5765261.0,5765451.0,5765570.0,5765216.0,5765651.0,5765308.0,5765505.0,5765275.0,5765603.0,5765557.0,5765988.0,5766386.0,5765822.0,5765598.0,5765321.0,5765327.0,5765869.0,5764234.0,5778520.0,5766512.0,5766110.0,5765541.0,5765753.0,5765772.0,5765914.0,5765577.0,5765498.0,5765346.0,5765358.0,5765479.0,5765212.0,5765552.0,5765514.0,5765726.0,5765697.0,5765867.0,5765752.0,5765673.0,5765590.0,5765783.0,5765667.0,5765724.0,5765811.0,5766140.0,5766089.0,5765700.0,5765297.0,5765227.0,5765329.0,5762889.0,5775783.020:23:26,5770661.0,5765685.0,5765251.0,5765340.0,5765094.0,5765057.0,5765424.0,5765054.0,5765134.0,5765300.0,5765291.0,5765306.0,5765361.0,5765558.0,5765407.0,5765404.0,5765281.0,5765256.0,5765429.0,5765397.0,5765535.0,5765760.0,5766227.0,5765669.0,5765611.0,5765238.0,5765238.0,5765487.0,5764163.0,5778886.0,5766546.0,5765689.0,5765377.0,5765397.0,5765518.0,5765351.0,5765304.0,5765113.0,5765201.0,5765046.0,5765245.0,5765306.0,5765268.0,5765365.0,5765374.0,5765359.0,5765444.0,5765524.0,5765828.0,5765460.0,5765303.0,5765554.0,5765496.0,5765790.0,5766224.0,5765854.0,5765332.0,5765446.0,5765607.0,5765342.0,5763714.0,5779433.0,5767713.0,5766212.0,5765770.0,5765790.0,5765957.0,5765808.0,5765890.0,5765622.0,5765558.0,5765883.0,5765224.0,5765455.0,5765770.0,5765933.0,5765684.0,5765942.0,5765833.0,5765700.0,5765842.0,5766039.0,5765891.0,5765942.0,5766397.0,5766812.0,5766477.0,5765713.0,5765433.0,5765785.0,5765613.0,5763966.0,5779828.0,5767830.0,5766309.0,5765901.0,5765812.0,5765681.0,5765784.0,5765841.020:23:28,5765540.0,5765756.0,5765545.0,5765759.0,5765765.0,5765687.0,5765930.0,5765884.0,5765649.0,5765841.0,5765632.0,5766267.0,5766393.0,5766402.0,5765580.0,5765550.0,5765522.0,5765452.0,5763177.0,5778968.0,5768176.0,5766090.0,5765603.0,5765555.0,5765504.0,5765511.0,5765361.0,5765213.0,5764967.0,5765035.0,5765165.0,5764910.0,5765025.0,5765184.0,5765190.0,5765229.0,5765176.0,5765226.0,5765306.0,5765125.0,5765188.0,5765347.0,5765569.0,5764999.0,5764685.0,5764612.0,5764561.0,5764267.0,5763072.0,5779117.0,5765890.0,5764991.0,5764895.0,5764651.0,5764752.0,5764756.0,5764679.0,5764473.0,5764476.0,5764436.0,5764423.0,5764487.0,5764600.0,5764831.0,5764593.0,5764821.0,5764681.0,5764850.0,5764652.0,5764798.0,5765068.0,5765310.0,5765717.0,5764864.0,5764982.0,5765266.0,5764998.0,5763402.0,5773567.0,5772431.0,5767182.0,5765974.0,5765932.0,5766160.0,5766550.0,5766473.0,5766217.0,5766340.0,5766603.0,5766290.0,5766437.0,5766778.0,5766681.0,5766923.0,5767278.0,5767480.0,5767940.0,5767645.0,5767883.0,5768660.020:23:31,5769198.0,5768132.0,5765752.0,5778448.0,5774654.0,5769847.0,5768802.0,5768744.0,5768855.0,5769181.0,5769201.0,5769136.0,5769155.0,5768825.0,5768869.0,5768989.0,5769249.0,5769324.0,5769073.0,5769377.0,5769812.0,5770025.0,5769635.0,5770673.0,5771494.0,5770463.0,5769972.0,5769373.0,5769631.0,5768538.0,5775645.0,5777736.0,5772025.0,5770272.0,5770199.0,5770210.0,5770524.0,5770300.0,5770148.0,5769959.0,5769874.0,5769782.0,5769847.0,5770045.0,5770526.0,5770197.0,5770171.0,5770313.0,5770283.0,5770307.0,5770425.0,5771113.0,5771071.0,5770520.0,5769665.0,5769435.0,5769447.0,5768159.0,5775827.0,5776233.0,5770484.0,5769191.0,5768910.0,5768762.0,5768732.0,5768355.0,5768185.0,5767883.0,5767771.0,5767654.0,5767402.0,5767701.0,5767557.0,5767506.0,5767408.0,5767337.0,5767020.0,5766873.0,5766952.0,5767369.0,5767393.0,5766384.0,5766048.0,5765829.0,5765754.0,5764879.0,5770494.0,5773808.0,5767397.0,5765714.0,5765792.0,5765940.0,5765816.0,5765910.0,5766091.0,5765664.0,5765480.0,5765643.0,5765578.0,5765674.020:23:33,5765767.0,5766180.0,5767080.0,5767982.0,5767053.0,5766284.0,5766174.0,5766200.0,5766190.0,5765223.0,5777945.0,5767054.0,5766439.0,5766515.0,5766390.0,5766633.0,5766550.0,5766712.0,5766377.0,5766316.0,5766094.0,5766120.0,5766298.0,5766208.0,5766506.0,5766415.0,5766400.0,5766506.0,5766626.0,5767629.0,5767593.0,5766126.0,5765543.0,5765352.0,5765051.0,5762428.0,5777696.0,5769198.0,5766142.0,5765348.0,5765301.0,5765402.0,5765466.0,5765556.0,5765408.0,5765121.0,5765231.0,5765182.0,5765393.0,5765631.0,5766015.0,5766265.0,5766414.0,5766317.0,5766295.0,5766837.0,5768106.0,5768145.0,5766615.0,5766324.0,5766152.0,5766266.0,5764345.0,5780762.0,5768543.0,5766935.0,5766706.0,5766702.0,5766618.0,5766791.0,5766539.0,5766385.0,5765911.0,5765899.0,5766077.0,5766042.0,5766652.0,5766476.0,5766639.0,5766782.0,5766989.0,5766899.0,5766759.0,5766847.0,5766614.0,5767315.0,5767861.0,5766979.0,5766319.0,5766196.0,5766265.0,5766116.0,5765619.0,5777956.0,5767174.0,5766172.0,5766083.0,5766017.0,5766041.0,5765903.020:23:35,5765886.0,5765296.0,5765812.0,5766078.0,5766020.0,5765995.0,5766118.0,5766315.0,5766112.0,5765995.0,5766023.0,5766211.0,5766091.0,5766114.0,5766745.0,5767004.0,5766471.0,5766125.0,5766058.0,5765979.0,5765920.0,5768492.0,5775100.0,5767853.0,5766142.0,5766084.0,5766105.0,5766175.0,5766122.0,5765832.0,5765825.0,5765482.0,5765531.0,5765522.0,5766015.0,5766281.0,5766403.0,5766667.0,5766622.0,5766751.0,5766734.0,5766739.0,5766694.0,5766733.0,5766596.0,5767093.0,5767670.0,5767306.0,5766818.0,5766605.0,5766715.0,5766531.0,5766182.0,5778719.0,5768014.0,5767309.0,5767306.0,5767226.0,5767527.0,5767514.0,5767204.0,5767049.0,5766631.0,5766453.0,5766507.0,5766763.0,5767411.0,5767638.0,5767611.0,5767812.0,5767891.0,5767691.0,5767656.0,5767752.0,5767793.0,5768254.0,5769345.0,5768779.0,5767977.0,5767598.0,5767397.0,5767405.0,5766338.0,5782014.0,5768687.0,5767810.0,5767363.0,5767546.0,5767441.0,5767356.0,5767116.0,5766911.0,5766367.0,5766389.0,5766335.0,5766773.0,5767180.0,5767658.0,5767809.0,5767880.020:23:37,5767869.0,5767623.0,5768049.0,5769246.0,5768448.0,5767520.0,5767352.0,5767384.0,5767118.0,5766804.0,5779733.0,5768108.0,5767637.0,5767346.0,5767465.0,5767314.0,5767197.0,5767099.0,5766720.0,5766237.0,5765973.0,5766202.0,5766409.0,5766968.0,5767341.0,5767268.0,5767309.0,5767510.0,5767402.0,5767307.0,5767087.0,5767050.0,5767050.0,5767558.0,5768719.0,5767869.0,5766926.0,5766590.0,5766714.0,5766427.0,5765260.0,5779319.0,5767176.0,5766482.0,5766272.0,5766253.0,5766148.0,5766181.0,5765822.0,5765351.0,5764936.0,5764697.0,5764742.0,5764902.0,5765389.0,5765697.0,5765561.0,5765628.0,5765526.0,5765582.0,5765595.0,5765371.0,5765262.0,5765220.0,5765915.0,5766289.0,5765324.0,5764676.0,5764894.0,5764877.0,5762940.0,5771623.0,5772268.0,5766033.0,5764866.0,5764898.0,5764717.0,5764735.0,5764752.0,5764655.0,5764023.0,5763683.0,5763460.0,5763867.0,5764241.0,5764798.0,5765019.0,5765194.0,5765321.0,5765351.0,5765718.0,5765223.0,5765356.0,5765714.0,5766697.0,5766864.0,5765264.0,5764959.0,5764912.0,5764850.020:23:39,5763044.0,5764655.0,5764665.0,5764768.0,5764501.0,5764177.0,5763672.0,5763268.0,5763022.0,5763140.0,5763640.0,5764232.0,5764495.0,5764708.0,5764736.0,5764748.0,5764723.0,5764787.0,5764877.0,5765715.0,5766420.0,5765248.0,5764518.0,5764361.0,5764142.0,5761840.0,5774526.0,5770599.0,5765637.0,5764302.0,5764129.0,5764367.0,5764164.0,5764094.0,5763681.0,5763401.0,5762967.0,5763244.0,5763430.0,5764114.0,5764652.0,5765224.0,5765002.0,5765114.0,5765328.0,5765252.0,5765338.0,5765148.0,5765398.0,5765648.0,5766295.0,5766083.0,5765393.0,5765056.0,5764950.0,5765090.0,5763294.0,5779662.0,5767645.0,5765584.0,5765484.0,5765413.0,5765231.0,5765167.0,5765060.0,5764510.0,5763852.0,5763732.0,5763576.0,5763882.0,5764411.0,5764841.0,5764832.0,5764857.0,5764905.0,5764824.0,5764837.0,5764771.0,5764653.0,5764804.0,5765583.0,5765453.0,5764776.0,5764798.0,5764549.0,5764556.0,5762556.0,5772807.0,5770850.0,5765907.0,5764721.0,5764598.0,5764747.0,5764625.0,5764452.0,5764222.0,5763766.0,5763547.0,5763421.0,5763623.020:23:41,5764190.0,5765423.0,5765395.0,5765351.0,5765266.0,5765378.0,5765775.0,5766541.0,5766706.0,5766003.0,5765701.0,5765829.0,5765832.0,5763453.0,5773727.0,5772998.0,5767436.0,5766180.0,5766258.0,5766462.0,5766274.0,5766416.0,5766034.0,5765709.0,5765168.0,5765809.0,5765613.0,5765896.0,5766889.0,5767235.0,5767474.0,5767627.0,5767713.0,5767666.0,5767703.0,5767683.0,5767982.0,5768563.0,5768666.0,5768040.0,5767695.0,5767815.0,5767849.0,5765752.0,5776099.0,5774617.0,5769432.0,5768199.0,5768297.0,5768413.0,5768167.0,5768378.0,5767986.0,5767613.0,5767143.0,5767153.0,5767381.0,5767997.0,5768459.0,5768789.0,5768948.0,5768956.0,5768967.0,5769115.0,5768889.0,5768889.0,5768794.0,5769572.0,5769696.0,5769032.0,5768807.0,5768688.0,5768714.0,5768580.0,5770630.0,5778557.0,5770555.0,5769115.0,5768851.0,5768787.0,5769052.0,5768647.0,5768481.0,5767925.0,5767413.0,5767115.0,5767222.0,5767673.0,5768158.0,5768636.0,5768603.0,5768734.0,5768904.0,5768946.0,5768987.0,5768791.0,5768799.0,5768817.0,5768853.0,5769134.020:23:44,5769346.0,5768475.0,5768463.0,5767585.0,5780616.0,5769917.0,5768841.0,5768893.0,5768542.0,5768685.0,5768492.0,5768425.0,5767853.0,5767167.0,5766924.0,5766874.0,5767163.0,5767841.0,5768203.0,5768233.0,5768496.0,5768378.0,5768427.0,5768531.0,5768515.0,5768497.0,5768609.0,5768467.0,5768525.0,5768822.0,5769070.0,5769013.0,5768494.0,5768388.0,5768457.0,5768510.0,5766142.0,5779016.0,5773230.0,5769805.0,5768781.0,5768767.0,5768894.0,5768748.0,5768857.0,5768486.0,5768035.0,5767795.0,5767906.0,5767961.0,5768159.0,5768708.0,5768862.0,5769059.0,5769292.0,5769101.0,5769229.0,5769213.0,5769215.0,5769115.0,5769084.0,5769136.0,5769614.0,5769854.0,5769418.0,5769194.0,5769071.0,5769284.0,5768992.0,5769930.0,5779424.0,5770499.0,5769638.0,5769669.0,5769243.0,5769450.0,5769328.0,5769098.0,5768839.0,5768076.0,5768157.0,5768327.0,5768572.0,5769162.0,5769363.0,5769648.0,5769696.0,5769977.0,5769717.0,5769342.0,5769699.0,5769640.0,5769651.0,5770124.0,5770286.0,5769486.0,5769384.0,5769292.0,5769245.0,5768655.020:23:46,5772419.0,5769426.0,5769056.0,5769115.0,5769003.0,5768263.0,5768138.0,5767898.0,5767872.0,5768353.0,5768747.0,5769165.0,5769130.0,5769173.0,5769332.0,5769209.0,5769001.0,5769032.0,5769101.0,5769018.0,5769496.0,5769515.0,5768884.0,5768694.0,5768614.0,5768532.0,5768276.0,5771763.0,5778273.0,5770490.0,5768762.0,5768678.0,5768641.0,5768748.0,5768527.0,5768285.0,5767814.0,5767150.0,5767175.0,5767157.0,5767491.0,5767905.0,5768344.0,5768138.0,5768310.0,5768357.0,5768410.0,5768496.0,5768517.0,5768546.0,5769096.0,5769124.0,5768966.0,5768688.0,5768338.0,5768427.0,5768602.0,5766146.0,5781067.0,5771483.0,5769417.0,5768945.0,5768983.0,5769021.0,5768803.0,5768883.0,5768155.0,5768197.0,5767933.0,5767963.0,5768307.0,5768779.0,5769323.0,5769120.0,5769406.0,5769376.0,5769530.0,5769458.0,5769525.0,5769558.0,5769790.0,5770221.0,5770359.0,5769674.0,5769566.0,5769356.0,5769681.0,5767380.0,5777727.0,5776701.0,5771086.0,5770047.0,5770230.0,5769984.0,5769963.0,5769945.0,5769721.0,5769000.0,5769095.0,5768951.020:23:48,5769011.0,5770295.0,5770260.0,5770524.0,5770304.0,5770061.0,5770159.0,5770776.0,5770867.0,5770303.0,5769978.0,5770005.0,5770032.0,5769485.0,5772793.0,5779837.0,5771696.0,5770259.0,5770223.0,5770230.0,5770188.0,5770217.0,5769832.0,5769426.0,5769133.0,5769048.0,5769084.0,5769490.0,5769869.0,5770096.0,5770340.0,5770476.0,5770373.0,5770450.0,5770355.0,5770393.0,5770733.0,5770995.0,5770933.0,5770553.0,5770093.0,5770228.0,5770168.0,5767826.0,5782141.0,5775843.0,5771145.0,5770348.0,5770357.0,5770243.0,5770331.0,5769986.0,5769608.0,5769291.0,5768936.0,5768782.0,5768912.0,5769466.0,5769809.0,5769959.0,5770127.0,5770258.0,5770232.0,5770132.0,5770123.0,5770127.0,5770119.0,5770377.0,5770658.0,5770270.0,5769991.0,5769850.0,5769817.0,5769823.0,5768810.0,5781578.0,5770825.0,5770124.0,5770027.0,5770028.0,5770066.0,5769862.0,5769814.0,5769344.0,5769186.0,5769135.0,5768988.0,5769329.0,5769953.0,5770064.0,5770310.0,5770365.0,5770578.0,5770667.0,5770456.0,5770521.0,5770570.0,5770846.0,5770967.0,5771081.020:23:50,5770534.0,5771014.0,5780146.0,5771669.0,5770806.0,5770707.0,5770797.0,5770929.0,5770843.0,5770782.0,5770356.0,5770215.0,5770208.0,5770147.0,5770291.0,5770821.0,5771090.0,5771360.0,5771323.0,5771433.0,5771471.0,5771442.0,5771485.0,5771403.0,5771713.0,5771967.0,5772162.0,5771440.0,5771180.0,5771257.0,5771365.0,5769442.0,5784272.0,5774536.0,5772302.0,5771706.0,5771777.0,5771637.0,5771658.0,5771444.0,5771181.0,5770608.0,5770490.0,5770413.0,5770752.0,5771182.0,5771496.0,5771575.0,5771667.0,5771759.0,5771713.0,5771680.0,5771723.0,5771710.0,5771863.0,5772459.0,5772309.0,5771744.0,5771539.0,5771485.0,5771467.0,5770562.0,5775643.0,5779638.0,5773411.0,5771623.0,5771529.0,5771433.0,5771286.0,5771264.0,5771068.0,5770509.0,5770260.0,5770115.0,5770271.0,5770681.0,5771258.0,5771244.0,5771346.0,5771447.0,5771463.0,5771413.0,5771518.0,5771320.0,5771306.0,5771313.0,5771424.0,5771902.0,5771676.0,5771442.0,5771260.0,5771138.0,5771205.0,5770790.0,5775665.0,5779494.0,5773202.0,5771589.0,5771456.0,5771579.020:23:52,5771522.0,5770245.0,5770404.0,5770523.0,5770943.0,5771319.0,5771458.0,5771590.0,5771686.0,5771697.0,5771555.0,5771627.0,5771511.0,5771500.0,5771382.0,5771520.0,5771816.0,5771973.0,5772030.0,5771574.0,5771461.0,5771329.0,5771584.0,5769176.0,5782759.0,5775641.0,5772426.0,5771708.0,5771722.0,5771760.0,5771622.0,5771445.0,5771092.0,5770855.0,5770618.0,5770562.0,5770585.0,5770943.0,5771250.0,5771577.0,5771672.0,5771638.0,5771855.0,5771844.0,5771767.0,5771690.0,5771663.0,5771692.0,5771769.0,5772172.0,5772101.0,5771537.0,5771402.0,5771334.0,5771335.0,5769695.0,5778269.0,5778813.0,5772768.0,5771443.0,5771381.0,5771466.0,5771319.0,5771264.0,5770921.0,5770545.0,5770289.0,5770176.0,5770363.0,5770586.0,5771068.0,5771075.0,5771236.0,5771191.0,5771180.0,5771213.0,5771125.0,5771103.0,5770979.0,5770857.0,5770882.0,5771403.0,5771468.0,5771579.0,5771011.0,5770721.0,5770701.0,5770637.0,5769547.0,5784216.0,5771907.0,5771130.0,5770842.0,5770736.0,5770683.0,5770620.0,5770335.0,5769967.0,5769286.0,5769272.020:23:54,5769179.0,5770494.0,5770602.0,5770535.0,5770740.0,5770549.0,5770504.0,5770403.0,5770516.0,5770363.0,5770520.0,5771001.0,5771112.0,5770653.0,5770542.0,5770431.0,5770512.0,5770291.0,5773581.0,5779572.0,5772542.0,5770842.0,5770652.0,5770765.0,5770735.0,5770418.0,5770318.0,5769874.0,5769523.0,5769539.0,5769461.0,5769757.0,5770377.0,5770585.0,5770576.0,5770782.0,5770849.0,5771064.0,5770931.0,5771042.0,5770863.0,5771013.0,5770922.0,5771321.0,5771659.0,5771124.0,5770828.0,5770861.0,5770874.0,5770598.0,5770215.0,5781015.0,5771734.0,5771097.0,5771005.0,5771005.0,5771174.0,5771187.0,5771006.0,5770771.0,5770471.0,5770451.0,5770503.0,5770635.0,5771113.0,5771294.0,5771437.0,5771469.0,5771509.0,5771580.0,5771553.0,5771571.0,5771564.0,5771428.0,5771917.0,5772195.0,5772294.0,5771607.0,5771607.0,5771617.0,5771592.0,5769392.0,5781937.0,5777529.0,5773173.0,5771957.0,5771867.0,5771901.0,5771882.0,5771721.0,5771387.0,5770825.0,5770601.0,5770537.0,5770725.0,5771288.0,5771477.0,5771585.0,5771659.0,5771701.020:23:57,5771869.0,5771377.0,5771361.0,5771934.0,5772204.0,5771468.0,5771292.0,5771227.0,5771166.0,5770906.0,5772481.0,5780854.0,5772812.0,5771217.0,5771134.0,5770874.0,5770905.0,5770755.0,5770426.0,5769918.0,5769474.0,5769327.0,5769472.0,5769842.0,5770109.0,5770372.0,5770527.0,5770587.0,5770571.0,5770577.0,5770435.0,5770365.0,5770323.0,5770358.0,5770219.0,5770234.0,5770193.0,5770553.0,5770566.0,5770172.0,5769769.0,5769743.0,5769631.0,5769415.0,5772454.0,5778981.0,5771535.0,5769954.0,5769824.0,5769856.0,5769787.0,5769635.0,5769420.0,5769026.0,5768522.0,5768498.0,5768484.0,5768798.0,5769196.0,5769340.0,5769302.0,5769283.0,5769269.0,5769335.0,5769308.0,5769290.0,5769221.0,5769351.0,5769426.0,5769515.0,5769849.0,5770099.0,5770132.0,5769680.0,5769372.0,5769439.0,5769592.0,5767335.0,5780248.0,5775182.0,5770924.0,5769990.0,5769961.0,5770037.0,5770056.0,5770127.0,5769834.0,5769626.0,5769569.0,5769791.0,5769922.0,5770322.0,5770696.0,5770922.0,5771019.0,5771212.0,5771309.0,5771364.0,5771413.0,5771492.020:23:59,5771448.0,5772116.0,5771595.0,5771410.0,5771169.0,5771138.0,5769009.0,5778198.0,5779014.0,5772321.0,5770674.0,5770510.0,5770216.0,5770024.0,5769739.0,5769407.0,5768813.0,5768549.0,5768414.0,5768274.0,5768500.0,5768791.0,5768880.0,5768799.0,5768837.0,5768687.0,5768657.0,5768600.0,5768536.0,5768372.0,5768450.0,5768727.0,5768917.0,5768910.0,5768257.0,5768022.0,5768103.0,5768048.0,5765853.0,5779209.0,5773451.0,5769382.0,5768593.0,5768510.0,5768513.0,5768548.0,5768450.0,5768116.0,5767775.0,5767579.0,5767652.0,5767893.0,5768247.0,5768616.0,5768688.0,5768931.0,5768929.0,5769015.0,5769053.0,5769004.0,5769130.0,5769152.0,5769219.0,5769213.0,5769677.0,5770036.0,5769867.0,5769572.0,5769099.0,5769237.0,5769256.0,5767776.0,5783352.0,5770906.0,5769708.0,5769474.0,5769487.0,5769496.0,5769473.0,5769324.0,5769098.0,5768682.0,5768574.0,5768655.0,5768975.0,5769404.0,5769558.0,5769689.0,5769805.0,5769909.0,5769961.0,5769929.0,5769939.0,5769884.0,5769937.0,5769827.0,5769888.0,5770418.0,5770254.0,5770003.020:24:01,5769727.0,5780888.0,5774238.0,5770919.0,5770182.0,5770110.0,5770131.0,5770255.0,5770086.0,5769873.0,5769534.0,5769415.0,5769602.0,5769656.0,5770034.0,5770281.0,5770354.0,5770517.0,5770641.0,5770686.0,5770764.0,5770648.0,5770693.0,5770668.0,5770631.0,5771052.0,5771268.0,5771349.0,5770760.0,5770605.0,5770680.0,5770777.0,5768554.0,5779696.0,5777947.0,5772502.0,5771358.0,5771384.0,5771356.0,5771499.0,5771501.0,5771135.0,5770756.0,5770616.0,5770609.0,5770652.0,5771103.0,5771225.0,5771264.0,5771416.0,5771541.0,5771541.0,5771521.0,5771439.0,5771561.0,5771661.0,5772012.0,5772345.0,5771972.0,5771582.0,5771224.0,5771223.0,5771193.0,5769912.0,5784622.0,5772985.0,5771576.0,5771244.0,5771156.0,5771089.0,5771086.0,5770889.0,5770456.0,5770186.0,5770086.0,5770119.0,5770410.0,5770678.0,5770904.0,5770948.0,5770907.0,5770958.0,5770967.0,5770893.0,5770827.0,5770729.0,5771323.0,5771077.0,5770619.0,5770381.0,5770122.0,5770102.0,5769709.0,5774150.0,5778596.0,5772102.0,5770391.0,5770184.0,5770221.0,5770121.020:24:03,5770013.0,5769070.0,5769287.0,5769692.0,5769836.0,5769864.0,5769867.0,5770033.0,5769871.0,5769837.0,5769884.0,5770134.0,5770458.0,5770252.0,5769706.0,5769356.0,5769404.0,5769408.0,5767246.0,5782719.0,5771766.0,5769950.0,5769741.0,5769809.0,5769701.0,5769779.0,5769718.0,5769395.0,5769188.0,5769168.0,5769023.0,5769186.0,5769441.0,5769705.0,5769821.0,5769847.0,5769955.0,5769974.0,5769954.0,5769819.0,5770564.0,5770335.0,5769967.0,5769854.0,5770064.0,5769881.0,5769417.0,5774407.0,5778520.0,5771958.0,5770383.0,5770367.0,5770353.0,5770349.0,5770250.0,5770243.0,5769966.0,5769801.0,5769714.0,5769589.0,5769833.0,5770146.0,5770307.0,5770415.0,5770670.0,5770930.0,5770852.0,5770753.0,5770855.0,5771354.0,5771591.0,5771189.0,5770816.0,5770774.0,5770737.0,5770846.0,5769561.0,5783858.0,5772281.0,5771247.0,5770957.0,5771013.0,5771093.0,5770888.0,5770708.0,5770408.0,5770121.0,5770100.0,5769964.0,5769960.0,5770072.0,5770119.0,5769984.0,5769991.0,5769874.0,5769768.0,5769411.0,5769319.0,5769115.0,5769550.020:24:05,5769578.0,5768341.0,5766475.0,5776340.0,5774953.0,5769899.0,5768771.0,5768816.0,5769016.0,5768883.0,5769082.0,5769033.0,5768872.0,5768913.0,5769052.0,5769340.0,5769791.0,5770063.0,5770318.0,5770567.0,5770768.0,5770899.0,5770899.0,5770944.0,5771050.0,5771015.0,5771077.0,5771206.0,5771153.0,5771307.0,5771879.0,5771813.0,5771353.0,5771114.0,5771143.0,5771123.0,5771108.0,5773435.0,5781601.0,5773129.0,5771588.0,5771503.0,5771359.0,5771390.0,5771279.0,5771020.0,5770733.0,5770529.0,5770615.0,5770395.0,5770482.0,5770854.0,5770933.0,5770868.0,5770959.0,5770902.0,5771065.0,5770988.0,5771010.0,5770953.0,5770949.0,5770910.0,5770935.0,5770928.0,5771023.0,5771351.0,5771251.0,5770790.0,5770686.0,5770569.0,5770624.0,5770380.0,5772532.0,5779939.0,5771994.0,5770770.0,5770492.0,5770628.0,5770665.0,5770683.0,5770545.0,5770377.0,5770261.0,5770180.0,5770160.0,5770101.0,5770422.0,5770430.0,5770604.0,5770608.0,5770752.0,5770550.0,5770517.0,5770362.0,5770304.0,5770306.0,5770261.0,5770178.0,5770304.0,5770672.020:24:07,5770902.0,5770058.0,5768513.0,5776851.0,5777465.0,5771623.0,5770342.0,5770204.0,5770194.0,5770212.0,5770022.0,5769938.0,5769598.0,5769419.0,5769409.0,5769465.0,5769366.0,5769548.0,5769560.0,5769641.0,5769685.0,5769927.0,5769801.0,5769767.0,5769871.0,5769768.0,5769653.0,5769639.0,5769664.0,5769708.0,5769936.0,5770158.0,5769862.0,5769494.0,5769404.0,5769234.0,5769261.0,5768235.0,5782249.0,5770779.0,5769543.0,5769256.0,5769351.0,5769309.0,5769231.0,5769324.0,5769077.0,5768811.0,5768851.0,5768891.0,5768848.0,5769175.0,5769201.0,5769356.0,5769421.0,5769555.0,5769537.0,5769578.0,5769486.0,5769481.0,5769326.0,5769386.0,5769468.0,5769452.0,5769413.0,5769561.0,5770063.0,5769962.0,5769685.0,5769602.0,5769582.0,5769484.0,5769240.0,5773756.0,5777780.0,5771368.0,5769688.0,5769657.0,5769701.0,5769664.0,5769484.0,5769490.0,5769246.0,5769159.0,5769194.0,5769122.0,5769512.0,5769803.0,5769832.0,5769990.0,5770078.0,5770170.0,5770237.0,5770125.0,5770353.0,5770272.0,5770250.0,5770155.0,5770345.0,5770210.020:24:10,5770661.0,5770443.0,5770618.0,5768345.0,5780632.0,5777170.0,5772004.0,5770993.0,5770888.0,5770974.0,5771125.0,5771220.0,5771002.0,5770825.0,5770689.0,5770803.0,5770825.0,5771167.0,5771367.0,5771529.0,5771686.0,5771740.0,5771823.0,5771762.0,5771724.0,5771774.0,5771709.0,5771677.0,5771640.0,5772022.0,5772228.0,5772304.0,5771761.0,5771492.0,5771559.0,5771637.0,5769643.0,5783160.0,5775701.0,5772531.0,5771860.0,5771801.0,5771879.0,5771750.0,5771695.0,5771491.0,5770995.0,5770975.0,5770984.0,5771037.0,5771243.0,5771503.0,5771474.0,5771529.0,5771646.0,5771729.0,5771730.0,5771653.0,5771691.0,5771827.0,5771678.0,5771785.0,5771826.0,5772268.0,5771948.0,5771591.0,5771718.0,5771516.0,5771581.0,5771097.0,5776428.0,5779144.0,5772996.0,5771664.0,5771544.0,5771626.0,5771713.0,5771561.0,5771401.0,5771068.0,5770889.0,5770868.0,5770833.0,5771179.0,5771429.0,5771599.0,5771557.0,5771631.0,5771607.0,5771656.0,5771629.0,5771521.0,5771472.0,5771508.0,5771554.0,5771466.0,5771542.0,5772064.0,5772188.0,5771814.020:24:12,5771576.0,5781803.0,5776191.0,5772367.0,5771493.0,5771505.0,5771629.0,5771685.0,5771510.0,5771377.0,5770933.0,5770824.0,5770802.0,5770747.0,5771115.0,5771465.0,5771485.0,5771578.0,5771678.0,5771731.0,5771656.0,5771636.0,5771625.0,5771441.0,5771681.0,5771712.0,5772226.0,5772491.0,5772363.0,5772024.0,5771770.0,5771803.0,5771830.0,5770264.0,5785959.0,5773653.0,5772334.0,5772042.0,5771926.0,5771979.0,5771937.0,5771894.0,5771591.0,5771317.0,5771265.0,5771267.0,5771463.0,5771815.0,5772071.0,5772264.0,5772403.0,5772511.0,5772490.0,5772538.0,5772468.0,5772286.0,5772259.0,5772260.0,5772588.0,5772898.0,5772852.0,5772227.0,5772025.0,5771912.0,5771912.0,5769861.0,5779891.0,5778122.0,5773293.0,5772097.0,5772165.0,5772114.0,5772086.0,5771940.0,5771606.0,5771180.0,5771042.0,5770999.0,5770994.0,5771349.0,5771653.0,5771682.0,5771755.0,5771725.0,5771732.0,5771681.0,5771557.0,5771578.0,5771498.0,5771541.0,5771560.0,5771656.0,5771737.0,5772074.0,5772028.0,5771436.0,5771312.0,5771268.0,5771305.0,5769030.020:24:14,5780015.0,5771250.0,5771189.0,5771072.0,5770859.0,5770557.0,5770142.0,5770080.0,5770019.0,5770323.0,5770649.0,5770821.0,5770839.0,5770932.0,5770944.0,5771082.0,5771061.0,5771083.0,5771044.0,5770991.0,5770950.0,5770834.0,5771118.0,5771431.0,5771390.0,5770859.0,5770796.0,5770744.0,5770738.0,5768716.0,5779106.0,5777149.0,5771852.0,5771047.0,5770936.0,5770918.0,5770997.0,5771127.0,5770789.0,5770513.0,5770256.0,5770358.0,5770342.0,5770616.0,5770836.0,5771094.0,5771067.0,5771121.0,5771304.0,5771262.0,5771040.0,5771118.0,5770989.0,5771112.0,5771446.0,5771668.0,5771927.0,5771378.0,5771371.0,5771316.0,5771377.0,5769638.0,5778208.0,5778931.0,5773064.0,5771628.0,5771522.0,5771540.0,5771682.0,5771567.0,5771360.0,5770916.0,5770761.0,5770722.0,5770690.0,5771043.0,5771468.0,5771533.0,5771707.0,5771802.0,5771847.0,5771836.0,5771694.0,5771783.0,5771618.0,5771924.0,5772188.0,5772179.0,5771493.0,5771483.0,5771288.0,5771275.0,5769501.0,5779024.0,5777746.0,5772637.0,5771302.0,5771326.0,5771263.0,5771279.020:24:16,5771203.0,5770116.0,5770388.0,5770765.0,5771008.0,5771036.0,5771214.0,5771208.0,5771204.0,5771104.0,5771143.0,5770933.0,5770954.0,5770942.0,5771281.0,5771406.0,5771335.0,5770878.0,5770748.0,5770628.0,5770631.0,5768714.0,5778117.0,5777134.0,5772093.0,5770847.0,5770688.0,5770775.0,5770697.0,5770663.0,5770444.0,5770015.0,5769736.0,5769731.0,5769629.0,5770000.0,5770394.0,5770308.0,5770277.0,5770404.0,5770520.0,5770339.0,5770155.0,5770298.0,5770165.0,5770256.0,5770139.0,5770179.0,5770562.0,5770600.0,5770787.0,5770233.0,5770137.0,5769919.0,5769997.0,5767742.0,5780878.0,5773418.0,5770828.0,5770078.0,5770009.0,5770034.0,5770008.0,5769701.0,5769401.0,5769144.0,5769065.0,5769126.0,5769146.0,5769440.0,5769927.0,5769882.0,5770080.0,5770173.0,5770182.0,5770125.0,5770035.0,5769980.0,5770118.0,5770089.0,5770347.0,5770638.0,5770527.0,5769922.0,5769609.0,5769686.0,5769629.0,5768142.0,5783611.0,5771682.0,5770306.0,5770062.0,5770038.0,5770036.0,5770002.0,5769980.0,5769650.0,5769333.0,5769243.0,5769244.020:24:18,5769221.0,5770035.0,5770069.0,5769874.0,5769905.0,5769745.0,5769793.0,5769775.0,5769724.0,5770219.0,5770456.0,5769704.0,5769552.0,5769596.0,5769499.0,5769406.0,5769589.0,5780217.0,5770830.0,5769949.0,5769627.0,5769657.0,5769631.0,5769577.0,5769335.0,5769014.0,5768747.0,5768866.0,5768611.0,5768804.0,5769112.0,5769114.0,5769228.0,5769314.0,5769373.0,5769406.0,5769297.0,5769442.0,5769475.0,5769449.0,5769429.0,5769823.0,5770167.0,5769796.0,5769488.0,5769256.0,5769229.0,5769243.0,5767767.0,5782338.0,5771097.0,5769569.0,5769358.0,5769347.0,5769332.0,5769244.0,5769175.0,5768966.0,5768666.0,5768857.0,5768815.0,5768896.0,5769188.0,5769330.0,5769453.0,5769333.0,5769481.0,5769548.0,5769442.0,5769528.0,5769439.0,5769401.0,5769378.0,5769521.0,5769864.0,5769770.0,5769377.0,5769360.0,5769265.0,5769399.0,5768974.0,5773785.0,5777996.0,5771416.0,5769947.0,5769821.0,5769858.0,5769836.0,5769699.0,5769687.0,5769434.0,5769240.0,5769281.0,5768967.0,5769060.0,5769440.0,5769488.0,5769627.0,5769811.0,5769924.020:24:21,5769876.0,5769809.0,5770222.0,5770307.0,5770610.0,5769953.0,5769729.0,5769940.0,5769980.0,5767807.0,5781477.0,5773895.0,5770806.0,5770163.0,5770110.0,5770166.0,5770070.0,5770020.0,5769855.0,5769492.0,5769353.0,5769208.0,5769360.0,5769577.0,5769705.0,5769859.0,5769970.0,5769910.0,5770074.0,5770079.0,5769999.0,5770081.0,5769990.0,5769908.0,5769915.0,5770209.0,5770389.0,5770261.0,5769719.0,5769494.0,5769473.0,5769580.0,5767419.0,5779702.0,5774879.0,5770506.0,5769562.0,5769482.0,5769535.0,5769465.0,5769515.0,5769431.0,5769024.0,5769100.0,5769069.0,5768886.0,5769099.0,5769183.0,5769258.0,5769300.0,5769287.0,5769396.0,5769226.0,5769228.0,5769066.0,5769039.0,5769062.0,5768981.0,5769013.0,5769140.0,5769222.0,5769573.0,5769604.0,5769091.0,5768956.0,5768748.0,5768884.0,5767206.0,5778611.0,5775454.0,5770224.0,5769028.0,5768873.0,5768937.0,5768833.0,5768659.0,5768574.0,5768376.0,5768254.0,5768318.0,5768216.0,5768480.0,5768682.0,5768582.0,5768745.0,5768854.0,5768823.0,5768739.0,5768752.0,5768724.020:24:23,5768664.0,5768688.0,5769012.0,5769284.0,5769253.0,5768791.0,5768590.0,5768465.0,5768417.0,5766165.0,5780814.0,5772658.0,5769396.0,5768601.0,5768585.0,5768760.0,5768783.0,5768693.0,5768475.0,5768330.0,5768270.0,5768377.0,5768328.0,5768693.0,5768800.0,5768849.0,5768997.0,5768978.0,5769112.0,5768978.0,5768988.0,5768943.0,5768913.0,5768891.0,5768803.0,5769222.0,5769703.0,5769475.0,5768807.0,5768672.0,5768537.0,5768658.0,5766819.0,5776619.0,5775854.0,5770225.0,5768905.0,5768839.0,5768890.0,5768751.0,5768681.0,5768510.0,5768240.0,5768298.0,5768151.0,5768067.0,5768294.0,5768454.0,5768523.0,5768545.0,5768548.0,5768633.0,5768609.0,5768488.0,5768531.0,5768600.0,5768473.0,5768517.0,5768695.0,5768912.0,5769092.0,5768616.0,5768293.0,5768306.0,5768253.0,5768265.0,5768488.0,5778943.0,5769411.0,5768488.0,5768356.0,5768323.0,5768266.0,5768171.0,5768163.0,5767945.0,5767931.0,5768062.0,5768018.0,5768067.0,5768358.0,5768444.0,5768427.0,5768464.0,5768543.0,5768563.0,5768515.0,5768462.0,5768420.0,5768474.020:24:25,5768630.0,5769019.0,5768608.0,5768601.0,5768559.0,5768612.0,5766492.0,5778197.0,5774554.0,5769880.0,5768884.0,5768777.0,5768814.0,5768797.0,5768691.0,5768665.0,5768424.0,5768484.0,5768671.0,5768393.0,5768615.0,5769023.0,5768997.0,5769137.0,5769124.0,5769150.0,5769129.0,5769182.0,5769117.0,5769189.0,5769136.0,5769232.0,5769523.0,5769881.0,5769495.0,5769219.0,5768894.0,5769117.0,5768973.0,5767613.0,5783349.0,5771058.0,5769791.0,5769641.0,5769633.0,5769691.0,5769703.0,5769658.0,5769488.0,5769361.0,5769237.0,5769202.0,5769293.0,5769533.0,5769539.0,5769634.0,5769618.0,5769737.0,5769736.0,5769730.0,5769610.0,5769692.0,5769732.0,5770106.0,5770348.0,5770423.0,5769742.0,5769532.0,5769564.0,5769493.0,5767402.0,5781556.0,5772751.0,5770267.0,5769701.0,5769641.0,5769701.0,5769650.0,5769634.0,5769372.0,5769367.0,5769314.0,5769278.0,5769382.0,5769577.0,5769703.0,5769739.0,5769703.0,5769693.0,5769733.0,5769616.0,5769545.0,5769540.0,5769539.0,5769761.0,5769900.0,5769992.0,5769499.0,5769242.0,5769279.020:24:27,5769212.0,5769757.0,5769517.0,5769521.0,5769434.0,5769204.0,5768991.0,5768944.0,5768741.0,5768829.0,5768685.0,5768891.0,5769231.0,5769243.0,5769259.0,5769246.0,5769324.0,5769120.0,5769069.0,5769098.0,5769010.0,5769041.0,5769387.0,5769549.0,5769491.0,5768955.0,5768722.0,5768686.0,5768638.0,5766388.0,5780111.0,5771419.0,5769254.0,5768757.0,5768815.0,5768651.0,5768821.0,5768676.0,5768530.0,5768388.0,5768340.0,5768220.0,5768115.0,5768352.0,5768477.0,5768407.0,5768507.0,5768445.0,5768267.0,5768253.0,5768248.0,5768086.0,5768207.0,5768618.0,5768878.0,5768288.0,5768137.0,5768242.0,5768233.0,5768018.0,5768987.0,5778227.0,5769195.0,5768600.0,5768411.0,5768431.0,5768548.0,5768478.0,5768360.0,5768162.0,5768028.0,5768067.0,5767873.0,5768132.0,5768317.0,5768456.0,5768634.0,5768742.0,5768836.0,5768710.0,5768606.0,5768755.0,5768625.0,5769018.0,5769153.0,5768944.0,5768589.0,5768279.0,5768138.0,5768233.0,5766120.0,5780574.0,5770778.0,5768686.0,5768288.0,5768212.0,5768232.0,5768298.0,5768179.0,5768091.020:24:29,5767840.0,5767950.0,5767947.0,5768189.0,5768125.0,5768290.0,5768239.0,5768086.0,5768031.0,5768147.0,5768062.0,5768465.0,5768755.0,5768132.0,5767834.0,5767750.0,5767816.0,5767707.0,5767003.0,5778700.0,5768594.0,5767974.0,5767764.0,5767821.0,5767987.0,5767837.0,5767795.0,5767563.0,5767555.0,5767677.0,5767534.0,5767491.0,5767777.0,5767906.0,5767917.0,5767886.0,5767943.0,5767740.0,5767885.0,5767779.0,5767791.0,5767836.0,5767789.0,5768145.0,5768216.0,5767827.0,5767691.0,5767569.0,5767670.0,5767615.0,5769551.0,5777263.0,5767317.0,5768193.0,5767908.0,5768005.0,5768186.0,5767950.0,5767842.0,5767761.0,5767638.0,5767637.0,5767452.0,5767526.0,5767654.0,5767666.0,5767924.0,5767901.0,5768034.0,5768050.0,5768135.0,5768170.0,5768101.0,5768052.0,5768442.0,5768673.0,5768795.0,5768189.0,5767975.0,5767898.0,5768083.0,5765891.0,5776714.0,5774478.0,5769292.0,5768237.0,5768260.0,5768312.0,5768439.0,5768485.0,5768372.0,5768339.0,5768260.0,5768220.0,5768166.0,5768357.0,5768567.0,5768642.0,5768806.0,5768831.020:24:31,5768760.0,5768797.0,5769051.0,5769517.0,5769044.0,5768782.0,5768563.0,5768657.0,5768516.0,5767816.0,5779949.0,5769613.0,5769096.0,5768683.0,5768675.0,5768697.0,5768631.0,5768638.0,5768358.0,5768253.0,5768356.0,5768205.0,5768438.0,5768697.0,5768633.0,5768651.0,5768827.0,5768642.0,5768691.0,5768729.0,5768494.0,5768480.0,5768431.0,5768519.0,5768819.0,5768993.0,5768919.0,5768427.0,5768161.0,5768207.0,5768191.0,5766301.0,5780700.0,5770898.0,5768851.0,5768521.0,5768534.0,5768364.0,5768419.0,5768302.0,5768118.0,5767893.0,5767987.0,5768006.0,5767855.0,5768064.0,5767938.0,5768014.0,5768156.0,5767892.0,5768010.0,5767935.0,5768091.0,5767978.0,5768061.0,5768001.0,5767983.0,5768355.0,5768499.0,5768539.0,5768055.0,5767834.0,5767724.0,5767776.0,5765697.0,5778771.0,5771537.0,5768375.0,5767775.0,5767690.0,5767818.0,5767718.0,5767613.0,5767539.0,5767559.0,5767592.0,5767431.0,5767373.0,5767524.0,5767518.0,5767583.0,5767604.0,5767614.0,5767470.0,5767617.0,5767488.0,5767434.0,5767474.0,5767355.0,5767652.020:24:33,5767682.0,5767194.0,5766268.0,5770261.0,5776214.0,5768739.0,5767167.0,5767154.0,5767295.0,5767424.0,5767487.0,5767390.0,5767359.0,5767321.0,5767195.0,5767106.0,5767205.0,5767405.0,5767313.0,5767497.0,5767609.0,5767597.0,5767501.0,5767521.0,5767365.0,5767448.0,5767481.0,5767816.0,5767931.0,5767311.0,5767252.0,5767134.0,5767249.0,5766069.0,5773109.0,5774791.0,5768871.0,5767588.0,5767426.0,5767418.0,5767310.0,5767317.0,5767142.0,5766845.0,5766836.0,5766816.0,5766599.0,5766803.0,5766812.0,5766956.0,5766900.0,5767032.0,5767097.0,5767031.0,5767050.0,5766969.0,5766846.0,5767237.0,5767387.0,5767400.0,5766797.0,5766571.0,5766602.0,5766584.0,5764350.0,5778099.0,5769515.0,5766998.0,5766466.0,5766428.0,5766517.0,5766454.0,5766326.0,5766111.0,5766027.0,5766237.0,5766129.0,5766018.0,5766326.0,5766291.0,5766283.0,5766306.0,5766172.0,5766177.0,5766308.0,5766192.0,5766109.0,5766140.0,5766481.0,5766360.0,5766544.0,5765989.0,5765901.0,5765884.0,5765966.0,5763851.0,5774886.0,5771909.0,5767219.0,5766239.020:24:36,5766088.0,5765577.0,5765690.0,5765782.0,5765781.0,5765638.0,5765850.0,5765935.0,5766019.0,5765918.0,5765982.0,5765990.0,5765805.0,5765788.0,5765765.0,5765912.0,5766082.0,5766277.0,5766132.0,5765676.0,5765479.0,5765583.0,5765557.0,5763763.0,5778502.0,5768445.0,5766635.0,5766065.0,5765911.0,5766094.0,5765991.0,5765917.0,5765913.0,5765578.0,5765547.0,5765397.0,5765401.0,5765686.0,5765751.0,5765798.0,5765944.0,5766008.0,5766072.0,5766028.0,5766119.0,5766258.0,5766285.0,5766801.0,5766993.0,5766619.0,5766336.0,5766256.0,5766168.0,5766153.0,5765695.0,5777011.0,5767077.0,5766498.0,5766288.0,5766276.0,5766266.0,5766246.0,5766236.0,5766067.0,5766004.0,5765919.0,5766044.0,5766165.0,5766417.0,5766358.0,5766440.0,5766465.0,5766649.0,5766446.0,5766400.0,5766341.0,5766315.0,5766212.0,5766701.0,5766922.0,5766362.0,5766125.0,5765872.0,5765855.0,5765854.0,5765156.0,5777844.0,5766878.0,5766487.0,5766387.0,5766295.0,5766290.0,5766277.0,5766136.0,5766080.0,5765819.0,5765689.0,5765787.0,5765842.0,5765969.020:24:38,5765912.0,5765711.0,5765554.0,5765695.0,5765720.0,5765742.0,5766013.0,5766286.0,5766308.0,5765740.0,5765741.0,5765600.0,5765544.0,5763728.0,5774651.0,5772172.0,5766800.0,5765793.0,5765777.0,5765781.0,5765581.0,5765496.0,5765351.0,5765199.0,5765182.0,5765286.0,5765206.0,5765331.0,5765551.0,5765650.0,5765659.0,5765630.0,5765484.0,5765599.0,5765432.0,5765389.0,5765362.0,5765352.0,5765441.0,5765821.0,5765847.0,5765760.0,5765089.0,5764906.0,5764793.0,5764794.0,5763266.0,5777711.0,5767609.0,5765393.0,5765145.0,5765144.0,5765229.0,5765145.0,5765040.0,5764808.0,5764564.0,5764751.0,5764690.0,5764636.0,5764665.0,5764688.0,5764716.0,5764708.0,5764740.0,5764581.0,5764611.0,5764673.0,5764571.0,5764566.0,5764644.0,5765398.0,5765267.0,5765015.0,5764808.0,5764717.0,5764774.0,5764082.0,5767954.0,5773979.0,5766419.0,5764839.0,5764938.0,5765056.0,5764997.0,5764873.0,5764623.0,5764507.0,5764431.0,5764491.0,5764331.0,5764723.0,5764921.0,5765048.0,5765156.0,5765127.0,5765185.0,5765093.0,5765050.0,5765106.020:24:40,5765079.0,5764808.0,5764710.0,5764734.0,5762541.0,5775286.0,5768899.0,5765508.0,5764892.0,5764697.0,5764894.0,5764765.0,5764816.0,5764520.0,5764569.0,5764493.0,5764581.0,5764563.0,5764680.0,5764799.0,5764909.0,5764751.0,5764711.0,5764802.0,5764704.0,5764657.0,5764650.0,5764619.0,5764773.0,5765052.0,5765210.0,5764724.0,5764487.0,5764565.0,5764631.0,5762385.0,5776037.0,5768427.0,5765580.0,5764927.0,5764756.0,5764962.0,5764738.0,5764843.0,5764527.0,5764286.0,5764300.0,5764213.0,5764199.0,5764320.0,5764423.0,5764543.0,5764594.0,5764489.0,5764473.0,5764544.0,5764606.0,5764604.0,5764456.0,5764933.0,5764972.0,5764594.0,5764337.0,5764284.0,5764297.0,5763677.0,5766994.0,5773004.0,5765399.0,5764484.0,5764289.0,5764284.0,5764332.0,5764437.0,5764463.0,5764330.0,5764103.0,5764241.0,5763966.0,5764146.0,5764370.0,5764409.0,5764476.0,5764407.0,5764465.0,5764571.0,5764521.0,5764339.0,5764653.0,5764880.0,5765076.0,5764446.0,5764294.0,5764265.0,5764421.0,5762218.0,5774336.0,5769911.0,5765635.0,5764881.020:24:42,5764695.0,5764229.0,5764201.0,5764244.0,5764281.0,5764461.0,5764696.0,5764763.0,5764926.0,5764950.0,5764857.0,5764870.0,5764861.0,5764898.0,5765189.0,5765428.0,5765306.0,5764733.0,5764662.0,5764481.0,5764617.0,5762314.0,5775573.0,5769192.0,5765938.0,5765178.0,5765266.0,5765203.0,5765134.0,5765084.0,5764855.0,5764752.0,5764746.0,5764857.0,5764709.0,5765057.0,5765110.0,5765213.0,5765102.0,5765085.0,5764922.0,5765067.0,5765005.0,5765147.0,5765223.0,5765864.0,5765772.0,5765415.0,5765236.0,5765240.0,5765218.0,5764851.0,5769577.0,5773898.0,5767024.0,5765692.0,5765369.0,5765479.0,5765403.0,5765326.0,5765136.0,5764907.0,5764935.0,5764989.0,5764898.0,5765172.0,5765286.0,5765423.0,5765488.0,5765558.0,5765587.0,5765498.0,5765471.0,5765429.0,5765361.0,5765665.0,5765784.0,5765890.0,5765351.0,5765156.0,5764989.0,5765117.0,5762765.0,5775151.0,5769828.0,5766060.0,5765412.0,5765347.0,5765515.0,5765528.0,5765409.0,5765254.0,5765107.0,5765044.0,5764987.0,5764893.0,5764964.0,5765127.0,5765026.0,5765164.020:24:44,5765064.0,5765133.0,5765344.0,5765638.0,5765695.0,5765019.0,5764934.0,5764775.0,5764864.0,5762663.0,5773469.0,5771480.0,5766151.0,5764999.0,5765066.0,5765213.0,5765307.0,5765151.0,5765156.0,5764808.0,5764919.0,5764872.0,5764701.0,5765015.0,5765119.0,5765168.0,5765216.0,5765239.0,5765296.0,5765125.0,5765142.0,5765103.0,5765408.0,5765612.0,5765774.0,5765184.0,5764985.0,5765075.0,5765005.0,5762865.0,5776300.0,5768420.0,5765645.0,5765095.0,5765192.0,5765072.0,5765126.0,5764970.0,5764829.0,5764477.0,5764595.0,5764445.0,5764639.0,5764698.0,5764967.0,5764933.0,5765130.0,5765146.0,5765270.0,5765362.0,5765185.0,5765224.0,5765350.0,5765836.0,5765633.0,5765218.0,5765180.0,5765111.0,5765105.0,5764518.0,5770108.0,5772463.0,5766676.0,5765314.0,5765098.0,5765214.0,5765220.0,5765181.0,5765070.0,5764918.0,5764981.0,5765126.0,5764920.0,5765165.0,5765381.0,5765419.0,5765296.0,5765262.0,5765358.0,5765179.0,5765160.0,5765145.0,5765030.0,5765321.0,5765437.0,5765605.0,5765096.0,5764918.0,5764836.0,5764878.020:24:47,5762693.0,5764951.0,5764870.0,5764915.0,5764860.0,5764826.0,5764775.0,5764700.0,5764779.0,5764476.0,5764726.0,5764850.0,5764797.0,5764826.0,5765054.0,5764977.0,5764881.0,5764956.0,5764761.0,5764809.0,5765221.0,5765282.0,5765253.0,5764692.0,5764572.0,5764581.0,5764549.0,5762449.0,5776298.0,5768749.0,5765731.0,5765202.0,5765110.0,5765367.0,5765251.0,5765175.0,5764940.0,5764811.0,5764798.0,5764831.0,5764705.0,5765075.0,5765093.0,5765143.0,5765193.0,5765339.0,5765122.0,5765285.0,5765189.0,5765381.0,5766029.0,5765807.0,5765468.0,5765099.0,5765096.0,5765101.0,5764158.0,5769891.0,5773051.0,5766791.0,5765350.0,5765206.0,5765220.0,5765155.0,5765060.0,5764858.0,5764806.0,5764638.0,5764737.0,5764769.0,5765017.0,5765317.0,5765392.0,5765307.0,5765368.0,5765265.0,5765195.0,5765132.0,5765149.0,5765398.0,5765805.0,5765302.0,5764900.0,5764813.0,5764605.0,5764612.0,5763405.0,5777840.0,5765699.0,5765198.0,5764870.0,5764995.0,5764969.0,5764993.0,5764987.0,5764730.0,5764564.0,5764582.0,5764580.0,5764583.020:24:49,5764800.0,5764939.0,5764932.0,5764889.0,5764831.0,5764833.0,5765119.0,5765246.0,5765369.0,5764856.0,5764571.0,5764705.0,5764657.0,5762527.0,5772864.0,5770699.0,5765734.0,5764751.0,5764703.0,5764740.0,5764595.0,5764629.0,5764577.0,5764434.0,5764375.0,5764372.0,5764291.0,5764474.0,5764542.0,5764590.0,5764613.0,5764619.0,5764637.0,5764510.0,5764430.0,5764495.0,5764392.0,5764304.0,5764750.0,5764797.0,5764970.0,5764350.0,5764275.0,5764311.0,5764405.0,5762070.0,5774273.0,5769725.0,5765550.0,5764624.0,5764534.0,5764645.0,5764511.0,5764514.0,5764464.0,5764128.0,5764088.0,5764101.0,5764049.0,5764360.0,5764441.0,5764529.0,5764658.0,5764703.0,5764776.0,5764796.0,5764677.0,5764856.0,5764769.0,5764787.0,5765395.0,5765171.0,5764819.0,5764604.0,5764534.0,5764600.0,5763919.0,5768253.0,5773453.0,5766334.0,5764841.0,5764669.0,5764717.0,5764703.0,5764697.0,5764690.0,5764492.0,5764455.0,5764451.0,5764350.0,5764618.0,5764771.0,5764826.0,5764888.0,5764901.0,5764788.0,5764759.0,5764713.0,5764739.0,5764565.020:24:51,5764560.0,5764602.0,5764503.0,5764301.0,5764177.0,5764668.0,5775332.0,5765336.0,5764782.0,5764545.0,5764577.0,5764653.0,5764689.0,5764544.0,5764349.0,5764202.0,5764325.0,5764247.0,5764277.0,5764647.0,5764551.0,5764610.0,5764523.0,5764606.0,5764469.0,5764375.0,5764301.0,5764288.0,5764251.0,5764312.0,5764287.0,5764771.0,5765046.0,5764579.0,5764402.0,5764284.0,5764301.0,5764264.0,5764655.0,5774701.0,5765841.0,5764616.0,5764452.0,5764527.0,5764468.0,5764310.0,5764176.0,5763927.0,5763905.0,5763932.0,5763829.0,5763956.0,5764336.0,5764376.0,5764249.0,5764256.0,5764312.0,5764191.0,5764106.0,5764085.0,5763943.0,5763984.0,5763953.0,5763967.0,5764123.0,5764453.0,5763996.0,5763743.0,5763346.0,5763550.0,5763418.0,5762762.0,5774998.0,5764740.0,5763990.0,5763870.0,5763830.0,5763855.0,5763799.0,5763787.0,5763443.0,5763359.0,5763526.0,5763292.0,5763327.0,5763589.0,5763612.0,5763674.0,5763598.0,5763650.0,5763497.0,5763617.0,5763578.0,5763726.0,5763634.0,5764132.0,5764259.0,5764208.0,5763707.0,5763538.020:24:53,5763537.0,5765236.0,5763751.0,5763486.0,5763692.0,5763582.0,5763594.0,5763345.0,5763194.0,5762942.0,5763037.0,5762949.0,5763089.0,5763368.0,5763209.0,5763221.0,5763082.0,5763123.0,5762994.0,5763037.0,5762964.0,5762980.0,5763608.0,5763603.0,5763068.0,5762826.0,5762729.0,5762671.0,5762229.0,5764514.0,5772129.0,5764054.0,5762817.0,5762685.0,5762557.0,5762445.0,5762363.0,5762109.0,5761899.0,5761720.0,5761801.0,5761708.0,5761890.0,5762252.0,5762257.0,5762526.0,5762355.0,5762394.0,5762268.0,5762172.0,5762131.0,5762192.0,5762508.0,5762587.0,5762083.0,5761692.0,5761759.0,5761693.0,5761498.0,5763350.0,5771416.0,5763432.0,5761979.0,5761933.0,5761917.0,5762116.0,5762067.0,5762027.0,5761772.0,5761578.0,5761786.0,5761522.0,5761840.0,5761939.0,5761984.0,5761998.0,5761908.0,5761791.0,5761783.0,5762047.0,5761697.0,5761831.0,5762162.0,5762390.0,5761954.0,5761652.0,5761754.0,5761742.0,5761811.0,5762781.0,5771484.0,5763172.0,5761959.0,5761798.0,5761865.0,5761868.0,5761702.0,5761723.0,5761547.0,5761315.020:24:55,5761469.0,5761681.0,5761820.0,5761770.0,5761789.0,5761681.0,5761775.0,5761807.0,5762264.0,5762113.0,5761724.0,5761486.0,5761436.0,5761564.0,5760592.0,5765601.0,5770540.0,5763425.0,5761946.0,5761825.0,5761914.0,5762032.0,5761931.0,5761870.0,5761595.0,5761571.0,5761526.0,5761398.0,5761655.0,5761689.0,5761618.0,5761731.0,5761800.0,5761747.0,5761754.0,5761778.0,5761888.0,5762380.0,5762303.0,5761664.0,5761562.0,5761457.0,5761412.0,5759914.0,5767821.0,5768370.0,5762670.0,5761233.0,5761244.0,5761101.0,5760979.0,5760765.0,5760483.0,5760206.0,5760241.0,5760201.0,5760079.0,5760299.0,5760398.0,5760280.0,5760334.0,5760244.0,5760094.0,5759998.0,5759976.0,5759954.0,5760141.0,5760079.0,5759369.0,5759274.0,5759172.0,5759050.0,5756787.0,5771251.0,5761435.0,5759349.0,5759132.0,5759023.0,5759012.0,5759075.0,5758902.0,5758573.0,5758507.0,5758461.0,5758250.0,5758217.0,5758476.0,5758552.0,5758531.0,5758418.0,5758445.0,5758238.0,5758164.0,5758116.0,5758038.0,5758337.0,5758699.0,5758308.0,5758087.0,5758106.020:24:57,5758057.0,5759391.0,5758049.0,5757964.0,5757992.0,5758079.0,5757534.0,5757880.0,5757811.0,5757731.0,5757880.0,5757641.0,5757764.0,5757956.0,5757868.0,5757792.0,5757876.0,5757785.0,5757816.0,5757622.0,5757412.0,5757407.0,5757417.0,5757803.0,5758079.0,5757664.0,5757479.0,5757314.0,5757218.0,5757231.0,5756282.0,5768199.0,5758362.0,5757703.0,5757584.0,5757597.0,5757590.0,5757499.0,5757509.0,5757268.0,5757120.0,5757280.0,5756969.0,5756954.0,5757332.0,5757229.0,5757473.0,5757551.0,5757534.0,5757645.0,5757693.0,5757677.0,5757901.0,5757787.0,5758130.0,5758207.0,5758437.0,5757800.0,5757617.0,5757679.0,5757639.0,5755561.0,5767565.0,5763374.0,5758840.0,5757746.0,5757796.0,5757811.0,5757809.0,5757728.0,5757686.0,5757611.0,5757618.0,5757722.0,5757755.0,5757872.0,5757953.0,5758084.0,5758122.0,5758125.0,5758131.0,5758052.0,5757984.0,5757967.0,5757920.0,5757924.0,5758316.0,5758344.0,5757849.0,5757844.0,5757739.0,5757837.0,5757793.0,5760198.0,5767465.0,5759871.0,5758388.0,5758234.0,5758183.0,5758154.020:25:00,5758070.0,5757914.0,5757805.0,5758047.0,5758104.0,5758142.0,5758200.0,5758126.0,5758056.0,5758055.0,5758011.0,5758011.0,5757888.0,5757903.0,5757880.0,5758364.0,5758590.0,5758279.0,5758032.0,5758039.0,5758039.0,5758058.0,5756866.0,5770446.0,5759345.0,5758586.0,5758366.0,5758570.0,5758565.0,5758506.0,5758215.0,5758109.0,5757985.0,5758182.0,5757924.0,5757906.0,5758204.0,5758165.0,5758279.0,5758223.0,5758320.0,5758303.0,5758295.0,5758203.0,5758321.0,5758265.0,5758196.0,5758198.0,5758562.0,5758813.0,5758419.0,5758135.0,5757942.0,5757958.0,5757801.0,5756458.0,5769901.0,5759163.0,5757959.0,5757804.0,5757798.0,5757804.0,5757722.0,5757720.0,5757628.0,5757505.0,5757384.0,5757301.0,5757320.0,5757473.0,5757463.0,5757437.0,5757285.0,5757386.0,5757147.0,5757137.0,5756957.0,5756985.0,5756738.0,5756711.0,5757121.0,5757139.0,5757078.0,5756592.0,5756364.0,5756305.0,5756309.0,5754813.0,5770658.0,5758383.0,5756690.0,5756260.0,5756193.0,5756120.0,5756111.0,5755875.0,5755721.0,5755343.0,5755333.0,5755272.020:25:02,5755301.0,5755766.0,5755698.0,5755673.0,5755609.0,5755411.0,5755318.0,5755564.0,5755793.0,5755820.0,5755181.0,5755108.0,5754974.0,5755097.0,5752869.0,5764899.0,5760861.0,5756409.0,5755327.0,5755110.0,5755163.0,5755021.0,5754995.0,5754779.0,5754475.0,5754455.0,5754518.0,5754338.0,5754780.0,5754783.0,5754900.0,5754891.0,5754839.0,5755000.0,5754934.0,5755056.0,5754912.0,5754963.0,5754958.0,5755524.0,5755640.0,5755129.0,5754785.0,5754894.0,5754865.0,5754815.0,5756230.0,5765976.0,5756389.0,5755114.0,5755101.0,5755003.0,5755156.0,5755065.0,5754966.0,5754919.0,5754763.0,5754988.0,5754966.0,5755183.0,5755337.0,5755353.0,5755417.0,5755416.0,5755433.0,5755366.0,5755367.0,5755274.0,5755389.0,5755354.0,5755310.0,5755674.0,5755811.0,5756035.0,5755500.0,5755393.0,5755433.0,5755524.0,5753101.0,5765852.0,5761252.0,5756854.0,5755856.0,5755815.0,5755795.0,5755841.0,5755703.0,5755519.0,5755279.0,5755394.0,5755339.0,5755319.0,5755590.0,5755718.0,5755764.0,5755986.0,5755948.0,5756023.0,5756148.0,5756039.020:25:04,5756092.0,5756425.0,5756079.0,5755895.0,5755943.0,5756012.0,5753670.0,5702052.0,5760939.0,5757184.0,5756395.0,5756421.0,5756445.0,5756489.0,5756367.0,5756210.0,5755992.0,5755958.0,5755933.0,5756029.0,5756348.0,5756529.0,5756600.0,5756698.0,5756911.0,5756803.0,5756908.0,5757048.0,5756953.0,5757130.0,5757698.0,5757431.0,5757091.0,5756865.0,5756819.0,5756905.0,5755856.0,5761796.0,5765111.0,5758675.0,5757166.0,5757194.0,5757240.0,5757190.0,5757076.0,5757045.0,5756927.0,5756894.0,5757096.0,5757048.0,5757343.0,5757593.0,5757560.0,5757769.0,5757691.0,5757699.0,5757605.0,5757654.0,5757565.0,5757606.0,5757930.0,5758275.0,5757833.0,5757592.0,5757385.0,5757196.0,5757381.0,5756292.0,5771314.0,5759054.0,5758115.0,5757942.0,5757882.0,5757815.0,5757747.0,5757752.0,5757536.0,5757331.0,5757460.0,5757344.0,5757619.0,5757823.0,5757771.0,5757898.0,5757883.0,5757937.0,5758052.0,5758089.0,5758098.0,5758238.0,5758219.0,5758523.0,5758671.0,5758707.0,5758398.0,5758095.0,5758226.0,5758152.0,5755991.0,5769902.020:25:06,5761782.0,5758522.0,5758467.0,5758330.0,5758043.0,5757984.0,5757964.0,5757805.0,5758092.0,5758242.0,5758161.0,5758136.0,5758102.0,5758225.0,5758149.0,5758110.0,5758277.0,5758341.0,5758357.0,5758472.0,5758891.0,5758783.0,5758399.0,5758376.0,5758337.0,5758292.0,5757439.0,5763796.0,5765926.0,5759978.0,5758568.0,5758485.0,5758374.0,5758414.0,5758390.0,5758184.0,5757986.0,5757926.0,5758090.0,5758159.0,5758354.0,5758526.0,5758631.0,5758456.0,5758651.0,5758681.0,5758670.0,5758691.0,5758844.0,5758751.0,5758686.0,5758985.0,5759258.0,5759175.0,5758598.0,5758452.0,5758458.0,5758463.0,5756338.0,5771804.0,5761968.0,5759529.0,5759108.0,5759086.0,5759137.0,5759207.0,5759097.0,5758789.0,5758791.0,5758731.0,5758792.0,5758855.0,5759097.0,5759188.0,5759256.0,5759281.0,5759322.0,5759260.0,5759294.0,5759279.0,5759209.0,5759338.0,5759890.0,5760066.0,5759874.0,5759451.0,5759249.0,5759353.0,5759288.0,5757341.0,5772720.0,5761715.0,5759840.0,5759500.0,5759574.0,5759562.0,5759373.0,5759326.0,5759190.0,5758968.020:25:08,5759085.0,5759606.0,5759806.0,5759776.0,5759875.0,5759843.0,5759864.0,5759893.0,5759833.0,5759886.0,5759922.0,5760234.0,5760449.0,5760590.0,5760016.0,5759802.0,5759733.0,5759797.0,5757523.0,5771892.0,5763555.0,5760575.0,5760064.0,5760138.0,5760189.0,5760176.0,5760013.0,5759812.0,5759565.0,5759519.0,5759480.0,5759560.0,5759783.0,5759716.0,5759617.0,5759602.0,5759392.0,5759338.0,5759113.0,5758956.0,5758880.0,5758663.0,5758613.0,5758482.0,5758407.0,5758733.0,5758884.0,5758257.0,5757898.0,5757882.0,5757743.0,5757394.0,5757572.0,5767592.0,5758571.0,5757111.0,5756883.0,5756732.0,5756556.0,5756238.0,5755918.0,5755428.0,5755143.0,5755173.0,5754970.0,5754999.0,5755220.0,5755169.0,5755100.0,5754971.0,5754839.0,5754738.0,5754493.0,5754341.0,5754333.0,5754282.0,5754031.0,5754165.0,5754175.0,5754197.0,5753704.0,5753391.0,5753227.0,5753225.0,5750843.0,5761424.0,5760097.0,5754514.0,5753256.0,5753186.0,5753171.0,5753258.0,5753085.0,5752772.0,5752601.0,5752437.0,5752474.0,5752409.0,5752595.0,5752787.020:25:10,5752715.0,5752775.0,5752780.0,5752784.0,5752634.0,5753071.0,5753239.0,5753335.0,5752674.0,5752485.0,5752408.0,5752386.0,5750177.0,5762289.0,5759187.0,5753999.0,5752841.0,5752906.0,5752960.0,5753021.0,5752948.0,5752816.0,5752558.0,5752561.0,5752470.0,5752625.0,5752999.0,5753078.0,5753106.0,5753059.0,5753136.0,5753204.0,5753031.0,5753020.0,5752907.0,5752947.0,5753187.0,5753801.0,5753551.0,5753249.0,5753274.0,5753216.0,5753470.0,5753163.0,5757011.0,5763171.0,5755477.0,5753816.0,5753666.0,5753705.0,5753675.0,5753664.0,5753428.0,5753163.0,5753012.0,5753151.0,5753113.0,5753542.0,5753631.0,5753793.0,5753840.0,5753938.0,5753985.0,5754042.0,5753939.0,5753908.0,5753939.0,5753887.0,5754214.0,5754296.0,5754398.0,5753882.0,5753753.0,5753751.0,5753772.0,5751730.0,5763361.0,5759735.0,5755232.0,5754092.0,5754188.0,5754327.0,5754308.0,5754261.0,5754038.0,5753847.0,5753791.0,5753885.0,5753854.0,5754140.0,5754291.0,5754287.0,5754152.0,5754169.0,5754194.0,5754173.0,5754222.0,5754208.0,5754245.0,5754284.020:25:13,5754702.0,5753542.0,5759383.0,5762840.0,5756439.0,5754802.0,5754726.0,5754681.0,5754776.0,5754748.0,5754606.0,5754322.0,5754428.0,5754431.0,5754226.0,5754406.0,5754442.0,5754550.0,5754514.0,5754685.0,5754776.0,5754804.0,5754879.0,5754924.0,5755117.0,5755168.0,5755609.0,5755512.0,5755047.0,5754965.0,5754918.0,5754800.0,5753706.0,5759322.0,5763651.0,5756666.0,5755058.0,5754905.0,5755055.0,5755008.0,5755002.0,5754929.0,5754729.0,5754740.0,5754924.0,5754855.0,5755182.0,5755429.0,5755364.0,5755567.0,5755529.0,5755517.0,5755550.0,5755484.0,5755421.0,5755486.0,5755869.0,5756200.0,5755581.0,5755239.0,5755299.0,5755331.0,5755359.0,5754338.0,5767896.0,5756640.0,5755988.0,5755917.0,5755848.0,5755884.0,5755923.0,5755682.0,5755613.0,5755450.0,5755491.0,5755462.0,5755593.0,5755868.0,5755970.0,5755941.0,5755937.0,5755948.0,5756003.0,5756015.0,5756006.0,5756075.0,5756134.0,5756570.0,5756614.0,5756630.0,5756163.0,5756013.0,5756010.0,5756027.0,5753687.0,5767453.0,5760608.0,5757160.0,5756230.0,5756120.020:25:15,5756186.0,5755744.0,5755771.0,5755652.0,5755958.0,5756109.0,5756030.0,5756078.0,5755927.0,5755981.0,5756069.0,5756015.0,5756097.0,5756090.0,5756122.0,5756128.0,5756653.0,5756728.0,5756682.0,5756417.0,5756012.0,5755959.0,5756011.0,5753684.0,5768189.0,5758487.0,5756135.0,5755607.0,5755513.0,5755354.0,5755183.0,5754880.0,5754681.0,5754418.0,5754174.0,5753950.0,5753892.0,5753984.0,5754032.0,5753957.0,5753857.0,5753745.0,5753537.0,5753239.0,5753055.0,5752792.0,5752572.0,5752327.0,5752459.0,5752434.0,5751944.0,5751350.0,5750872.0,5750585.0,5750214.0,5748268.0,5762708.0,5752563.0,5750034.0,5749399.0,5749213.0,5749122.0,5748827.0,5748623.0,5748222.0,5747973.0,5747879.0,5747768.0,5747811.0,5747986.0,5748100.0,5748205.0,5748193.0,5748233.0,5748434.0,5748427.0,5748461.0,5748500.0,5748575.0,5749208.0,5749735.0,5749659.0,5749316.0,5749217.0,5749283.0,5749435.0,5748069.0,5763438.0,5751496.0,5750112.0,5749795.0,5749876.0,5749773.0,5749682.0,5749591.0,5749306.0,5749076.0,5749232.0,5749323.0,5749451.020:25:17,5749618.0,5749621.0,5749420.0,5749188.0,5749291.0,5749205.0,5749634.0,5749744.0,5749212.0,5748888.0,5748859.0,5748743.0,5748528.0,5748792.0,5759667.0,5750370.0,5748985.0,5748848.0,5748833.0,5748739.0,5748527.0,5748321.0,5747893.0,5747643.0,5747793.0,5747582.0,5747803.0,5748066.0,5748013.0,5748000.0,5748063.0,5748025.0,5748050.0,5747915.0,5747930.0,5747781.0,5748148.0,5748208.0,5747876.0,5747431.0,5747356.0,5747239.0,5747280.0,5746051.0,5760907.0,5748659.0,5747499.0,5747365.0,5747373.0,5747488.0,5747400.0,5747322.0,5747197.0,5747082.0,5747129.0,5747065.0,5747120.0,5747252.0,5747292.0,5747188.0,5747299.0,5747337.0,5747356.0,5747296.0,5747083.0,5747446.0,5747477.0,5747459.0,5747687.0,5747134.0,5747106.0,5747134.0,5747104.0,5745002.0,5757516.0,5752747.0,5748551.0,5747572.0,5747520.0,5747589.0,5747580.0,5747631.0,5747618.0,5747413.0,5747595.0,5747353.0,5747396.0,5747677.0,5747715.0,5747812.0,5747866.0,5747843.0,5747949.0,5748179.0,5748243.0,5748248.0,5748406.0,5748789.0,5748874.0,5748509.020:25:19,5748311.0,5760374.0,5751753.0,5749349.0,5748687.0,5748899.0,5748989.0,5749048.0,5748959.0,5748940.0,5748869.0,5748882.0,5748832.0,5748895.0,5749124.0,5749291.0,5749373.0,5749396.0,5749535.0,5749457.0,5749471.0,5749496.0,5749566.0,5750007.0,5750352.0,5750606.0,5750074.0,5749895.0,5750062.0,5749944.0,5747915.0,5760703.0,5754917.0,5751241.0,5750291.0,5750359.0,5750498.0,5750443.0,5750363.0,5750190.0,5750039.0,5750174.0,5750108.0,5750154.0,5750334.0,5750669.0,5750768.0,5750864.0,5750920.0,5751087.0,5751037.0,5750990.0,5751043.0,5751130.0,5751090.0,5751656.0,5751542.0,5751333.0,5751083.0,5751099.0,5751131.0,5751002.0,5752483.0,5761396.0,5752976.0,5751666.0,5751498.0,5751690.0,5751761.0,5751792.0,5751636.0,5751567.0,5751611.0,5751641.0,5751516.0,5751695.0,5751957.0,5751902.0,5751946.0,5751939.0,5752002.0,5751959.0,5752049.0,5752062.0,5752136.0,5752262.0,5752149.0,5752229.0,5752368.0,5752907.0,5752911.0,5752675.0,5752566.0,5752680.0,5752567.0,5752474.0,5753080.0,5762943.0,5754325.0,5752970.020:25:21,5752914.0,5753008.0,5752959.0,5752989.0,5752864.0,5752838.0,5752959.0,5753259.0,5753165.0,5753085.0,5753335.0,5753601.0,5753618.0,5753635.0,5753759.0,5753822.0,5753897.0,5753828.0,5753993.0,5754245.0,5754253.0,5754004.0,5753822.0,5753828.0,5753818.0,5753673.0,5755327.0,5764598.0,5755295.0,5754369.0,5754294.0,5754290.0,5754506.0,5754562.0,5754649.0,5754574.0,5754603.0,5754866.0,5754702.0,5754715.0,5754906.0,5755047.0,5755070.0,5755132.0,5755260.0,5755198.0,5755175.0,5755241.0,5755185.0,5755117.0,5755155.0,5755212.0,5755274.0,5755747.0,5756081.0,5755625.0,5755523.0,5755576.0,5755532.0,5755434.0,5755211.0,5767678.0,5756793.0,5756070.0,5755811.0,5755831.0,5755710.0,5755666.0,5755639.0,5755389.0,5755341.0,5755494.0,5755360.0,5755453.0,5755807.0,5755827.0,5755787.0,5756022.0,5756018.0,5756117.0,5755966.0,5755986.0,5756003.0,5756037.0,5755976.0,5756104.0,5756057.0,5756053.0,5756187.0,5756408.0,5756453.0,5756528.0,5756165.0,5756040.0,5756036.0,5756076.0,5754218.0,5766744.0,5762165.0,5757685.020:25:23,5756566.0,5756232.0,5756091.0,5756154.0,5756273.0,5756325.0,5756392.0,5756590.0,5756539.0,5756501.0,5756540.0,5756514.0,5756576.0,5756513.0,5756504.0,5756552.0,5756462.0,5756472.0,5756342.0,5756428.0,5756449.0,5756557.0,5756519.0,5756779.0,5757198.0,5756748.0,5756669.0,5756695.0,5756641.0,5756543.0,5756070.0,5767907.0,5757962.0,5757036.0,5756782.0,5756697.0,5756866.0,5756728.0,5756710.0,5756558.0,5756632.0,5756604.0,5756535.0,5756684.0,5756857.0,5756790.0,5756930.0,5757009.0,5757087.0,5757066.0,5757179.0,5757022.0,5757101.0,5757107.0,5757037.0,5757016.0,5757095.0,5757119.0,5757531.0,5757687.0,5757255.0,5756992.0,5757016.0,5757063.0,5756692.0,5758612.0,5767462.0,5758664.0,5757657.0,5757657.0,5757849.0,5757791.0,5757777.0,5757664.0,5757497.0,5757597.0,5757732.0,5757698.0,5757706.0,5757901.0,5757913.0,5757921.0,5757894.0,5757924.0,5757994.0,5758024.0,5758093.0,5758159.0,5758127.0,5758170.0,5758298.0,5758320.0,5758709.0,5758706.0,5758307.0,5758148.0,5758131.0,5758042.0,5757957.0,5760733.020:25:26,5767824.0,5758461.0,5758477.0,5758272.0,5758163.0,5758026.0,5758079.0,5758076.0,5758243.0,5758287.0,5758456.0,5758420.0,5758521.0,5758497.0,5758461.0,5758503.0,5758600.0,5758728.0,5758622.0,5758654.0,5758607.0,5758736.0,5758677.0,5759059.0,5759340.0,5759272.0,5758814.0,5758658.0,5758627.0,5758643.0,5756570.0,5771848.0,5761358.0,5759158.0,5758837.0,5758772.0,5758937.0,5759022.0,5759014.0,5758805.0,5758680.0,5758695.0,5758870.0,5758814.0,5759106.0,5759134.0,5759092.0,5759246.0,5759194.0,5759235.0,5758934.0,5759080.0,5758999.0,5759149.0,5758974.0,5759145.0,5759198.0,5759557.0,5759948.0,5759993.0,5759380.0,5759183.0,5759279.0,5759127.0,5757601.0,5772730.0,5762112.0,5759859.0,5759469.0,5759374.0,5759363.0,5759200.0,5759171.0,5758873.0,5759037.0,5759042.0,5758956.0,5759139.0,5759362.0,5759606.0,5759499.0,5759764.0,5759662.0,5759748.0,5759661.0,5759688.0,5759693.0,5759505.0,5759720.0,5759781.0,5760247.0,5760116.0,5759706.0,5759627.0,5759596.0,5759709.0,5758554.0,5764259.0,5768566.0,5761709.020:25:28,5760376.0,5759948.0,5759815.0,5759938.0,5760052.0,5760086.0,5760054.0,5760454.0,5760644.0,5760740.0,5760683.0,5760792.0,5760778.0,5760646.0,5760655.0,5760747.0,5760647.0,5760722.0,5761064.0,5761319.0,5761239.0,5760612.0,5760410.0,5760378.0,5760507.0,5758457.0,5773703.0,5763303.0,5761358.0,5760953.0,5761075.0,5761143.0,5761049.0,5760978.0,5760788.0,5760620.0,5760594.0,5760646.0,5760727.0,5760926.0,5760946.0,5761013.0,5760874.0,5760857.0,5760926.0,5760959.0,5760874.0,5760839.0,5760909.0,5761044.0,5761483.0,5761808.0,5761240.0,5761194.0,5761085.0,5761218.0,5761097.0,5760008.0,5772735.0,5762311.0,5761500.0,5761268.0,5761340.0,5761290.0,5761107.0,5760961.0,5760843.0,5760816.0,5760935.0,5760895.0,5761018.0,5761414.0,5761469.0,5761641.0,5761509.0,5761472.0,5761544.0,5761481.0,5761503.0,5761384.0,5761459.0,5761513.0,5761936.0,5762043.0,5761465.0,5761289.0,5761278.0,5761232.0,5761082.0,5761048.0,5771623.0,5762652.0,5761713.0,5761537.0,5761685.0,5761773.0,5761737.0,5761655.0,5761550.0,5761541.020:25:30,5761544.0,5761903.0,5761894.0,5761899.0,5761894.0,5761935.0,5761824.0,5761979.0,5762213.0,5762461.0,5762583.0,5762069.0,5761765.0,5761851.0,5761993.0,5759609.0,5773347.0,5766313.0,5763225.0,5762436.0,5762249.0,5762406.0,5762371.0,5762312.0,5762110.0,5762008.0,5762082.0,5762119.0,5762047.0,5762201.0,5762098.0,5762497.0,5762567.0,5762644.0,5762719.0,5762824.0,5762877.0,5762846.0,5762816.0,5763362.0,5763541.0,5763142.0,5762910.0,5762813.0,5762687.0,5762772.0,5761567.0,5776057.0,5763942.0,5763203.0,5762956.0,5762917.0,5762962.0,5762925.0,5762878.0,5762740.0,5762631.0,5762799.0,5762831.0,5762912.0,5763215.0,5763250.0,5763209.0,5763416.0,5763391.0,5763447.0,5763387.0,5763295.0,5763293.0,5763245.0,5763560.0,5763579.0,5763731.0,5763162.0,5763040.0,5762981.0,5763034.0,5761705.0,5771186.0,5769702.0,5764628.0,5763448.0,5763289.0,5763339.0,5763233.0,5763074.0,5763055.0,5762921.0,5762691.0,5762712.0,5762612.0,5762851.0,5762954.0,5762828.0,5762855.0,5762802.0,5762899.0,5762909.0,5762937.0,5762859.020:25:32,5762850.0,5763318.0,5763015.0,5762626.0,5762682.0,5762695.0,5760752.0,5775119.0,5765359.0,5763232.0,5762719.0,5762714.0,5762573.0,5762604.0,5762573.0,5762519.0,5762371.0,5762516.0,5762526.0,5762599.0,5762837.0,5762824.0,5763027.0,5762981.0,5763144.0,5762976.0,5763047.0,5763135.0,5763076.0,5763002.0,5763126.0,5763649.0,5763501.0,5763185.0,5762880.0,5762802.0,5762923.0,5762578.0,5764009.0,5772990.0,5764982.0,5763532.0,5763549.0,5763503.0,5763647.0,5763563.0,5763431.0,5763283.0,5763326.0,5763393.0,5763346.0,5763580.0,5763702.0,5763642.0,5763766.0,5763702.0,5763791.0,5763826.0,5763841.0,5763820.0,5763844.0,5763953.0,5764465.0,5764803.0,5764280.0,5763912.0,5763829.0,5764001.0,5763902.0,5762736.0,5776436.0,5765352.0,5764364.0,5764106.0,5764012.0,5764078.0,5763991.0,5763950.0,5763791.0,5763613.0,5763765.0,5763747.0,5763938.0,5764329.0,5764270.0,5764307.0,5764354.0,5764240.0,5764321.0,5764251.0,5764241.0,5764279.0,5764174.0,5764467.0,5764511.0,5764522.0,5764075.0,5763922.0,5763841.0,5764026.020:25:34,5762742.0,5764179.0,5764294.0,5764136.0,5764054.0,5763899.0,5763765.0,5763627.0,5763644.0,5763599.0,5763756.0,5764029.0,5764010.0,5764030.0,5763919.0,5763879.0,5763880.0,5763867.0,5763824.0,5763637.0,5763664.0,5763561.0,5763657.0,5763886.0,5763561.0,5763408.0,5763241.0,5763106.0,5762938.0,5762858.0,5766333.0,5771996.0,5764966.0,5763086.0,5762846.0,5762936.0,5762789.0,5762614.0,5762548.0,5762297.0,5762148.0,5762014.0,5761957.0,5761960.0,5762139.0,5762061.0,5762037.0,5761978.0,5762039.0,5762024.0,5761993.0,5762043.0,5762095.0,5761829.0,5761823.0,5761944.0,5761778.0,5761986.0,5762258.0,5762024.0,5761518.0,5761357.0,5761271.0,5761178.0,5760164.0,5765315.0,5770266.0,5762958.0,5761415.0,5761278.0,5761450.0,5761450.0,5761390.0,5761286.0,5761053.0,5760977.0,5761166.0,5761032.0,5761184.0,5761356.0,5761458.0,5761388.0,5761555.0,5761462.0,5761350.0,5761282.0,5761221.0,5761208.0,5761235.0,5761585.0,5761816.0,5762141.0,5761569.0,5761458.0,5761484.0,5761502.0,5759287.0,5771659.0,5768121.0,5762933.020:25:36,5761778.0,5761777.0,5761571.0,5761368.0,5761442.0,5761405.0,5761529.0,5761723.0,5761847.0,5761874.0,5761947.0,5762148.0,5761976.0,5761943.0,5761742.0,5762040.0,5761898.0,5762372.0,5762732.0,5762597.0,5762362.0,5762151.0,5762158.0,5762241.0,5760277.0,5775470.0,5765064.0,5762942.0,5762603.0,5762604.0,5762590.0,5762582.0,5762397.0,5762321.0,5762151.0,5762167.0,5762253.0,5762325.0,5762530.0,5762616.0,5762637.0,5762863.0,5762797.0,5762949.0,5763034.0,5762914.0,5762901.0,5762880.0,5763057.0,5763436.0,5763356.0,5763010.0,5762887.0,5762745.0,5762917.0,5762402.0,5767592.0,5770962.0,5764677.0,5763118.0,5763117.0,5763183.0,5763336.0,5763358.0,5763079.0,5762950.0,5762877.0,5762893.0,5762829.0,5763061.0,5763271.0,5763255.0,5763327.0,5763397.0,5763302.0,5763356.0,5763242.0,5763203.0,5763234.0,5763366.0,5763533.0,5763858.0,5763896.0,5763495.0,5763530.0,5763404.0,5763412.0,5762451.0,5768731.0,5771397.0,5765201.0,5763815.0,5763547.0,5763639.0,5763586.0,5763493.0,5763470.0,5763161.0,5763354.0,5763441.020:25:39,5763244.0,5763852.0,5763903.0,5763835.0,5763767.0,5763873.0,5763793.0,5763865.0,5763976.0,5764224.0,5764576.0,5764702.0,5764217.0,5764063.0,5764092.0,5764164.0,5761916.0,5776153.0,5768122.0,5765182.0,5764405.0,5764361.0,5764461.0,5764473.0,5764405.0,5764205.0,5764099.0,5764125.0,5764245.0,5764158.0,5764559.0,5764818.0,5764801.0,5764918.0,5765017.0,5765111.0,5765172.0,5765106.0,5765133.0,5765098.0,5765092.0,5765050.0,5765481.0,5765793.0,5765751.0,5765100.0,5764943.0,5765027.0,5764912.0,5762746.0,5776896.0,5769465.0,5766084.0,5765478.0,5765468.0,5765426.0,5765556.0,5765430.0,5765222.0,5765077.0,5765125.0,5765182.0,5765178.0,5765422.0,5765441.0,5765540.0,5765472.0,5765502.0,5765451.0,5765375.0,5765442.0,5765523.0,5765496.0,5765532.0,5765652.0,5765730.0,5766234.0,5766565.0,5765949.0,5765750.0,5765722.0,5765721.0,5765722.0,5765936.0,5776447.0,5767396.0,5766019.0,5765779.0,5765759.0,5765786.0,5765648.0,5765501.0,5765335.0,5765340.0,5765449.0,5765476.0,5765515.0,5765866.0,5765920.0,5765866.020:25:41,5765885.0,5765927.0,5765764.0,5765892.0,5765887.0,5765748.0,5766107.0,5766178.0,5766259.0,5765765.0,5765536.0,5765511.0,5765462.0,5763353.0,5774537.0,5772120.0,5766714.0,5765504.0,5765373.0,5765599.0,5765599.0,5765790.0,5765604.0,5765492.0,5765527.0,5765507.0,5765379.0,5765568.0,5765691.0,5765674.0,5765701.0,5765646.0,5765707.0,5765708.0,5765630.0,5765620.0,5765721.0,5765861.0,5765829.0,5766359.0,5766689.0,5766552.0,5766083.0,5765903.0,5765908.0,5765931.0,5764152.0,5780079.0,5768654.0,5766494.0,5766100.0,5766032.0,5766045.0,5766010.0,5765884.0,5765697.0,5765693.0,5765841.0,5765646.0,5766013.0,5766330.0,5766539.0,5766569.0,5766426.0,5766500.0,5766528.0,5766456.0,5766447.0,5766418.0,5766368.0,5766315.0,5766385.0,5766763.0,5766936.0,5766345.0,5766236.0,5766152.0,5766194.0,5766082.0,5766832.0,5777347.0,5768204.0,5766852.0,5766751.0,5766711.0,5766644.0,5766604.0,5766435.0,5766190.0,5766130.0,5766233.0,5766224.0,5766340.0,5766667.0,5766545.0,5766489.0,5766592.0,5766538.0,5766731.0,5766579.020:25:43,5766633.0,5767515.0,5767253.0,5766906.0,5766727.0,5766899.0,5766890.0,5765187.0,5780827.0,5768845.0,5767240.0,5767097.0,5767079.0,5767134.0,5767111.0,5766999.0,5766856.0,5766823.0,5767023.0,5766846.0,5766983.0,5767251.0,5767327.0,5767272.0,5767461.0,5767408.0,5767372.0,5767319.0,5767454.0,5767372.0,5767263.0,5767279.0,5767438.0,5767782.0,5768101.0,5767601.0,5767390.0,5767359.0,5767406.0,5767411.0,5766198.0,5779005.0,5768836.0,5767765.0,5767417.0,5767479.0,5767583.0,5767484.0,5767295.0,5766937.0,5766893.0,5766979.0,5766826.0,5766982.0,5767157.0,5767324.0,5767291.0,5767375.0,5767356.0,5767472.0,5767411.0,5767456.0,5767520.0,5767485.0,5767882.0,5767933.0,5768110.0,5767516.0,5767278.0,5767417.0,5767391.0,5765210.0,5776261.0,5774295.0,5768831.0,5767678.0,5767709.0,5767838.0,5767874.0,5767824.0,5767772.0,5767500.0,5767553.0,5767589.0,5767608.0,5767832.0,5768012.0,5768165.0,5768199.0,5768196.0,5768145.0,5768046.0,5768096.0,5767955.0,5768117.0,5768465.0,5768610.0,5768866.0,5768209.0,5768275.020:25:45,5768297.0,5769530.0,5768533.0,5768353.0,5768423.0,5768490.0,5768387.0,5768266.0,5768150.0,5768208.0,5768272.0,5768355.0,5768479.0,5768740.0,5768802.0,5768836.0,5768896.0,5768946.0,5768836.0,5768843.0,5768821.0,5768690.0,5768790.0,5769041.0,5769256.0,5769180.0,5768836.0,5768608.0,5768602.0,5768787.0,5766714.0,5782285.0,5771559.0,5769475.0,5769026.0,5769080.0,5769059.0,5768989.0,5768869.0,5768698.0,5768499.0,5768622.0,5768676.0,5768682.0,5768975.0,5769041.0,5769011.0,5769075.0,5769136.0,5769190.0,5769152.0,5769218.0,5769367.0,5769377.0,5769599.0,5769686.0,5769753.0,5769421.0,5769099.0,5769139.0,5769157.0,5766888.0,5780075.0,5774729.0,5770278.0,5769176.0,5769070.0,5769001.0,5769033.0,5768776.0,5768767.0,5768544.0,5768542.0,5768574.0,5768435.0,5768665.0,5768677.0,5768502.0,5768459.0,5768508.0,5768414.0,5768262.0,5768156.0,5768091.0,5767907.0,5768235.0,5768284.0,5768172.0,5767685.0,5767382.0,5767315.0,5767319.0,5764905.0,5779010.0,5771331.0,5768317.0,5767421.0,5767219.0,5767236.0,5767146.020:25:47,5767119.0,5766580.0,5766787.0,5767040.0,5766967.0,5767121.0,5767085.0,5767083.0,5767011.0,5767104.0,5766980.0,5767005.0,5767109.0,5767534.0,5767274.0,5766872.0,5766666.0,5766624.0,5766578.0,5765821.0,5771501.0,5775426.0,5768778.0,5767065.0,5767029.0,5766979.0,5767031.0,5767001.0,5766783.0,5766619.0,5766665.0,5766725.0,5766653.0,5766866.0,5767094.0,5767154.0,5767183.0,5767197.0,5767230.0,5767242.0,5767174.0,5767260.0,5767261.0,5767285.0,5767338.0,5767807.0,5768187.0,5767697.0,5767676.0,5767369.0,5767346.0,5767482.0,5766129.0,5781662.0,5769757.0,5768016.0,5767751.0,5767707.0,5767602.0,5767505.0,5767473.0,5767366.0,5767321.0,5767431.0,5767345.0,5767531.0,5767843.0,5768052.0,5768004.0,5768101.0,5768084.0,5768123.0,5768082.0,5768093.0,5768102.0,5768061.0,5768049.0,5767991.0,5768228.0,5768526.0,5768132.0,5767812.0,5767795.0,5767778.0,5767723.0,5767245.0,5773075.0,5775507.0,5769555.0,5767722.0,5767460.0,5767357.0,5767127.0,5766968.0,5766569.0,5766304.0,5766128.0,5766068.0,5765674.0,5765703.020:25:49,5765589.0,5764869.0,5764536.0,5764375.0,5763992.0,5763777.0,5763441.0,5763146.0,5763179.0,5762962.0,5762866.0,5762064.0,5761572.0,5761364.0,5761033.0,5758587.0,5769816.0,5766607.0,5761364.0,5760065.0,5759705.0,5759449.0,5759421.0,5759132.0,5758752.0,5758567.0,5758355.0,5758169.0,5757859.0,5757820.0,5757734.0,5757583.0,5757437.0,5757351.0,5757160.0,5757104.0,5756854.0,5756692.0,5756657.0,5756669.0,5756610.0,5756841.0,5756883.0,5756933.0,5756241.0,5756108.0,5755996.0,5755966.0,5753787.0,5767499.0,5760517.0,5756889.0,5756000.0,5755937.0,5755860.0,5755977.0,5755789.0,5755634.0,5755482.0,5755542.0,5755668.0,5755597.0,5755819.0,5755871.0,5755794.0,5755712.0,5755678.0,5755563.0,5755468.0,5755432.0,5755274.0,5755162.0,5755075.0,5754941.0,5754963.0,5755326.0,5755102.0,5754841.0,5754631.0,5754580.0,5754611.0,5754366.0,5757784.0,5764231.0,5756470.0,5754824.0,5754479.0,5754436.0,5754438.0,5754261.0,5754161.0,5753947.0,5753739.0,5753779.0,5753689.0,5753885.0,5753925.0,5754013.0,5753985.0,5754077.020:25:52,5754256.0,5753997.0,5754013.0,5753973.0,5754153.0,5754478.0,5754715.0,5754526.0,5754141.0,5753881.0,5753908.0,5754005.0,5751670.0,5767030.0,5757494.0,5754571.0,5754031.0,5753881.0,5754000.0,5753900.0,5753971.0,5753784.0,5753632.0,5753688.0,5753848.0,5753977.0,5754264.0,5754355.0,5754250.0,5754438.0,5754397.0,5754388.0,5754329.0,5754310.0,5754469.0,5754443.0,5754422.0,5754405.0,5754563.0,5754941.0,5754828.0,5754596.0,5754533.0,5754585.0,5754636.0,5753985.0,5759825.0,5763050.0,5756749.0,5755222.0,5755087.0,5755189.0,5755248.0,5755179.0,5755051.0,5754878.0,5754945.0,5755024.0,5754870.0,5755144.0,5755405.0,5755326.0,5755448.0,5755547.0,5755753.0,5755664.0,5755844.0,5755994.0,5755993.0,5756044.0,5756075.0,5756442.0,5756859.0,5756389.0,5756237.0,5756129.0,5756224.0,5756030.0,5754990.0,5768257.0,5757839.0,5756816.0,5756637.0,5756695.0,5756854.0,5756904.0,5756975.0,5756668.0,5756678.0,5756935.0,5756897.0,5757002.0,5757280.0,5757400.0,5757305.0,5757363.0,5757251.0,5757394.0,5757382.0,5757434.020:25:54,5757405.0,5757725.0,5757517.0,5757422.0,5757579.0,5755159.0,5768973.0,5761711.0,5758439.0,5757687.0,5757655.0,5757822.0,5757786.0,5757667.0,5757596.0,5757486.0,5757475.0,5757521.0,5757564.0,5757937.0,5757966.0,5758096.0,5758064.0,5758146.0,5758020.0,5757971.0,5758051.0,5758068.0,5758228.0,5758545.0,5758425.0,5758012.0,5758046.0,5758012.0,5758097.0,5756581.0,5764297.0,5765355.0,5759758.0,5758183.0,5758041.0,5758037.0,5757889.0,5757661.0,5757444.0,5757087.0,5756922.0,5756734.0,5756546.0,5756562.0,5756555.0,5756376.0,5756317.0,5756199.0,5756049.0,5755760.0,5755525.0,5755336.0,5755113.0,5755241.0,5755129.0,5754946.0,5754087.0,5753763.0,5753448.0,5753240.0,5750451.0,5765332.0,5755277.0,5752616.0,5751867.0,5751572.0,5751249.0,5751116.0,5750774.0,5750291.0,5749930.0,5749683.0,5749384.0,5749093.0,5749126.0,5748965.0,5748622.0,5748484.0,5748302.0,5748055.0,5747786.0,5747670.0,5747466.0,5747297.0,5747416.0,5747679.0,5747609.0,5747156.0,5746984.0,5746901.0,5747113.0,5744823.0,5758192.0,5751915.020:25:56,5748352.0,5747627.0,5747656.0,5747704.0,5747756.0,5747902.0,5747929.0,5748093.0,5748382.0,5748276.0,5748361.0,5748389.0,5748417.0,5748532.0,5748294.0,5748301.0,5748200.0,5748657.0,5748779.0,5748797.0,5748323.0,5748109.0,5748088.0,5748106.0,5745963.0,5761446.0,5750766.0,5748471.0,5747942.0,5747907.0,5747879.0,5747787.0,5747582.0,5747194.0,5747078.0,5747109.0,5746889.0,5746816.0,5747002.0,5747091.0,5746902.0,5747013.0,5747097.0,5746979.0,5746951.0,5746709.0,5746665.0,5746998.0,5747155.0,5746568.0,5746168.0,5746016.0,5745925.0,5745944.0,5744797.0,5759203.0,5746916.0,5745990.0,5745740.0,5745695.0,5745713.0,5745619.0,5745580.0,5745377.0,5745299.0,5745444.0,5745218.0,5745331.0,5745520.0,5745445.0,5745569.0,5745579.0,5745573.0,5745582.0,5745571.0,5745545.0,5745530.0,5745695.0,5745900.0,5745993.0,5745502.0,5745265.0,5745278.0,5745313.0,5743172.0,5758568.0,5748557.0,5746123.0,5745799.0,5745849.0,5745804.0,5745817.0,5745739.0,5745616.0,5745464.0,5745525.0,5745493.0,5745404.0,5745765.0,5745920.020:25:58,5745854.0,5746460.0,5746429.0,5746520.0,5746500.0,5746843.0,5747109.0,5747050.0,5746778.0,5746564.0,5746744.0,5746780.0,5745083.0,5759836.0,5750433.0,5747965.0,5747541.0,5747536.0,5747507.0,5747619.0,5747622.0,5747677.0,5747488.0,5747676.0,5747543.0,5747671.0,5747890.0,5747959.0,5748054.0,5748173.0,5748322.0,5748371.0,5748479.0,5748539.0,5748710.0,5748872.0,5749046.0,5749487.0,5749410.0,5749285.0,5749159.0,5749027.0,5749271.0,5749030.0,5750577.0,5759500.0,5751268.0,5749957.0,5749763.0,5749826.0,5749771.0,5750025.0,5750082.0,5750023.0,5750167.0,5750479.0,5750380.0,5750671.0,5750878.0,5750951.0,5751122.0,5751251.0,5751314.0,5751375.0,5751450.0,5751494.0,5751411.0,5751561.0,5752007.0,5752189.0,5752257.0,5751877.0,5751733.0,5751782.0,5751955.0,5750127.0,5760828.0,5759038.0,5753778.0,5752567.0,5752572.0,5752720.0,5752666.0,5752557.0,5752521.0,5752400.0,5752511.0,5752581.0,5752522.0,5752737.0,5752944.0,5752917.0,5753104.0,5753182.0,5753385.0,5753435.0,5753489.0,5753577.0,5753576.0,5753545.020:26:00,5753930.0,5753402.0,5753449.0,5753573.0,5752220.0,5767274.0,5756178.0,5754405.0,5754204.0,5754073.0,5754101.0,5754071.0,5754119.0,5753893.0,5753823.0,5753935.0,5753891.0,5753771.0,5753990.0,5754140.0,5754121.0,5754116.0,5754091.0,5754298.0,5754325.0,5754279.0,5754484.0,5754437.0,5754570.0,5754634.0,5754938.0,5755002.0,5755140.0,5754624.0,5754375.0,5754488.0,5754522.0,5752303.0,5766540.0,5757828.0,5755309.0,5754659.0,5754533.0,5754656.0,5754583.0,5754628.0,5754527.0,5754520.0,5754672.0,5754662.0,5754661.0,5754795.0,5754995.0,5754982.0,5755091.0,5755117.0,5755159.0,5755160.0,5755049.0,5755165.0,5755124.0,5755044.0,5755047.0,5755419.0,5755739.0,5755624.0,5755257.0,5755054.0,5755261.0,5755271.0,5753667.0,5768887.0,5758083.0,5755996.0,5755581.0,5755626.0,5755405.0,5755787.0,5755625.0,5755585.0,5755522.0,5755589.0,5755471.0,5755418.0,5755707.0,5755761.0,5755896.0,5755899.0,5755962.0,5756104.0,5756174.0,5756207.0,5756274.0,5756308.0,5756316.0,5756850.0,5756804.0,5756473.0,5756258.0,5756290.020:26:02,5756185.0,5756557.0,5756511.0,5756418.0,5756547.0,5756560.0,5756392.0,5756321.0,5756317.0,5756475.0,5756382.0,5756533.0,5756750.0,5756739.0,5756717.0,5756823.0,5756767.0,5756913.0,5756797.0,5756758.0,5756838.0,5756779.0,5756682.0,5757072.0,5757371.0,5757072.0,5756807.0,5756605.0,5756743.0,5756821.0,5755501.0,5770896.0,5758524.0,5757402.0,5757116.0,5757106.0,5757081.0,5757148.0,5756960.0,5756795.0,5756740.0,5756790.0,5756719.0,5756845.0,5756932.0,5757051.0,5757101.0,5757222.0,5757287.0,5757294.0,5757470.0,5757464.0,5757536.0,5757478.0,5757498.0,5757608.0,5757949.0,5758189.0,5757718.0,5757606.0,5757564.0,5757558.0,5757503.0,5757785.0,5768275.0,5759313.0,5757918.0,5757868.0,5757818.0,5757887.0,5757999.0,5757928.0,5757797.0,5757746.0,5757935.0,5757742.0,5757904.0,5758197.0,5758284.0,5758339.0,5758257.0,5758430.0,5758280.0,5758240.0,5758325.0,5758165.0,5758259.0,5758293.0,5758735.0,5758951.0,5759142.0,5758655.0,5758522.0,5758607.0,5758691.0,5756144.0,5770630.0,5762509.0,5759509.0,5758933.020:26:05,5758860.0,5758867.0,5758865.0,5758955.0,5758766.0,5758900.0,5759214.0,5759201.0,5759148.0,5759188.0,5759205.0,5759342.0,5759315.0,5759300.0,5759216.0,5759298.0,5759341.0,5759829.0,5760178.0,5759724.0,5759480.0,5759526.0,5759565.0,5759472.0,5759786.0,5770826.0,5761097.0,5760125.0,5760004.0,5760066.0,5760046.0,5760082.0,5759911.0,5759746.0,5759704.0,5759785.0,5759676.0,5759785.0,5760106.0,5760197.0,5760148.0,5760370.0,5760414.0,5760470.0,5760558.0,5760522.0,5760512.0,5760607.0,5760630.0,5761036.0,5761103.0,5760675.0,5760488.0,5760362.0,5760426.0,5760275.0,5762683.0,5770161.0,5762240.0,5760633.0,5760540.0,5760540.0,5760509.0,5760583.0,5760542.0,5760404.0,5760271.0,5760390.0,5760379.0,5760534.0,5760677.0,5760865.0,5760753.0,5760875.0,5760904.0,5760978.0,5760859.0,5760902.0,5760838.0,5760744.0,5760857.0,5760770.0,5761183.0,5761269.0,5761504.0,5761025.0,5760896.0,5760890.0,5760932.0,5758567.0,5773851.0,5764837.0,5761718.0,5761310.0,5761241.0,5761196.0,5761282.0,5760986.0,5760916.0,5760612.020:26:07,5760691.0,5761336.0,5761328.0,5761289.0,5761438.0,5761283.0,5761277.0,5761239.0,5761191.0,5761235.0,5761247.0,5761230.0,5761253.0,5761646.0,5761768.0,5761848.0,5761343.0,5761269.0,5761263.0,5761445.0,5759048.0,5771893.0,5766946.0,5762458.0,5761421.0,5761489.0,5761382.0,5761394.0,5761208.0,5760993.0,5760896.0,5760983.0,5761140.0,5761016.0,5761353.0,5761443.0,5761625.0,5761737.0,5761759.0,5761750.0,5761795.0,5761782.0,5761756.0,5761689.0,5761670.0,5761826.0,5761797.0,5762122.0,5762431.0,5762001.0,5761747.0,5761601.0,5761690.0,5761493.0,5760481.0,5774046.0,5763259.0,5762472.0,5762275.0,5762347.0,5762355.0,5762413.0,5762207.0,5762136.0,5762023.0,5762224.0,5762221.0,5762186.0,5762803.0,5762651.0,5762719.0,5762572.0,5762639.0,5762656.0,5762672.0,5762700.0,5762728.0,5762804.0,5762857.0,5763277.0,5763506.0,5763543.0,5763291.0,5762785.0,5762723.0,5762848.0,5760431.0,5775031.0,5766442.0,5763560.0,5762947.0,5762892.0,5762934.0,5762879.0,5762809.0,5762579.0,5762382.0,5762553.0,5762839.0,5762842.020:26:09,5763034.0,5763106.0,5763148.0,5763160.0,5763154.0,5763300.0,5763375.0,5763422.0,5763986.0,5764180.0,5763748.0,5763502.0,5763510.0,5763616.0,5763547.0,5764645.0,5774072.0,5765496.0,5763998.0,5763877.0,5763850.0,5763890.0,5763873.0,5763701.0,5763712.0,5763569.0,5763617.0,5763750.0,5763884.0,5764212.0,5764368.0,5764242.0,5764268.0,5764393.0,5764421.0,5764398.0,5764366.0,5764390.0,5764447.0,5764344.0,5764642.0,5765027.0,5764506.0,5764266.0,5764217.0,5764242.0,5764370.0,5763026.0,5777008.0,5765968.0,5764919.0,5764741.0,5764732.0,5764651.0,5764555.0,5764472.0,5764393.0,5764194.0,5764452.0,5764377.0,5764364.0,5764375.0,5764538.0,5764600.0,5764748.0,5764712.0,5764764.0,5764749.0,5764777.0,5764883.0,5764804.0,5764803.0,5765252.0,5765581.0,5764976.0,5764792.0,5764700.0,5764614.0,5764559.0,5763444.0,5776202.0,5765964.0,5765122.0,5764861.0,5764908.0,5764869.0,5764881.0,5764891.0,5764664.0,5764655.0,5764864.0,5764991.0,5765055.0,5765285.0,5765448.0,5765405.0,5765443.0,5765484.0,5765576.0,5765515.020:26:11,5765439.0,5766287.0,5765626.0,5765402.0,5765363.0,5765349.0,5765284.0,5764679.0,5776596.0,5766641.0,5765688.0,5765494.0,5765460.0,5765465.0,5765330.0,5765312.0,5765067.0,5764914.0,5765276.0,5765197.0,5765250.0,5765577.0,5765641.0,5765729.0,5765715.0,5765730.0,5765701.0,5765762.0,5765706.0,5765710.0,5765618.0,5765688.0,5766065.0,5766153.0,5765812.0,5765576.0,5765478.0,5765517.0,5765544.0,5764374.0,5779084.0,5767227.0,5766149.0,5765984.0,5765990.0,5766006.0,5765838.0,5765788.0,5765480.0,5765375.0,5765461.0,5765361.0,5765363.0,5765788.0,5765719.0,5765714.0,5765774.0,5765803.0,5765828.0,5765860.0,5765901.0,5765995.0,5766001.0,5766006.0,5766286.0,5766403.0,5766370.0,5765919.0,5765845.0,5765795.0,5765868.0,5763482.0,5777075.0,5770505.0,5766685.0,5766002.0,5765949.0,5765879.0,5765899.0,5765813.0,5765716.0,5765659.0,5765949.0,5765785.0,5765694.0,5765864.0,5765911.0,5765911.0,5766044.0,5766032.0,5766038.0,5766033.0,5766098.0,5765939.0,5765795.0,5766082.0,5766337.0,5766448.0,5765880.0,5765921.020:26:13,5765970.0,5768426.0,5766504.0,5766151.0,5766210.0,5766087.0,5766087.0,5766050.0,5765877.0,5765825.0,5766104.0,5765914.0,5765905.0,5766176.0,5766327.0,5766350.0,5766428.0,5766433.0,5766440.0,5766421.0,5766487.0,5766347.0,5766488.0,5766847.0,5766826.0,5766380.0,5766084.0,5766167.0,5766179.0,5765632.0,5770868.0,5775237.0,5768346.0,5766716.0,5766755.0,5766578.0,5766706.0,5766560.0,5766522.0,5766315.0,5766265.0,5766376.0,5766151.0,5766396.0,5766556.0,5766553.0,5766478.0,5766572.0,5766593.0,5766652.0,5766557.0,5766550.0,5766699.0,5766726.0,5766938.0,5767331.0,5767274.0,5766772.0,5766652.0,5766620.0,5766579.0,5765087.0,5775346.0,5773105.0,5768002.0,5766745.0,5766665.0,5766645.0,5766509.0,5766516.0,5766378.0,5766257.0,5766286.0,5766390.0,5766279.0,5766531.0,5766781.0,5766805.0,5766830.0,5766837.0,5766787.0,5766892.0,5766786.0,5766764.0,5766722.0,5766718.0,5766702.0,5766762.0,5767112.0,5767352.0,5766784.0,5766708.0,5766679.0,5766749.0,5766649.0,5765649.0,5779912.0,5768334.0,5767109.0,5766976.020:26:15,5766864.0,5766362.0,5766485.0,5766571.0,5766341.0,5766566.0,5766812.0,5766867.0,5766790.0,5766900.0,5766918.0,5766812.0,5766861.0,5766753.0,5766730.0,5766899.0,5766683.0,5766685.0,5766627.0,5766949.0,5767245.0,5766733.0,5766556.0,5766491.0,5766608.0,5766531.0,5765744.0,5778725.0,5768325.0,5767101.0,5766864.0,5766744.0,5766821.0,5766877.0,5766757.0,5766502.0,5766582.0,5766612.0,5766405.0,5766404.0,5766690.0,5766629.0,5766696.0,5766871.0,5766977.0,5767030.0,5767196.0,5767150.0,5767166.0,5767138.0,5767180.0,5767109.0,5767302.0,5767636.0,5767711.0,5767156.0,5766995.0,5767019.0,5767008.0,5766310.0,5772068.0,5775315.0,5768694.0,5767275.0,5767062.0,5767135.0,5767343.0,5767255.0,5767140.0,5767094.0,5767198.0,5767249.0,5767115.0,5767179.0,5767417.0,5767494.0,5767369.0,5767450.0,5767484.0,5767486.0,5767462.0,5767408.0,5767305.0,5767411.0,5767399.0,5767367.0,5767666.0,5767987.0,5767997.0,5767608.0,5767583.0,5767426.0,5767581.0,5765465.0,5778058.0,5774129.0,5768641.0,5767666.0,5767622.0,5767537.020:26:18,5767661.0,5767464.0,5767313.0,5767423.0,5767539.0,5767623.0,5767612.0,5767516.0,5767560.0,5767582.0,5767459.0,5767563.0,5767380.0,5767554.0,5767517.0,5767540.0,5767931.0,5768136.0,5768007.0,5767767.0,5767544.0,5767483.0,5767440.0,5766502.0,5771712.0,5776635.0,5769306.0,5767628.0,5767559.0,5767484.0,5767469.0,5767499.0,5767346.0,5767304.0,5767339.0,5767540.0,5767396.0,5767603.0,5767719.0,5767698.0,5767854.0,5767788.0,5767926.0,5767923.0,5767868.0,5767893.0,5767888.0,5767823.0,5768176.0,5768396.0,5768362.0,5767873.0,5767743.0,5767677.0,5767882.0,5766452.0,5773620.0,5776605.0,5769869.0,5768525.0,5768318.0,5768407.0,5768577.0,5768590.0,5768332.0,5768221.0,5768144.0,5768179.0,5768207.0,5768390.0,5768458.0,5768425.0,5768502.0,5768640.0,5768694.0,5768695.0,5768771.0,5768842.0,5768867.0,5769261.0,5769540.0,5769613.0,5769037.0,5768971.0,5768941.0,5768922.0,5766964.0,5778731.0,5775173.0,5770307.0,5769219.0,5769065.0,5769104.0,5769070.0,5768911.0,5768916.0,5768671.0,5768762.0,5768860.0,5768906.020:26:20,5769390.0,5769359.0,5769247.0,5769218.0,5769357.0,5769331.0,5769521.0,5769921.0,5769936.0,5769453.0,5769486.0,5769325.0,5769486.0,5768206.0,5776013.0,5777238.0,5771108.0,5769671.0,5769586.0,5769454.0,5769463.0,5769434.0,5769117.0,5768927.0,5768795.0,5769012.0,5768868.0,5769060.0,5769234.0,5769261.0,5769360.0,5769377.0,5769411.0,5769518.0,5769481.0,5769460.0,5769372.0,5769442.0,5769841.0,5769994.0,5769754.0,5769535.0,5769199.0,5769223.0,5769174.0,5767157.0,5782530.0,5771615.0,5769757.0,5769425.0,5769416.0,5769398.0,5769455.0,5769454.0,5769314.0,5769208.0,5769209.0,5769156.0,5769062.0,5769406.0,5769555.0,5769619.0,5769536.0,5769543.0,5769608.0,5769508.0,5769524.0,5769371.0,5769462.0,5769781.0,5769761.0,5769910.0,5769534.0,5769362.0,5769442.0,5769441.0,5767403.0,5782776.0,5772631.0,5770136.0,5769557.0,5769381.0,5769393.0,5769339.0,5769158.0,5768929.0,5768692.0,5768702.0,5768476.0,5768391.0,5768598.0,5768566.0,5768661.0,5768758.0,5768748.0,5768602.0,5768463.0,5768454.0,5768278.0,5768440.020:26:22,5768578.0,5767459.0,5767385.0,5766901.0,5778972.0,5768556.0,5767740.0,5767551.0,5767544.0,5767468.0,5767413.0,5767187.0,5766858.0,5766665.0,5766742.0,5766514.0,5766644.0,5766728.0,5766945.0,5766916.0,5767003.0,5767020.0,5767017.0,5767028.0,5767124.0,5767368.0,5767750.0,5767644.0,5767072.0,5766880.0,5766802.0,5766817.0,5765318.0,5774260.0,5773962.0,5768354.0,5766938.0,5766716.0,5766900.0,5766763.0,5766664.0,5766524.0,5766272.0,5766290.0,5766365.0,5766533.0,5766850.0,5767105.0,5767022.0,5767172.0,5767169.0,5767158.0,5767079.0,5767149.0,5767160.0,5767369.0,5767675.0,5767655.0,5767162.0,5767036.0,5766921.0,5767069.0,5764813.0,5776765.0,5773264.0,5768663.0,5767653.0,5767636.0,5767697.0,5767638.0,5767495.0,5767331.0,5767093.0,5767094.0,5767086.0,5767099.0,5767419.0,5767536.0,5767677.0,5767634.0,5767650.0,5767613.0,5767781.0,5767787.0,5767934.0,5767838.0,5768101.0,5768576.0,5768405.0,5768007.0,5768019.0,5768020.0,5767977.0,5767290.0,5773623.0,5775841.0,5769919.0,5768257.0,5768285.0,5768250.020:26:24,5768313.0,5768044.0,5767938.0,5767980.0,5768255.0,5768326.0,5768318.0,5768258.0,5768254.0,5768239.0,5768154.0,5768114.0,5768063.0,5768103.0,5768186.0,5768369.0,5768582.0,5767890.0,5767834.0,5767540.0,5767443.0,5767227.0,5766927.0,5777945.0,5768382.0,5767114.0,5766744.0,5766622.0,5766514.0,5766364.0,5766073.0,5765859.0,5765559.0,5765639.0,5765520.0,5765612.0,5765709.0,5765608.0,5765571.0,5765453.0,5765297.0,5765169.0,5764872.0,5764807.0,5764426.0,5764166.0,5764238.0,5764273.0,5764044.0,5763270.0,5762891.0,5762716.0,5762759.0,5760385.0,5769583.0,5770118.0,5763470.0,5761853.0,5761435.0,5761224.0,5761105.0,5760764.0,5760429.0,5759893.0,5759718.0,5759608.0,5759537.0,5759675.0,5759649.0,5759502.0,5759390.0,5759454.0,5759141.0,5759060.0,5758884.0,5758772.0,5758695.0,5759021.0,5758972.0,5758963.0,5758200.0,5757746.0,5757685.0,5757681.0,5755339.0,5770371.0,5761249.0,5758329.0,5757621.0,5757466.0,5757441.0,5757400.0,5757162.0,5756979.0,5756872.0,5757022.0,5756992.0,5757075.0,5757387.0,5757545.020:26:26,5757609.0,5757582.0,5757624.0,5757526.0,5758138.0,5758278.0,5758409.0,5757814.0,5757616.0,5757592.0,5757719.0,5755463.0,5772270.0,5760400.0,5758133.0,5757845.0,5757684.0,5757757.0,5757757.0,5757612.0,5757409.0,5757203.0,5757314.0,5757461.0,5757625.0,5757954.0,5758083.0,5758191.0,5758214.0,5758305.0,5758290.0,5758302.0,5758332.0,5758395.0,5758328.0,5758732.0,5758959.0,5758509.0,5758354.0,5758450.0,5758498.0,5758488.0,5758296.0,5770844.0,5760319.0,5759532.0,5759283.0,5759432.0,5759407.0,5759531.0,5759466.0,5759242.0,5759144.0,5759295.0,5759446.0,5759815.0,5760123.0,5760145.0,5760377.0,5760547.0,5760612.0,5760621.0,5760804.0,5760810.0,5761146.0,5761593.0,5762028.0,5761732.0,5761720.0,5761594.0,5761608.0,5761774.0,5760235.0,5775539.0,5764669.0,5762715.0,5762539.0,5762612.0,5762665.0,5762666.0,5762823.0,5762585.0,5762681.0,5762892.0,5762895.0,5763306.0,5763555.0,5763808.0,5763981.0,5764074.0,5764203.0,5764361.0,5764291.0,5764436.0,5764443.0,5764960.0,5764977.0,5764519.0,5764265.0,5764111.020:26:28,5764048.0,5764785.0,5764211.0,5763991.0,5763830.0,5763748.0,5763416.0,5762911.0,5762475.0,5762383.0,5762182.0,5762387.0,5762538.0,5762587.0,5762633.0,5762611.0,5762594.0,5762382.0,5762302.0,5762111.0,5762580.0,5762735.0,5762200.0,5761727.0,5761684.0,5761756.0,5761477.0,5762620.0,5772958.0,5763585.0,5762400.0,5762445.0,5762526.0,5762666.0,5762838.0,5762798.0,5762800.0,5762676.0,5762808.0,5763027.0,5763591.0,5764126.0,5764179.0,5764510.0,5764743.0,5764837.0,5764887.0,5764943.0,5765343.0,5765540.0,5765633.0,5765231.0,5765108.0,5765222.0,5765253.0,5763180.0,5777086.0,5771019.0,5767009.0,5766041.0,5766056.0,5766166.0,5766262.0,5766141.0,5765997.0,5765886.0,5765880.0,5765859.0,5766055.0,5766334.0,5766524.0,5766564.0,5766714.0,5766790.0,5766882.0,5766836.0,5766919.0,5767165.0,5767333.0,5767254.0,5766771.0,5766555.0,5766437.0,5766533.0,5765102.0,5774774.0,5773175.0,5767989.0,5766610.0,5766568.0,5766570.0,5766387.0,5766368.0,5766190.0,5766041.0,5765993.0,5765894.0,5766056.0,5766379.0,5766553.020:26:31,5766532.0,5766311.0,5766367.0,5766509.0,5766846.0,5766847.0,5766476.0,5766383.0,5766443.0,5766583.0,5765388.0,5773549.0,5773866.0,5768277.0,5766833.0,5766758.0,5766831.0,5766748.0,5766798.0,5766577.0,5766437.0,5766447.0,5766423.0,5766318.0,5766505.0,5766878.0,5766871.0,5767072.0,5767071.0,5767176.0,5767286.0,5767313.0,5767471.0,5767957.0,5767761.0,5767644.0,5767311.0,5767359.0,5767362.0,5766257.0,5772539.0,5776133.0,5769388.0,5767851.0,5767730.0,5767795.0,5767858.0,5767912.0,5767799.0,5767509.0,5767646.0,5767630.0,5767747.0,5767994.0,5768193.0,5768224.0,5768420.0,5768504.0,5768510.0,5768433.0,5768496.0,5768906.0,5769213.0,5768838.0,5768296.0,5768314.0,5768292.0,5768233.0,5767091.0,5782372.0,5770120.0,5769042.0,5768910.0,5768811.0,5768846.0,5768805.0,5768585.0,5768349.0,5768206.0,5768221.0,5768149.0,5768332.0,5768562.0,5768633.0,5768700.0,5768703.0,5768877.0,5768829.0,5768809.0,5769062.0,5769343.0,5769596.0,5768999.0,5768715.0,5768754.0,5768844.0,5766595.0,5779940.0,5774050.0,5769931.020:26:33,5768998.0,5768746.0,5768474.0,5768440.0,5768394.0,5768219.0,5768552.0,5768695.0,5768710.0,5768870.0,5768967.0,5768983.0,5769165.0,5769019.0,5769195.0,5769699.0,5769448.0,5769114.0,5768990.0,5768934.0,5768927.0,5768747.0,5773254.0,5777304.0,5770732.0,5769159.0,5768905.0,5769005.0,5769051.0,5768956.0,5768958.0,5768706.0,5768766.0,5768772.0,5768601.0,5768778.0,5768976.0,5769037.0,5768911.0,5768923.0,5769009.0,5768943.0,5768865.0,5768719.0,5768711.0,5768950.0,5769233.0,5769030.0,5768679.0,5768511.0,5768568.0,5768539.0,5768307.0,5772030.0,5777323.0,5770672.0,5768946.0,5768865.0,5768742.0,5768772.0,5768851.0,5768691.0,5768557.0,5768546.0,5768508.0,5768225.0,5768305.0,5768529.0,5768485.0,5768409.0,5768558.0,5768676.0,5768708.0,5768596.0,5768625.0,5768639.0,5768718.0,5768786.0,5769025.0,5769346.0,5769160.0,5768787.0,5768619.0,5768688.0,5768622.0,5766971.0,5782210.0,5771229.0,5769111.0,5768714.0,5768664.0,5768808.0,5768809.0,5768653.0,5768612.0,5768596.0,5768650.0,5768666.0,5768489.0,5768730.020:26:35,5768946.0,5769074.0,5769012.0,5768996.0,5769030.0,5768983.0,5768904.0,5769520.0,5769585.0,5769208.0,5769005.0,5768769.0,5768674.0,5768735.0,5767586.0,5782542.0,5770549.0,5769235.0,5768880.0,5768893.0,5768938.0,5768930.0,5769048.0,5768878.0,5768867.0,5768945.0,5768834.0,5768844.0,5769065.0,5769145.0,5769101.0,5769196.0,5769187.0,5769262.0,5769116.0,5769131.0,5769045.0,5769069.0,5769071.0,5769060.0,5769092.0,5769106.0,5769081.0,5769187.0,5769687.0,5769925.0,5769411.0,5769296.0,5769220.0,5769293.0,5769193.0,5770007.0,5781337.0,5770719.0,5769596.0,5769423.0,5769349.0,5769360.0,5769270.0,5769068.0,5768944.0,5768885.0,5769095.0,5769119.0,5769081.0,5769419.0,5769535.0,5769443.0,5769496.0,5769499.0,5769631.0,5769638.0,5769634.0,5769540.0,5769513.0,5769612.0,5769481.0,5769665.0,5769418.0,5769383.0,5769480.0,5769551.0,5769816.0,5769924.0,5769549.0,5769347.0,5769447.0,5769388.0,5767555.0,5778757.0,5776064.0,5770766.0,5769500.0,5769280.0,5769256.0,5769127.0,5769023.0,5768962.0,5768689.0,5768567.020:26:37,5768702.0,5768431.0,5768268.0,5768340.0,5768146.0,5768074.0,5767952.0,5767833.0,5767739.0,5767647.0,5767559.0,5767600.0,5767584.0,5767980.0,5767832.0,5767199.0,5766953.0,5766797.0,5766730.0,5765655.0,5771496.0,5775443.0,5768122.0,5766523.0,5766266.0,5766283.0,5766162.0,5766016.0,5765792.0,5765626.0,5765481.0,5765551.0,5765428.0,5765528.0,5765533.0,5765744.0,5765643.0,5765653.0,5765595.0,5765506.0,5765143.0,5765480.0,5765420.0,5765264.0,5765208.0,5765129.0,5765214.0,5765436.0,5765559.0,5764974.0,5764921.0,5764815.0,5764760.0,5764588.0,5768384.0,5774262.0,5766708.0,5765099.0,5764963.0,5764967.0,5764870.0,5764817.0,5764655.0,5764441.0,5764266.0,5764277.0,5764319.0,5764372.0,5764584.0,5764604.0,5764564.0,5764588.0,5764615.0,5764805.0,5764646.0,5764768.0,5764832.0,5764798.0,5764770.0,5764833.0,5764812.0,5764836.0,5765239.0,5765395.0,5764898.0,5764733.0,5764649.0,5764684.0,5764480.0,5767515.0,5774444.0,5766533.0,5764914.0,5764975.0,5764900.0,5765058.0,5765029.0,5764850.0,5764576.0,5764350.020:26:39,5764490.0,5764871.0,5764975.0,5765078.0,5765234.0,5765221.0,5765314.0,5765278.0,5765302.0,5765259.0,5765320.0,5765378.0,5765414.0,5765676.0,5765764.0,5765714.0,5765316.0,5765160.0,5765227.0,5765101.0,5762947.0,5776409.0,5770165.0,5766448.0,5765595.0,5765612.0,5765715.0,5765933.0,5765766.0,5765671.0,5765394.0,5765306.0,5765458.0,5765485.0,5765747.0,5766011.0,5766039.0,5766143.0,5766130.0,5766147.0,5766057.0,5766181.0,5766147.0,5766201.0,5766258.0,5766271.0,5766789.0,5767013.0,5767146.0,5766715.0,5766547.0,5766535.0,5766596.0,5764332.0,5778421.0,5771075.0,5767730.0,5766856.0,5766838.0,5766893.0,5766894.0,5766796.0,5766548.0,5766377.0,5766484.0,5766528.0,5766558.0,5767054.0,5767300.0,5767394.0,5767347.0,5767522.0,5767444.0,5767452.0,5767462.0,5767442.0,5767532.0,5767457.0,5767587.0,5767967.0,5768146.0,5767989.0,5767553.0,5767371.0,5767408.0,5767594.0,5766012.0,5781825.0,5769458.0,5768151.0,5767901.0,5768052.0,5767861.0,5767765.0,5767624.0,5767451.0,5767154.0,5767055.0,5767163.0,5767321.020:26:41,5767667.0,5767980.0,5768038.0,5767987.0,5768092.0,5767987.0,5767995.0,5767988.0,5767991.0,5768069.0,5768342.0,5768675.0,5768277.0,5768135.0,5768052.0,5768051.0,5767937.0,5767628.0,5780165.0,5769617.0,5768615.0,5768472.0,5768466.0,5768463.0,5768324.0,5768106.0,5767911.0,5767745.0,5767736.0,5767746.0,5767893.0,5768180.0,5768400.0,5768429.0,5768483.0,5768564.0,5768611.0,5768720.0,5768733.0,5768847.0,5768814.0,5768938.0,5768850.0,5768872.0,5768970.0,5769456.0,5769579.0,5769237.0,5769070.0,5768758.0,5768739.0,5768691.0,5767686.0,5781539.0,5769945.0,5768969.0,5768694.0,5768713.0,5768777.0,5768794.0,5768747.0,5768490.0,5768225.0,5768034.0,5768065.0,5768224.0,5768719.0,5768727.0,5769153.0,5768936.0,5769007.0,5768922.0,5768925.0,5768824.0,5768681.0,5768864.0,5768813.0,5768728.0,5768917.0,5769311.0,5769695.0,5769231.0,5769138.0,5768826.0,5768754.0,5768632.0,5767639.0,5781136.0,5769700.0,5768755.0,5768451.0,5768256.0,5768128.0,5767982.0,5767645.0,5767245.0,5766814.0,5766744.0,5766793.0,5766974.020:26:44,5767399.0,5767230.0,5767029.0,5766998.0,5767088.0,5767005.0,5767078.0,5767079.0,5767274.0,5767346.0,5767783.0,5767923.0,5767620.0,5767394.0,5767364.0,5767538.0,5767293.0,5769562.0,5778172.0,5769518.0,5768036.0,5767866.0,5767831.0,5767685.0,5767718.0,5767549.0,5767354.0,5767149.0,5767435.0,5767629.0,5768013.0,5768367.0,5768538.0,5768622.0,5768653.0,5768783.0,5768883.0,5768842.0,5768948.0,5768902.0,5769017.0,5769064.0,5769012.0,5769227.0,5769702.0,5769676.0,5769354.0,5769348.0,5769436.0,5769434.0,5768357.0,5775260.0,5778481.0,5771549.0,5770112.0,5770046.0,5769797.0,5770086.0,5770114.0,5770058.0,5769726.0,5769449.0,5769559.0,5769714.0,5770050.0,5770236.0,5770433.0,5770636.0,5770688.0,5770742.0,5770770.0,5770797.0,5770828.0,5770770.0,5770649.0,5770697.0,5771086.0,5771279.0,5770720.0,5770468.0,5770303.0,5769996.0,5769958.0,5770900.0,5781069.0,5771383.0,5770083.0,5769893.0,5769907.0,5769665.0,5769650.0,5769336.0,5769040.0,5768768.0,5768670.0,5768684.0,5768760.0,5769013.0,5769078.0,5769071.020:26:46,5769061.0,5769077.0,5769124.0,5769123.0,5769075.0,5769309.0,5769722.0,5769837.0,5769534.0,5769372.0,5769494.0,5769698.0,5769590.0,5772795.0,5779970.0,5772064.0,5770529.0,5770462.0,5770483.0,5770631.0,5770288.0,5770472.0,5770288.0,5770086.0,5770091.0,5770062.0,5770411.0,5770879.0,5770942.0,5771089.0,5771025.0,5771129.0,5771114.0,5770893.0,5770825.0,5770771.0,5770663.0,5770653.0,5770668.0,5770601.0,5770830.0,5770974.0,5770953.0,5770516.0,5770288.0,5770239.0,5770162.0,5768075.0,5779501.0,5776747.0,5771239.0,5769994.0,5769935.0,5770019.0,5769685.0,5769503.0,5769228.0,5768808.0,5768689.0,5768582.0,5768760.0,5769086.0,5769462.0,5769675.0,5769836.0,5769820.0,5769973.0,5769833.0,5769714.0,5769638.0,5769780.0,5769651.0,5769573.0,5769649.0,5769834.0,5770119.0,5770109.0,5769493.0,5769428.0,5769312.0,5769443.0,5767714.0,5776590.0,5778150.0,5771084.0,5769638.0,5769490.0,5769386.0,5769268.0,5769083.0,5768886.0,5768536.0,5768157.0,5768112.0,5768256.0,5768554.0,5768641.0,5768689.0,5768673.0,5768682.020:26:48,5768742.0,5768713.0,5768689.0,5768470.0,5768674.0,5768644.0,5768602.0,5768910.0,5769222.0,5769005.0,5768612.0,5768626.0,5768579.0,5768671.0,5767368.0,5783967.0,5771225.0,5769439.0,5769096.0,5768964.0,5768901.0,5768940.0,5768681.0,5768405.0,5768128.0,5768174.0,5768017.0,5768183.0,5768644.0,5768852.0,5768922.0,5768935.0,5769028.0,5769055.0,5769068.0,5769170.0,5769041.0,5769076.0,5769104.0,5769162.0,5769106.0,5768955.0,5769131.0,5769363.0,5769358.0,5768952.0,5768742.0,5768725.0,5768734.0,5768253.0,5772718.0,5778163.0,5770493.0,5768827.0,5768641.0,5768612.0,5768640.0,5768588.0,5768491.0,5768142.0,5767967.0,5767972.0,5768008.0,5768188.0,5768410.0,5768671.0,5768614.0,5768741.0,5768707.0,5768659.0,5768812.0,5768664.0,5768694.0,5768695.0,5768606.0,5769073.0,5769290.0,5769425.0,5768898.0,5768809.0,5768784.0,5768869.0,5766564.0,5779256.0,5775092.0,5770099.0,5769020.0,5768977.0,5768981.0,5768888.0,5768913.0,5768520.0,5768347.0,5768229.0,5768384.0,5768404.0,5768834.0,5769118.0,5769300.0,5769448.020:26:50,5769596.0,5769413.0,5769301.0,5769762.0,5769895.0,5770042.0,5769543.0,5769345.0,5769343.0,5769484.0,5767464.0,5778818.0,5776188.0,5770963.0,5769779.0,5769682.0,5769609.0,5769612.0,5769626.0,5769328.0,5769010.0,5768857.0,5768867.0,5768921.0,5769367.0,5769613.0,5769695.0,5769760.0,5769950.0,5769973.0,5770048.0,5770057.0,5770059.0,5770111.0,5770294.0,5770514.0,5770486.0,5770088.0,5769862.0,5769870.0,5770014.0,5767951.0,5779381.0,5776321.0,5771174.0,5770079.0,5769977.0,5770137.0,5769959.0,5769899.0,5769826.0,5769529.0,5769509.0,5769489.0,5769637.0,5770011.0,5770210.0,5770351.0,5770451.0,5770369.0,5770509.0,5770560.0,5770539.0,5770560.0,5770533.0,5770725.0,5770931.0,5771101.0,5770591.0,5770434.0,5770453.0,5770624.0,5768379.0,5781277.0,5776584.0,5772092.0,5771160.0,5770963.0,5770990.0,5771026.0,5770865.0,5770775.0,5770597.0,5770482.0,5770522.0,5770498.0,5770800.0,5770972.0,5771069.0,5771193.0,5771323.0,5771496.0,5771615.0,5771604.0,5771629.0,5771754.0,5771670.0,5772107.0,5772518.0,5772148.020:26:52,5771899.0,5778212.0,5780710.0,5774055.0,5772735.0,5772656.0,5772845.0,5772862.0,5772750.0,5772680.0,5772611.0,5772412.0,5772483.0,5772582.0,5772919.0,5773048.0,5773235.0,5773353.0,5773630.0,5773663.0,5773862.0,5773955.0,5773870.0,5774097.0,5773860.0,5774243.0,5774593.0,5774704.0,5774136.0,5773974.0,5773906.0,5773976.0,5772135.0,5781308.0,5781450.0,5775509.0,5774098.0,5774059.0,5774119.0,5774163.0,5773977.0,5773877.0,5773722.0,5773636.0,5773769.0,5773680.0,5773951.0,5774160.0,5774199.0,5774296.0,5774359.0,5774345.0,5774371.0,5774251.0,5774213.0,5774222.0,5774063.0,5774051.0,5773930.0,5774038.0,5774413.0,5774702.0,5774310.0,5774041.0,5773986.0,5773942.0,5773952.0,5772493.0,5788293.0,5775690.0,5774159.0,5773747.0,5773794.0,5773816.0,5773651.0,5773488.0,5773213.0,5773015.0,5773042.0,5773063.0,5773100.0,5773357.0,5773441.0,5773555.0,5773696.0,5773803.0,5773798.0,5773786.0,5773620.0,5773609.0,5773534.0,5773404.0,5773494.0,5773449.0,5773446.0,5773502.0,5773391.0,5773680.0,5773762.0,5773692.020:26:54,5773302.0,5772269.0,5786804.0,5774953.0,5773664.0,5773454.0,5773499.0,5773458.0,5773497.0,5773356.0,5773486.0,5773195.0,5773434.0,5773561.0,5773651.0,5773828.0,5774018.0,5773983.0,5774041.0,5774176.0,5774422.0,5774350.0,5774243.0,5774474.0,5774457.0,5774423.0,5774516.0,5774592.0,5774698.0,5774595.0,5775022.0,5775324.0,5775487.0,5775012.0,5774961.0,5774682.0,5774948.0,5772668.0,5788427.0,5778405.0,5775659.0,5775126.0,5775115.0,5775251.0,5775226.0,5775073.0,5774865.0,5774668.0,5774766.0,5774755.0,5774736.0,5775049.0,5775268.0,5775332.0,5775514.0,5775606.0,5775630.0,5775606.0,5775572.0,5775560.0,5775541.0,5775614.0,5775465.0,5775830.0,5775878.0,5775966.0,5776092.0,5775538.0,5775200.0,5775211.0,5775319.0,5773225.0,5788703.0,5778637.0,5776195.0,5775635.0,5775703.0,5775618.0,5775621.0,5775552.0,5775271.0,5775100.0,5775174.0,5775101.0,5775050.0,5775318.0,5775429.0,5775348.0,5775421.0,5775443.0,5775460.0,5775504.0,5775588.0,5775417.0,5775450.0,5775475.0,5775524.0,5775478.0,5775422.0,5775402.020:26:57,5775722.0,5775105.0,5775173.0,5773404.0,5785119.0,5781322.0,5776264.0,5775130.0,5775063.0,5775117.0,5775021.0,5774906.0,5774626.0,5774441.0,5774281.0,5774508.0,5774478.0,5774688.0,5774999.0,5775074.0,5775184.0,5775174.0,5775194.0,5775164.0,5775117.0,5775154.0,5775023.0,5775111.0,5775121.0,5775133.0,5775248.0,5775145.0,5775697.0,5775791.0,5775276.0,5775224.0,5775142.0,5775128.0,5775099.0,5774899.0,5786975.0,5776696.0,5775733.0,5775460.0,5775564.0,5775657.0,5775581.0,5775526.0,5775353.0,5775205.0,5775302.0,5775252.0,5775313.0,5775514.0,5775567.0,5775583.0,5775768.0,5775709.0,5775703.0,5775987.0,5775914.0,5775968.0,5776051.0,5776066.0,5775918.0,5776442.0,5776568.0,5775993.0,5775706.0,5775609.0,5775408.0,5775173.0,5774835.0,5786723.0,5775943.0,5775055.0,5774794.0,5774758.0,5774654.0,5774423.0,5774308.0,5773868.0,5773701.0,5773665.0,5773381.0,5773375.0,5773544.0,5773302.0,5773204.0,5772965.0,5772848.0,5772608.0,5772420.0,5772091.0,5771926.0,5771691.0,5771522.0,5771759.0,5771466.0,5770809.020:26:59,5770592.0,5784297.0,5771373.0,5769784.0,5769533.0,5769308.0,5769423.0,5769305.0,5769227.0,5768978.0,5768858.0,5768901.0,5769014.0,5769000.0,5769372.0,5769584.0,5769449.0,5769687.0,5769683.0,5769638.0,5769762.0,5769696.0,5769711.0,5769638.0,5769736.0,5770190.0,5770088.0,5769773.0,5769596.0,5769753.0,5769828.0,5769535.0,5774562.0,5778406.0,5771888.0,5770093.0,5770033.0,5770082.0,5770072.0,5769894.0,5769743.0,5769469.0,5769285.0,5769388.0,5769217.0,5769287.0,5769603.0,5769521.0,5769602.0,5769521.0,5769546.0,5769529.0,5769502.0,5769431.0,5769420.0,5769452.0,5769714.0,5769485.0,5769102.0,5768918.0,5768759.0,5768650.0,5768478.0,5770571.0,5778185.0,5770097.0,5768560.0,5768367.0,5768210.0,5768097.0,5768005.0,5767830.0,5767471.0,5767489.0,5767581.0,5767409.0,5767439.0,5767552.0,5767458.0,5767511.0,5767473.0,5767614.0,5767344.0,5767495.0,5767341.0,5767154.0,5767203.0,5767432.0,5767378.0,5766910.0,5766692.0,5766575.0,5766647.0,5766296.0,5767713.0,5777153.0,5767700.0,5767009.0,5766625.0,5766562.020:27:01,5766663.0,5765915.0,5765956.0,5765852.0,5766152.0,5766260.0,5766279.0,5766256.0,5766319.0,5766247.0,5766370.0,5766142.0,5766109.0,5766033.0,5766459.0,5766383.0,5765798.0,5765733.0,5765493.0,5765449.0,5765319.0,5766806.0,5775867.0,5767071.0,5765759.0,5765548.0,5765605.0,5765588.0,5765486.0,5765300.0,5765141.0,5764889.0,5764868.0,5764838.0,5764786.0,5765040.0,5765139.0,5765167.0,5765111.0,5765138.0,5765169.0,5765091.0,5765148.0,5765032.0,5765091.0,5765576.0,5765886.0,5765751.0,5765290.0,5765028.0,5764981.0,5765056.0,5763107.0,5777656.0,5768218.0,5765735.0,5765189.0,5765156.0,5765081.0,5765152.0,5765010.0,5764923.0,5764677.0,5764855.0,5764848.0,5764829.0,5765328.0,5765484.0,5765571.0,5765640.0,5765740.0,5765806.0,5765856.0,5765717.0,5765771.0,5765931.0,5765809.0,5766001.0,5765984.0,5766220.0,5766377.0,5766477.0,5765926.0,5765781.0,5765948.0,5766030.0,5764143.0,5776670.0,5772089.0,5767434.0,5766683.0,5766538.0,5766581.0,5766539.0,5766472.0,5766296.0,5766308.0,5766318.0,5766228.0,5766063.020:27:03,5766394.0,5766916.0,5766930.0,5767051.0,5766902.0,5766846.0,5766991.0,5766988.0,5766894.0,5767395.0,5767629.0,5767417.0,5767215.0,5767054.0,5767142.0,5767229.0,5765931.0,5781559.0,5769854.0,5768085.0,5767803.0,5767877.0,5767864.0,5767869.0,5767847.0,5767728.0,5767439.0,5767634.0,5767632.0,5767598.0,5767938.0,5767939.0,5768042.0,5768152.0,5768398.0,5768459.0,5768506.0,5768442.0,5768610.0,5768594.0,5768696.0,5769218.0,5769358.0,5768849.0,5768670.0,5768505.0,5768452.0,5768305.0,5771780.0,5777867.0,5770592.0,5768939.0,5768773.0,5768879.0,5768799.0,5768725.0,5768615.0,5768541.0,5768628.0,5768391.0,5768264.0,5768614.0,5769067.0,5769045.0,5769217.0,5769346.0,5769536.0,5769558.0,5769510.0,5769587.0,5769496.0,5769897.0,5770073.0,5770339.0,5769587.0,5769344.0,5769227.0,5769333.0,5767467.0,5778716.0,5775374.0,5770975.0,5769877.0,5769819.0,5769868.0,5769861.0,5769866.0,5769640.0,5769288.0,5769258.0,5769286.0,5769209.0,5769547.0,5769671.0,5769665.0,5769781.0,5769738.0,5769876.0,5769927.0,5769819.020:27:05,5769748.0,5769882.0,5769730.0,5769652.0,5769576.0,5767577.0,5779449.0,5774312.0,5770639.0,5769670.0,5769570.0,5769480.0,5769459.0,5769319.0,5769204.0,5768927.0,5768764.0,5768556.0,5768473.0,5768637.0,5768485.0,5768360.0,5768111.0,5768096.0,5767913.0,5767660.0,5767265.0,5767129.0,5766766.0,5766422.0,5766612.0,5766526.0,5766458.0,5765710.0,5765354.0,5765070.0,5764956.0,5762721.0,5776119.0,5767390.0,5764702.0,5764126.0,5763760.0,5763532.0,5763340.0,5763049.0,5762633.0,5762344.0,5762113.0,5762040.0,5761903.0,5761847.0,5761954.0,5761876.0,5761805.0,5761653.0,5761700.0,5761497.0,5761452.0,5761443.0,5761288.0,5761263.0,5761610.0,5761866.0,5761312.0,5761234.0,5760936.0,5760831.0,5760952.0,5759723.0,5773937.0,5762449.0,5761327.0,5760940.0,5761002.0,5761033.0,5761311.0,5761199.0,5761101.0,5761252.0,5761240.0,5761160.0,5761240.0,5761421.0,5761627.0,5761675.0,5761794.0,5761746.0,5762006.0,5761862.0,5761837.0,5761990.0,5762046.0,5762029.0,5762565.0,5762484.0,5762110.0,5762010.0,5762000.0,5761961.020:27:07,5761675.0,5762147.0,5762243.0,5762255.0,5762379.0,5762272.0,5762138.0,5762024.0,5762081.0,5761981.0,5762053.0,5762120.0,5762444.0,5762483.0,5762535.0,5762613.0,5762475.0,5762436.0,5762389.0,5762218.0,5762512.0,5762645.0,5762759.0,5762035.0,5761867.0,5761744.0,5761886.0,5759667.0,5771460.0,5766923.0,5763187.0,5762066.0,5761930.0,5761823.0,5761934.0,5761778.0,5761488.0,5761190.0,5761229.0,5761103.0,5761142.0,5761331.0,5761439.0,5761574.0,5761554.0,5761550.0,5761547.0,5761617.0,5761469.0,5761522.0,5761973.0,5762133.0,5762334.0,5761660.0,5761322.0,5761227.0,5761331.0,5759210.0,5773035.0,5764421.0,5762018.0,5761510.0,5761443.0,5761552.0,5761444.0,5761316.0,5761006.0,5760892.0,5760992.0,5760950.0,5761045.0,5761389.0,5761598.0,5761643.0,5761756.0,5761676.0,5761687.0,5761686.0,5761586.0,5761475.0,5761979.0,5762422.0,5761668.0,5761462.0,5761309.0,5761225.0,5761238.0,5760603.0,5772548.0,5762158.0,5761723.0,5761577.0,5761610.0,5761777.0,5761691.0,5761534.0,5761401.0,5761067.0,5761105.0,5760965.020:27:10,5761034.0,5761327.0,5761028.0,5760761.0,5760716.0,5760777.0,5760692.0,5760830.0,5759961.0,5759333.0,5759221.0,5759202.0,5756538.0,5770004.0,5762519.0,5759337.0,5758614.0,5758282.0,5758278.0,5758239.0,5758033.0,5757935.0,5757414.0,5757150.0,5756824.0,5756829.0,5757353.0,5757647.0,5757822.0,5758154.0,5758515.0,5758415.0,5758733.0,5759487.0,5760312.0,5761102.0,5761007.0,5761301.0,5762027.0,5762527.0,5761663.0,5776562.0,5770741.0,5766605.0,5766192.0,5766677.0,5767442.0,5767696.0,5768229.0,5768181.0,5768526.0,5768231.0,5768338.0,5769114.0,5769757.0,5770241.0,5770574.0,5771043.0,5771343.0,5771382.0,5771983.0,5772776.0,5772340.0,5771166.0,5770874.0,5770628.0,5770468.0,5770547.0,5788677.0,5773153.0,5770641.0,5770153.0,5769925.0,5769800.0,5769513.0,5769445.0,5768743.0,5768095.0,5767528.0,5767291.0,5767832.0,5768016.0,5768011.0,5767971.0,5768103.0,5768067.0,5768319.0,5768972.0,5767676.0,5766410.0,5766085.0,5765672.0,5763880.0,5773030.0,5774992.0,5766521.0,5764468.0,5764027.0,5763888.0,5763778.020:27:12,5763394.0,5761036.0,5761491.0,5761603.0,5761741.0,5761894.0,5761754.0,5761542.0,5762102.0,5762662.0,5761345.0,5760267.0,5759873.0,5759558.0,5758438.0,5764719.0,5769661.0,5760812.0,5758891.0,5758562.0,5758427.0,5758162.0,5758022.0,5757763.0,5757220.0,5756626.0,5756400.0,5756483.0,5756953.0,5757098.0,5757173.0,5757277.0,5757161.0,5756759.0,5756723.0,5757128.0,5757129.0,5756029.0,5755429.0,5755220.0,5754759.0,5753672.0,5760655.0,5763352.0,5756200.0,5754247.0,5754042.0,5753788.0,5753844.0,5753480.0,5753314.0,5752786.0,5752535.0,5752122.0,5752176.0,5752568.0,5752601.0,5752611.0,5752822.0,5752654.0,5752654.0,5752396.0,5752465.0,5752747.0,5752727.0,5751856.0,5751625.0,5751531.0,5751425.0,5749765.0,5759557.0,5758380.0,5752815.0,5751495.0,5751266.0,5751142.0,5751149.0,5750960.0,5750755.0,5750537.0,5750121.0,5750391.0,5750458.0,5750940.0,5751290.0,5751381.0,5751420.0,5751620.0,5751446.0,5751544.0,5751535.0,5751771.0,5752633.0,5752196.0,5751645.0,5751167.0,5751082.0,5751183.0,5749996.0,5764311.020:27:14,5753262.0,5751328.0,5751263.0,5751143.0,5750708.0,5750461.0,5750590.0,5750611.0,5750961.0,5751419.0,5751611.0,5751447.0,5751469.0,5751405.0,5751501.0,5751299.0,5751401.0,5751989.0,5752682.0,5751730.0,5751306.0,5750938.0,5750999.0,5749106.0,5759634.0,5757029.0,5751808.0,5750744.0,5750644.0,5750534.0,5750380.0,5750362.0,5750119.0,5749685.0,5749290.0,5749191.0,5749294.0,5749786.0,5750146.0,5750418.0,5750591.0,5750575.0,5750663.0,5750438.0,5750274.0,5750321.0,5751007.0,5751328.0,5750255.0,5749640.0,5749343.0,5749257.0,5747451.0,5760699.0,5752971.0,5749538.0,5748672.0,5748529.0,5748586.0,5748564.0,5748125.0,5747934.0,5747514.0,5747071.0,5747025.0,5747362.0,5747830.0,5748120.0,5748214.0,5748369.0,5748278.0,5748178.0,5748006.0,5747769.0,5747587.0,5747780.0,5748581.0,5748562.0,5747735.0,5746996.0,5746934.0,5746967.0,5745472.0,5760670.0,5749459.0,5747153.0,5746722.0,5746571.0,5746558.0,5746518.0,5746204.0,5745923.0,5745418.0,5744983.0,5744894.0,5745392.0,5745870.0,5746193.0,5746409.0,5746371.020:27:16,5746551.0,5746287.0,5746207.0,5746196.0,5746832.0,5747546.0,5746780.0,5746078.0,5745809.0,5745775.0,5744860.0,5750994.0,5753562.0,5747337.0,5745646.0,5745415.0,5745333.0,5745322.0,5745067.0,5744722.0,5744290.0,5743668.0,5743450.0,5743617.0,5744190.0,5744757.0,5745128.0,5745158.0,5745253.0,5744919.0,5745217.0,5745212.0,5745219.0,5745085.0,5744933.0,5744878.0,5744901.0,5744868.0,5744728.0,5745132.0,5746093.0,5745595.0,5744927.0,5744353.0,5744226.0,5744024.0,5743888.0,5755131.0,5744814.0,5744189.0,5743943.0,5743903.0,5743889.0,5743806.0,5743646.0,5743169.0,5742669.0,5742481.0,5742582.0,5742882.0,5743422.0,5743951.0,5743852.0,5743998.0,5743981.0,5744003.0,5743922.0,5743826.0,5743866.0,5743795.0,5743704.0,5743692.0,5743808.0,5743890.0,5744127.0,5745047.0,5744845.0,5744349.0,5743796.0,5743542.0,5743452.0,5742854.0,5754741.0,5744250.0,5743653.0,5743650.0,5743537.0,5743521.0,5743352.0,5743254.0,5742864.0,5742383.0,5742082.0,5742112.0,5742531.0,5743396.0,5744074.0,5744201.0,5744293.0,5744330.020:27:18,5744208.0,5744252.0,5744739.0,5745508.0,5745828.0,5744978.0,5744514.0,5744340.0,5744311.0,5743295.0,5758565.0,5746258.0,5744676.0,5744406.0,5744478.0,5744316.0,5744423.0,5744275.0,5744007.0,5743369.0,5743080.0,5743108.0,5743634.0,5744351.0,5744893.0,5745316.0,5745389.0,5745546.0,5745559.0,5745620.0,5745761.0,5745680.0,5745721.0,5746198.0,5747368.0,5747305.0,5745990.0,5745539.0,5745427.0,5745305.0,5744856.0,5756466.0,5746165.0,5745466.0,5745277.0,5745366.0,5745477.0,5745469.0,5745353.0,5744870.0,5744463.0,5744058.0,5744171.0,5744637.0,5745374.0,5745901.0,5746079.0,5746121.0,5746242.0,5746164.0,5746120.0,5746212.0,5746193.0,5746175.0,5746088.0,5746131.0,5746683.0,5747968.0,5747329.0,5746638.0,5746359.0,5746442.0,5746371.0,5746310.0,5757828.0,5747516.0,5746725.0,5746693.0,5746716.0,5746529.0,5746572.0,5746365.0,5745948.0,5745331.0,5744873.0,5744981.0,5745345.0,5746231.0,5746736.0,5746805.0,5746803.0,5746818.0,5746690.0,5746551.0,5746319.0,5746053.0,5745891.0,5745653.0,5745677.0,5746182.020:27:20,5745615.0,5740485.0,5754398.0,5744664.0,5741788.0,5740842.0,5740644.0,5740078.0,5739472.0,5739139.0,5738576.0,5737768.0,5737349.0,5737360.0,5737614.0,5738495.0,5739341.0,5739816.0,5740088.0,5740486.0,5740929.0,5741286.0,5741850.0,5742364.0,5742941.0,5743973.0,5745328.0,5744927.0,5745049.0,5745297.0,5745929.0,5744611.0,5753554.0,5755405.0,5749622.0,5748888.0,5749361.0,5749851.0,5750316.0,5750621.0,5750646.0,5750766.0,5750743.0,5750861.0,5751277.0,5752067.0,5753254.0,5753980.0,5754402.0,5754629.0,5754962.0,5755187.0,5755609.0,5755830.0,5756710.0,5758034.0,5757953.0,5756805.0,5756841.0,5757022.0,5756589.0,5759652.0,5767238.0,5759032.0,5757903.0,5757854.0,5757847.0,5757901.0,5757804.0,5757794.0,5757341.0,5756826.0,5756721.0,5756984.0,5757819.0,5758598.0,5759048.0,5759204.0,5759246.0,5759147.0,5759089.0,5759031.0,5759609.0,5760780.0,5760476.0,5759047.0,5758706.0,5758528.0,5758285.0,5758216.0,5769203.0,5759401.0,5758612.0,5758568.0,5758377.0,5758394.0,5758202.0,5757816.0,5757209.0,5756615.020:27:23,5756176.0,5757964.0,5758140.0,5758114.0,5758058.0,5757959.0,5757947.0,5758466.0,5759267.0,5758538.0,5757492.0,5757094.0,5757030.0,5756775.0,5757296.0,5767009.0,5758007.0,5756745.0,5756574.0,5756502.0,5756413.0,5756158.0,5755921.0,5755323.0,5754582.0,5754340.0,5754637.0,5755000.0,5755703.0,5756100.0,5756109.0,5756210.0,5756219.0,5756041.0,5755923.0,5755756.0,5756262.0,5756710.0,5755806.0,5755369.0,5755085.0,5755057.0,5754658.0,5758533.0,5763944.0,5756706.0,5755181.0,5755279.0,5755242.0,5755089.0,5755078.0,5754596.0,5754034.0,5753483.0,5753348.0,5753536.0,5754165.0,5754738.0,5755152.0,5755304.0,5755441.0,5755306.0,5755368.0,5755304.0,5755366.0,5755683.0,5756234.0,5755990.0,5755565.0,5755550.0,5755603.0,5755643.0,5753383.0,5767199.0,5758462.0,5756235.0,5755764.0,5755601.0,5755458.0,5755483.0,5755161.0,5754606.0,5753947.0,5753630.0,5753522.0,5753818.0,5754422.0,5754966.0,5755186.0,5755081.0,5755035.0,5754885.0,5754865.0,5754629.0,5754906.0,5755227.0,5755069.0,5754317.0,5754005.0,5753942.020:27:25,5753791.0,5754035.0,5753947.0,5753849.0,5753826.0,5753777.0,5753381.0,5752948.0,5752482.0,5752409.0,5752643.0,5753284.0,5753897.0,5754348.0,5754690.0,5754809.0,5754813.0,5754945.0,5755009.0,5754997.0,5755496.0,5756151.0,5755926.0,5755632.0,5755469.0,5755544.0,5755646.0,5754353.0,5769778.0,5757570.0,5756643.0,5756650.0,5756673.0,5756938.0,5756999.0,5757001.0,5756562.0,5756389.0,5756211.0,5756474.0,5756967.0,5757693.0,5758394.0,5758681.0,5758702.0,5758719.0,5758579.0,5758754.0,5758753.0,5758936.0,5759112.0,5759741.0,5759462.0,5759019.0,5758940.0,5759005.0,5759024.0,5756928.0,5769997.0,5764216.0,5760716.0,5759975.0,5759910.0,5760094.0,5760078.0,5760193.0,5759867.0,5759596.0,5759483.0,5759659.0,5760243.0,5760880.0,5761844.0,5762283.0,5762828.0,5763325.0,5763571.0,5763775.0,5764126.0,5764665.0,5764973.0,5765385.0,5766166.0,5766373.0,5766277.0,5766520.0,5766646.0,5766849.0,5766729.0,5771962.0,5775304.0,5769519.0,5768509.0,5768847.0,5769180.0,5769411.0,5769656.0,5769492.0,5769173.0,5768986.020:27:27,5769106.0,5770940.0,5771129.0,5771249.0,5771584.0,5771695.0,5771821.0,5772007.0,5772088.0,5772414.0,5772499.0,5772122.0,5772037.0,5772227.0,5772281.0,5770074.0,5781086.0,5778306.0,5773402.0,5772568.0,5772392.0,5772550.0,5772571.0,5772310.0,5772012.0,5771837.0,5771454.0,5771487.0,5771582.0,5772034.0,5772608.0,5772708.0,5772937.0,5772808.0,5772607.0,5772457.0,5772523.0,5772422.0,5772396.0,5772835.0,5772456.0,5772086.0,5771839.0,5771685.0,5771615.0,5769648.0,5778156.0,5778937.0,5772824.0,5771640.0,5771495.0,5771285.0,5771059.0,5770813.0,5770289.0,5769670.0,5769210.0,5769196.0,5769313.0,5769793.0,5770217.0,5770221.0,5770459.0,5770126.0,5770014.0,5770017.0,5769905.0,5769865.0,5769859.0,5770116.0,5770141.0,5769576.0,5769280.0,5769050.0,5768956.0,5767980.0,5773967.0,5776011.0,5770083.0,5768543.0,5768411.0,5768083.0,5767892.0,5767757.0,5767297.0,5766553.0,5766123.0,5766192.0,5766485.0,5766737.0,5767237.0,5767415.0,5767433.0,5767376.0,5767245.0,5767084.0,5766944.0,5766870.0,5766903.0,5767190.020:27:29,5767095.0,5766323.0,5763791.0,5777450.0,5769161.0,5766526.0,5766142.0,5766086.0,5766066.0,5766021.0,5765612.0,5765328.0,5764582.0,5764150.0,5764336.0,5764441.0,5765144.0,5765409.0,5765502.0,5765617.0,5765823.0,5765647.0,5765554.0,5765505.0,5765566.0,5765376.0,5765568.0,5765821.0,5766113.0,5765545.0,5765231.0,5765282.0,5765205.0,5764938.0,5765901.0,5775124.0,5766316.0,5765390.0,5765272.0,5765202.0,5765290.0,5765396.0,5765104.0,5764719.0,5764286.0,5764196.0,5764360.0,5764679.0,5765140.0,5765507.0,5765617.0,5765731.0,5765645.0,5765740.0,5765696.0,5765616.0,5765701.0,5765731.0,5766200.0,5766594.0,5766079.0,5765804.0,5765955.0,5765948.0,5765644.0,5766878.0,5776374.0,5766994.0,5766387.0,5766126.0,5766113.0,5766228.0,5766065.0,5765885.0,5765470.0,5764981.0,5764902.0,5765041.0,5765337.0,5765952.0,5766335.0,5766336.0,5766504.0,5766539.0,5766644.0,5766550.0,5766534.0,5766521.0,5766894.0,5766960.0,5767113.0,5766467.0,5766291.0,5766128.0,5766244.0,5763990.0,5778594.0,5769041.0,5766589.0,5766166.020:27:31,5766177.0,5765382.0,5764868.0,5764651.0,5764855.0,5765177.0,5765710.0,5765866.0,5766051.0,5766169.0,5766234.0,5766114.0,5766144.0,5766216.0,5766169.0,5766332.0,5766784.0,5766575.0,5766235.0,5766116.0,5766057.0,5765942.0,5765286.0,5770081.0,5774382.0,5767701.0,5765974.0,5765950.0,5765896.0,5765812.0,5765757.0,5765433.0,5764980.0,5764660.0,5764693.0,5764799.0,5765238.0,5765881.0,5766050.0,5766134.0,5766333.0,5766334.0,5766367.0,5766379.0,5766504.0,5766520.0,5766648.0,5767198.0,5767340.0,5767000.0,5766916.0,5766881.0,5767116.0,5766931.0,5771539.0,5776546.0,5769726.0,5768522.0,5768467.0,5768797.0,5768908.0,5768941.0,5768871.0,5768533.0,5768340.0,5768467.0,5768646.0,5769125.0,5769763.0,5770061.0,5770162.0,5770390.0,5770384.0,5770624.0,5770645.0,5770689.0,5770843.0,5771408.0,5771549.0,5771666.0,5771261.0,5771067.0,5771105.0,5771065.0,5768762.0,5781540.0,5775958.0,5772201.0,5771325.0,5771364.0,5771365.0,5771228.0,5771022.0,5770713.0,5770318.0,5770094.0,5770432.0,5770569.0,5771181.0,5771558.020:27:33,5771745.0,5771487.0,5771637.0,5771838.0,5772189.0,5772305.0,5771688.0,5771444.0,5771359.0,5771283.0,5768934.0,5782823.0,5774589.0,5771737.0,5771300.0,5771184.0,5771237.0,5771012.0,5770941.0,5770519.0,5770137.0,5770218.0,5770195.0,5770399.0,5771013.0,5771446.0,5771596.0,5771527.0,5771576.0,5771452.0,5771366.0,5771177.0,5771225.0,5771628.0,5771870.0,5771233.0,5770817.0,5770646.0,5770563.0,5770359.0,5769981.0,5781118.0,5771478.0,5770625.0,5770553.0,5770388.0,5770574.0,5770297.0,5770385.0,5769910.0,5769525.0,5769675.0,5769756.0,5770005.0,5770541.0,5770849.0,5771111.0,5771206.0,5771221.0,5771169.0,5771099.0,5771055.0,5771347.0,5771559.0,5771727.0,5771109.0,5770987.0,5771107.0,5771216.0,5769117.0,5781514.0,5775337.0,5772295.0,5771534.0,5771498.0,5771474.0,5771534.0,5771548.0,5771259.0,5770915.0,5770717.0,5770717.0,5770694.0,5771369.0,5771701.0,5772104.0,5772173.0,5772319.0,5772588.0,5772579.0,5772658.0,5772975.0,5773365.0,5773325.0,5772949.0,5772683.0,5772684.0,5772674.0,5771369.0,5779367.020:27:36,5780637.0,5772984.0,5772889.0,5772800.0,5772285.0,5771852.0,5771781.0,5771828.0,5771828.0,5772279.0,5772451.0,5772473.0,5772507.0,5772424.0,5772309.0,5772151.0,5771975.0,5772316.0,5772402.0,5772456.0,5771656.0,5771395.0,5771162.0,5771066.0,5768816.0,5780539.0,5776065.0,5771641.0,5770680.0,5770575.0,5770462.0,5770280.0,5769959.0,5769533.0,5769020.0,5768853.0,5768979.0,5769095.0,5769624.0,5770126.0,5770348.0,5770616.0,5770577.0,5770626.0,5770606.0,5770650.0,5770599.0,5770547.0,5770502.0,5771145.0,5771223.0,5770693.0,5770541.0,5770432.0,5770395.0,5770364.0,5773393.0,5779826.0,5772429.0,5770812.0,5770914.0,5770947.0,5770818.0,5770912.0,5770766.0,5770348.0,5770104.0,5770101.0,5770297.0,5770758.0,5771185.0,5771437.0,5771533.0,5771740.0,5771723.0,5771645.0,5771712.0,5771724.0,5771822.0,5771741.0,5771876.0,5772022.0,5772683.0,5772956.0,5772510.0,5772377.0,5772358.0,5772538.0,5772253.0,5774091.0,5782016.0,5774469.0,5773017.0,5772934.0,5772866.0,5772873.0,5772734.0,5772602.0,5772330.0,5772183.020:27:38,5772122.0,5773603.0,5773686.0,5773714.0,5773791.0,5773748.0,5773809.0,5773889.0,5774036.0,5774192.0,5774129.0,5774386.0,5774763.0,5774770.0,5774312.0,5774334.0,5774309.0,5774243.0,5773285.0,5779521.0,5782938.0,5776002.0,5774543.0,5774539.0,5774579.0,5774551.0,5774562.0,5774413.0,5774125.0,5773881.0,5774032.0,5774236.0,5774523.0,5775153.0,5775346.0,5775384.0,5775497.0,5775542.0,5775465.0,5775411.0,5775472.0,5775466.0,5775452.0,5775449.0,5775935.0,5776133.0,5776378.0,5775619.0,5775342.0,5775371.0,5775453.0,5773573.0,5788635.0,5778424.0,5776175.0,5775701.0,5775775.0,5775742.0,5775640.0,5775573.0,5775151.0,5774761.0,5774665.0,5774878.0,5774827.0,5775260.0,5775436.0,5775584.0,5775623.0,5775698.0,5775680.0,5775704.0,5775757.0,5775730.0,5775848.0,5775899.0,5776215.0,5776258.0,5776314.0,5775793.0,5775478.0,5775532.0,5775390.0,5773288.0,5786491.0,5779599.0,5775927.0,5775276.0,5775218.0,5775134.0,5775123.0,5775073.0,5774815.0,5774548.0,5774443.0,5774492.0,5774644.0,5774866.0,5775082.0,5775125.020:27:40,5775144.0,5774844.0,5774823.0,5774845.0,5775332.0,5775490.0,5775567.0,5775044.0,5774851.0,5774638.0,5774684.0,5772645.0,5787459.0,5777096.0,5775017.0,5774524.0,5774502.0,5774490.0,5774386.0,5774160.0,5773957.0,5773576.0,5773454.0,5773468.0,5773769.0,5774116.0,5774368.0,5774427.0,5774633.0,5774672.0,5774681.0,5774575.0,5774548.0,5774548.0,5774458.0,5774384.0,5774603.0,5774878.0,5774905.0,5774431.0,5774258.0,5774056.0,5774103.0,5773031.0,5780103.0,5782217.0,5775707.0,5774632.0,5774658.0,5774653.0,5774683.0,5774512.0,5774499.0,5774190.0,5774039.0,5774012.0,5773899.0,5774110.0,5774468.0,5774602.0,5774643.0,5774764.0,5774567.0,5774603.0,5774713.0,5774552.0,5774646.0,5774661.0,5775058.0,5775350.0,5775581.0,5775009.0,5774723.0,5774653.0,5774652.0,5772692.0,5785621.0,5780018.0,5775704.0,5774649.0,5774715.0,5774570.0,5774474.0,5774342.0,5774100.0,5773887.0,5773760.0,5773936.0,5774217.0,5774297.0,5774539.0,5774574.0,