20:23:25,3967091.0,3965336.0,3971122.0,3987239.0,3967912.0,3966924.0,3966883.0,3967254.0,3967849.0,3968070.0,3968564.0,3969471.0,3969688.0,3969598.0,3968550.0,3967400.0,3966421.0,3966166.0,3966284.0,3966337.0,3966394.0,3966258.0,3966022.0,3965743.0,3965859.0,3965575.0,3965516.0,3965395.0,3965593.0,3966065.0,3965665.0,3965129.0,3965281.0,3965107.0,3963316.0,3975987.0,3980057.0,3966350.0,3965457.0,3965694.0,3965814.0,3966169.0,3966797.0,3967455.0,3967950.0,3968366.0,3967907.0,3966691.0,3965471.0,3964693.0,3964626.0,3964647.0,3964684.0,3964882.0,3964882.0,3964745.0,3964369.0,3964427.0,3964518.0,3964251.0,3964815.0,3964831.0,3964561.0,3964210.0,3964277.0,3964061.0,3963996.0,3993011.0,3966740.0,3965148.0,3965114.0,3965439.0,3965923.0,3966329.0,3967006.0,3967891.0,3968296.0,3968171.0,3967875.0,3966081.0,3965141.0,3964796.0,3964746.0,3965482.0,3965384.0,3965362.0,3965166.0,3965280.0,3965358.0,3965116.0,3965178.0,3965101.0,3965302.0,3965984.0,3965567.0,3965177.0,3965243.0,3965278.0,3961923.0,3984167.020:23:26,3967584.0,3967249.0,3967782.0,3968434.0,3969542.0,3969865.0,3969631.0,3968997.0,3967781.0,3966860.0,3966258.0,3966466.0,3966752.0,3966967.0,3967050.0,3967120.0,3967037.0,3966928.0,3967062.0,3966989.0,3966966.0,3967061.0,3967526.0,3967558.0,3967124.0,3966848.0,3966990.0,3966365.0,3968060.0,3992660.0,3968815.0,3967463.0,3967377.0,3967722.0,3967929.0,3968556.0,3969097.0,3969862.0,3970436.0,3970275.0,3969721.0,3968609.0,3967270.0,3967117.0,3966983.0,3966936.0,3967044.0,3967117.0,3967779.0,3966695.0,3966571.0,3966713.0,3966589.0,3966526.0,3966690.0,3966935.0,3966578.0,3966419.0,3965980.0,3966133.0,3965033.0,3994098.0,3968664.0,3967458.0,3967073.0,3967017.0,3967562.0,3968117.0,3968613.0,3969289.0,3969710.0,3969651.0,3968953.0,3967716.0,3966524.0,3965987.0,3966047.0,3966201.0,3966313.0,3966449.0,3966388.0,3966448.0,3966291.0,3966190.0,3966158.0,3966419.0,3966945.0,3966480.0,3965950.0,3965960.0,3966089.0,3964139.0,3994611.0,3968544.0,3967111.0,3966762.0,3967110.0,3967899.0,3968081.0,3968935.020:23:29,3969761.0,3968095.0,3967282.0,3967361.0,3967661.0,3967932.0,3968229.0,3968572.0,3968469.0,3968760.0,3968932.0,3969358.0,3969830.0,3971262.0,3970363.0,3970131.0,3970607.0,3970743.0,3969369.0,3998153.0,3974441.0,3973207.0,3973316.0,3974027.0,3974614.0,3975520.0,3976442.0,3977390.0,3978253.0,3978549.0,3978374.0,3977494.0,3976789.0,3976786.0,3977245.0,3977688.0,3978153.0,3978553.0,3978821.0,3978834.0,3979114.0,3979190.0,3979857.0,3980181.0,3980128.0,3979924.0,3980101.0,3980300.0,3979678.0,4008086.0,3982838.0,3981898.0,3981843.0,3982191.0,3982706.0,3983582.0,3984183.0,3984952.0,3985718.0,3985826.0,3985226.0,3984245.0,3983772.0,3983134.0,3983315.0,3983685.0,3983774.0,3983949.0,3983901.0,3983761.0,3983781.0,3983827.0,3984676.0,3984337.0,3984079.0,3984213.0,3984116.0,3981172.0,4000797.0,3987741.0,3986070.0,3985416.0,3985682.0,3986276.0,3986787.0,3987580.0,3988332.0,3989148.0,3989045.0,3988769.0,3987847.0,3986755.0,3986084.0,3986458.0,3986623.0,3987076.0,3987039.0,3987033.0,3987229.0,3987268.020:23:31,3988123.0,3987419.0,3984363.0,4007085.0,3989334.0,3989593.0,3988946.0,3989421.0,3989804.0,3990439.0,3991185.0,3992005.0,3992775.0,3992585.0,3992290.0,3991243.0,3990557.0,3989750.0,3989995.0,3990251.0,3990717.0,3990758.0,3991252.0,3990434.0,3991559.0,3991207.0,3990529.0,3991334.0,3990683.0,3988200.0,4002931.0,4001793.0,3992655.0,3991643.0,3991707.0,3992176.0,3992754.0,3993298.0,3993891.0,3994470.0,3994617.0,3994183.0,3993320.0,3992238.0,3991820.0,3991778.0,3992108.0,3992358.0,3992496.0,3992625.0,3992475.0,3992339.0,3993304.0,3992919.0,3992497.0,3992430.0,3992552.0,3990008.0,4005366.0,4002167.0,3994747.0,3994097.0,3994223.0,3994680.0,3995259.0,3995882.0,3996756.0,3997383.0,3997625.0,3997439.0,3996810.0,3996552.0,3995422.0,3995571.0,3995829.0,3996000.0,3996378.0,3996114.0,3995958.0,3995862.0,3996829.0,3996408.0,3995857.0,3995886.0,3995986.0,3994151.0,4006080.0,4008575.0,3997904.0,3997123.0,3997252.0,3997795.0,3998170.0,3998626.0,3999312.0,3999792.0,3999863.0,3999458.0,3998837.0,3997899.020:23:33,3997393.0,3998835.0,3998383.0,3998787.0,3999217.0,3998799.0,3998686.0,3999003.0,3998631.0,4002448.0,4023504.0,4001370.0,4000700.0,4000918.0,4001574.0,4002268.0,4002723.0,4003554.0,4004182.0,4004570.0,4004265.0,4003722.0,4002976.0,4002231.0,4002327.0,4002493.0,4002808.0,4003003.0,4002895.0,4002907.0,4003382.0,4003391.0,4002541.0,4002473.0,4002520.0,4000227.0,4028836.0,4005627.0,4004574.0,4004493.0,4004984.0,4005426.0,4005959.0,4006604.0,4007128.0,4007403.0,4007177.0,4006615.0,4005956.0,4005036.0,4005039.0,4005265.0,4005609.0,4005505.0,4005523.0,4005540.0,4005532.0,4006086.0,4005586.0,4005234.0,4005274.0,4005380.0,4003330.0,4032887.0,4007382.0,4005999.0,4005733.0,4005880.0,4006130.0,4006472.0,4006697.0,4007099.0,4007256.0,4006897.0,4006356.0,4006140.0,4004607.0,4004448.0,4004555.0,4004692.0,4005320.0,4004647.0,4004407.0,4004149.0,4003874.0,4003944.0,4004065.0,4003961.0,4003287.0,4003133.0,4002965.0,4002292.0,4005976.0,4028395.0,4004226.0,4003386.0,4003192.0,4003434.0,4003735.0,4003981.020:23:35,4004360.0,4004166.0,4002881.0,4002557.0,4002473.0,4002643.0,4002792.0,4002692.0,4002511.0,4002317.0,4002189.0,4002191.0,4001847.0,4001719.0,4001409.0,4001781.0,4001761.0,4001131.0,4000853.0,4000534.0,3999040.0,4007244.0,4016673.0,4001426.0,4000508.0,4000371.0,4000350.0,4000641.0,4000799.0,4001045.0,4001289.0,4000994.0,4000483.0,3999866.0,3999419.0,3998843.0,3998586.0,3998573.0,3998522.0,3998352.0,3998518.0,3997897.0,3997634.0,3997323.0,3997130.0,3997673.0,3997108.0,3997290.0,3996754.0,3996253.0,3996271.0,3995718.0,3998486.0,4020050.0,3997486.0,3996498.0,3996236.0,3996293.0,3996544.0,3996949.0,3997131.0,3997452.0,3997362.0,3996757.0,3996103.0,3995662.0,3994984.0,3994805.0,3994986.0,3995293.0,3995184.0,3995210.0,3994816.0,3994686.0,3994612.0,3994700.0,3994647.0,3995353.0,3994644.0,3994195.0,3994146.0,3993993.0,3993589.0,4022458.0,3996401.0,3994663.0,3994508.0,3994785.0,3994993.0,3995756.0,3995753.0,3996071.0,3995967.0,3995479.0,3994977.0,3994541.0,3993979.0,3993830.0,3994138.0,3994322.020:23:37,3994281.0,3993442.0,3993333.0,3993688.0,3994041.0,3993346.0,3993253.0,3993206.0,3992777.0,3995364.0,4018515.0,3994654.0,3993849.0,3993731.0,3993999.0,3994453.0,3994616.0,3995000.0,3995217.0,3995085.0,3994541.0,3994005.0,3993719.0,3993407.0,3993513.0,3993715.0,3994083.0,3994156.0,3994195.0,3994094.0,3994035.0,3994066.0,3994058.0,3994243.0,3994481.0,3995266.0,3994750.0,3994737.0,3994849.0,3994994.0,3995799.0,4020911.0,3997339.0,3996664.0,3996803.0,3997146.0,3997755.0,3998282.0,3998811.0,3999271.0,3999270.0,3998895.0,3998597.0,3998495.0,3998958.0,3998476.0,3998671.0,3998983.0,3999201.0,3999563.0,3999118.0,3998998.0,3998828.0,3999055.0,3998963.0,3999665.0,3999440.0,3999037.0,3999068.0,3999244.0,3996174.0,4012536.0,4003056.0,4000154.0,3999630.0,3999962.0,4000129.0,4000481.0,4000920.0,4001211.0,4001390.0,4000824.0,4000230.0,3999966.0,3999938.0,3999672.0,3999959.0,4000161.0,4000364.0,4000421.0,4000217.0,4000087.0,3999991.0,3999917.0,3999960.0,4000554.0,4000177.0,3999596.0,4000473.0,3999593.020:23:39,3998853.0,4000047.0,4000405.0,4000645.0,4000998.0,4001264.0,4001174.0,4000568.0,3999806.0,3999428.0,3999024.0,3998891.0,3998964.0,3999136.0,3999678.0,3999072.0,3998761.0,3998602.0,3998450.0,3998566.0,3998828.0,3998360.0,3997754.0,3997703.0,3997512.0,3994164.0,4014639.0,3998956.0,3998270.0,3997710.0,3997759.0,3997873.0,3998037.0,3998375.0,3998498.0,3998521.0,3997953.0,3997325.0,3997133.0,3997008.0,3997040.0,3997379.0,3997525.0,3997669.0,3997613.0,3997513.0,3997458.0,3997356.0,3997414.0,3997563.0,3997472.0,3998568.0,3998049.0,3997707.0,3997807.0,3997830.0,3996896.0,4024707.0,4000794.0,3999268.0,3999302.0,3999779.0,4000109.0,4000962.0,4000936.0,4001222.0,4001114.0,4000464.0,4000101.0,3999957.0,3999888.0,4000076.0,4000290.0,4000571.0,4000537.0,4000400.0,4000433.0,4000355.0,4000265.0,4000239.0,4000348.0,4001106.0,4000858.0,4000404.0,4000299.0,4000283.0,3997114.0,4014248.0,4003940.0,4001368.0,4000734.0,4000686.0,4000886.0,4001161.0,4001339.0,4001429.0,4001513.0,4000688.0,3999965.0,3999679.020:23:42,3999479.0,3999353.0,3999203.0,3998895.0,3998755.0,3998560.0,3998358.0,3998279.0,3999115.0,3998534.0,3997981.0,3997686.0,3997684.0,3994328.0,4013941.0,3998286.0,3998093.0,3997473.0,3997484.0,3997713.0,3997917.0,3998133.0,3998288.0,3998627.0,3997246.0,3996595.0,3996180.0,3995973.0,3996002.0,3996071.0,3996108.0,3995920.0,3995849.0,3995482.0,3995109.0,3994884.0,3994742.0,3994576.0,3995182.0,3994660.0,3994066.0,3993955.0,3993874.0,3990331.0,4010876.0,3996540.0,3994694.0,3994081.0,3994118.0,3994455.0,3994731.0,3995175.0,3995415.0,3995343.0,3994589.0,3993751.0,3993428.0,3993166.0,3993086.0,3993296.0,3993420.0,3993454.0,3993295.0,3993001.0,3992729.0,3992688.0,3992514.0,3992811.0,3993053.0,3993087.0,3992414.0,3992245.0,3992488.0,3990985.0,3997656.0,4011342.0,3993638.0,3992832.0,3992725.0,3992951.0,3993358.0,3993644.0,3994015.0,3994053.0,3993577.0,3992763.0,3992271.0,3991959.0,3991943.0,3992132.0,3992364.0,3992383.0,3992524.0,3992431.0,3992306.0,3992142.0,3992004.0,3991897.0,3991892.0,3991740.020:23:44,3991826.0,3991667.0,3991309.0,3993572.0,4015190.0,3993163.0,3992321.0,3992304.0,3992571.0,3992814.0,3993103.0,3993443.0,3993550.0,3993192.0,3992488.0,3991797.0,3991584.0,3991556.0,3991687.0,3991835.0,3991939.0,3991840.0,3991754.0,3991592.0,3991346.0,3991231.0,3991023.0,3990902.0,3990807.0,3990584.0,3990662.0,3991175.0,3990766.0,3990240.0,3989932.0,3989855.0,3986956.0,4009534.0,3991133.0,3990534.0,3989946.0,3990159.0,3990490.0,3990686.0,3991097.0,3991392.0,3991185.0,3990519.0,3989755.0,3989244.0,3989034.0,3988865.0,3988824.0,3988977.0,3989048.0,3988790.0,3988632.0,3988308.0,3988157.0,3987817.0,3987763.0,3987618.0,3987509.0,3988290.0,3988012.0,3987440.0,3987233.0,3987194.0,3986334.0,3992048.0,4004457.0,3988001.0,3987479.0,3987452.0,3987605.0,3987967.0,3988250.0,3988792.0,3988745.0,3988381.0,3987488.0,3987493.0,3986694.0,3986638.0,3986594.0,3986890.0,3987271.0,3987239.0,3986920.0,3986769.0,3986686.0,3986705.0,3986604.0,3986425.0,3987146.0,3987006.0,3986524.0,3986201.0,3986255.0,3984274.020:23:46,3994176.0,3987298.0,3987666.0,3988142.0,3988607.0,3988936.0,3988586.0,3987948.0,3987358.0,3986939.0,3986469.0,3986724.0,3986869.0,3987090.0,3987181.0,3987025.0,3986832.0,3986726.0,3986583.0,3986503.0,3986584.0,3987224.0,3987123.0,3986551.0,3986457.0,3986560.0,3985857.0,3993432.0,4003746.0,3988327.0,3987476.0,3987670.0,3987866.0,3988124.0,3988632.0,3989005.0,3989265.0,3988969.0,3988229.0,3987712.0,3987190.0,3986964.0,3987173.0,3987283.0,3987436.0,3987402.0,3987280.0,3987188.0,3986989.0,3986971.0,3986934.0,3986936.0,3987449.0,3986879.0,3986472.0,3986319.0,3986272.0,3984030.0,4008920.0,3988062.0,3986876.0,3986478.0,3986716.0,3986950.0,3987389.0,3987764.0,3988040.0,3987978.0,3987472.0,3986799.0,3986311.0,3985606.0,3985684.0,3985661.0,3985906.0,3986138.0,3985888.0,3985332.0,3985125.0,3984980.0,3984903.0,3984847.0,3985400.0,3985096.0,3984479.0,3984362.0,3984157.0,3981040.0,3999706.0,3986110.0,3985199.0,3984687.0,3984778.0,3985134.0,3985646.0,3985935.0,3986358.0,3986321.0,3985792.0,3985023.020:23:48,3984572.0,3984096.0,3984114.0,3984015.0,3983814.0,3983551.0,3983472.0,3983433.0,3984190.0,3983981.0,3983314.0,3983209.0,3983275.0,3981859.0,3990113.0,4002022.0,3984723.0,3983955.0,3984004.0,3984452.0,3984798.0,3985303.0,3985797.0,3986098.0,3985820.0,3985010.0,3984508.0,3983845.0,3983486.0,3983614.0,3983844.0,3984058.0,3984086.0,3983960.0,3983790.0,3983895.0,3983655.0,3983952.0,3984449.0,3984036.0,3984143.0,3983542.0,3983757.0,3980431.0,4004274.0,3985827.0,3984758.0,3984395.0,3984650.0,3985021.0,3985499.0,3985862.0,3986354.0,3986499.0,3986059.0,3985430.0,3984795.0,3984181.0,3984102.0,3984394.0,3984670.0,3984808.0,3984862.0,3984773.0,3984687.0,3984617.0,3984495.0,3984552.0,3984922.0,3985086.0,3984772.0,3984397.0,3984354.0,3984123.0,3985536.0,4009276.0,3986021.0,3985077.0,3985015.0,3986231.0,3985570.0,3986117.0,3986621.0,3986809.0,3987227.0,3986132.0,3985609.0,3984891.0,3984278.0,3984371.0,3984363.0,3984522.0,3984472.0,3984288.0,3984053.0,3983920.0,3983675.0,3983539.0,3983457.0,3984133.020:23:50,3983650.0,3987675.0,4000526.0,3983912.0,3983317.0,3983483.0,3983702.0,3984001.0,3984568.0,3984991.0,3985241.0,3985095.0,3984414.0,3983585.0,3983088.0,3982326.0,3982336.0,3982720.0,3982690.0,3982713.0,3982475.0,3982269.0,3982075.0,3982038.0,3981985.0,3982150.0,3982519.0,3982138.0,3981718.0,3981675.0,3981665.0,3979892.0,4008689.0,3984162.0,3982784.0,3982528.0,3982881.0,3983240.0,3983687.0,3984545.0,3984726.0,3984727.0,3984217.0,3983649.0,3983686.0,3982241.0,3982015.0,3982259.0,3982459.0,3982730.0,3982547.0,3982347.0,3982357.0,3982261.0,3982313.0,3982305.0,3982947.0,3982832.0,3982261.0,3982234.0,3982070.0,3979881.0,3993360.0,3996404.0,3983730.0,3982847.0,3982897.0,3983320.0,3983673.0,3984259.0,3984669.0,3985075.0,3984820.0,3984243.0,3983756.0,3983006.0,3982689.0,3982738.0,3983004.0,3983213.0,3983132.0,3983005.0,3982902.0,3982875.0,3982802.0,3982722.0,3982653.0,3982737.0,3984034.0,3983270.0,3982720.0,3982666.0,3982704.0,3981089.0,3992123.0,3996349.0,3984492.0,3983645.0,3983763.0,3984075.020:23:52,3984448.0,3985298.0,3984810.0,3984291.0,3984418.0,3983497.0,3983737.0,3984029.0,3984067.0,3984012.0,3983923.0,3983973.0,3983770.0,3983892.0,3983846.0,3983766.0,3983875.0,3984130.0,3984918.0,3984441.0,3984224.0,3984388.0,3984565.0,3982212.0,4007276.0,3987234.0,3985812.0,3985807.0,3986099.0,3986524.0,3987116.0,3987537.0,3988250.0,3988329.0,3987954.0,3987476.0,3986901.0,3986353.0,3986147.0,3986416.0,3986847.0,3986798.0,3986928.0,3986976.0,3987007.0,3987156.0,3987151.0,3987177.0,3987870.0,3987255.0,3987905.0,3987805.0,3987335.0,3987507.0,3987402.0,3984477.0,4001285.0,3993093.0,3988845.0,3988213.0,3988459.0,3988795.0,3989241.0,3989950.0,3990571.0,3990954.0,3990834.0,3990084.0,3989623.0,3988740.0,3988438.0,3988490.0,3988762.0,3989007.0,3988914.0,3988878.0,3988658.0,3988581.0,3988515.0,3988452.0,3988444.0,3988592.0,3988793.0,3989366.0,3988976.0,3988678.0,3988756.0,3988680.0,3989039.0,4015793.0,3990728.0,3989648.0,3990259.0,3989920.0,3990330.0,3990750.0,3991306.0,3992018.0,3991908.0,3991434.020:23:55,3990857.0,3989801.0,3989920.0,3989891.0,3989817.0,3989627.0,3989514.0,3989393.0,3989343.0,3989305.0,3989285.0,3989331.0,3989938.0,3990625.0,3989485.0,3989453.0,3989357.0,3988190.0,3997398.0,4005460.0,3990917.0,3990001.0,3989981.0,3990388.0,3990682.0,3990868.0,3991435.0,3991649.0,3991762.0,3991068.0,3990407.0,3989528.0,3989058.0,3989021.0,3989109.0,3989194.0,3989281.0,3989161.0,3988965.0,3988709.0,3988459.0,3988445.0,3988414.0,3988271.0,3988747.0,3988744.0,3988119.0,3988091.0,3987942.0,3987273.0,3991199.0,4007811.0,3988749.0,3988139.0,3988134.0,3988465.0,3988975.0,3989332.0,3989883.0,3990423.0,3990339.0,3989575.0,3989489.0,3987994.0,3987140.0,3987099.0,3987292.0,3987570.0,3987456.0,3987123.0,3986971.0,3986775.0,3986731.0,3986532.0,3986533.0,3986595.0,3987198.0,3986951.0,3986498.0,3986373.0,3986415.0,3983339.0,4005629.0,3987834.0,3987544.0,3987157.0,3987228.0,3987628.0,3988069.0,3988598.0,3989137.0,3989426.0,3989076.0,3988410.0,3987664.0,3986743.0,3986437.0,3986669.0,3986880.0,3987083.020:23:57,3987088.0,3986311.0,3986324.0,3986308.0,3986995.0,3986971.0,3986484.0,3986312.0,3986226.0,3985023.0,3993308.0,4006239.0,3987770.0,3986913.0,3986950.0,3987223.0,3987671.0,3988842.0,3988505.0,3989118.0,3989159.0,3988534.0,3988119.0,3987071.0,3986444.0,3986497.0,3986751.0,3987066.0,3986973.0,3986813.0,3986742.0,3986533.0,3986561.0,3986468.0,3986331.0,3986404.0,3986357.0,3986381.0,3986979.0,3986881.0,3986319.0,3986073.0,3986082.0,3984750.0,3992992.0,4003357.0,3987913.0,3987023.0,3987156.0,3987467.0,3987887.0,3988305.0,3988781.0,3989305.0,3989207.0,3988635.0,3987967.0,3987297.0,3986544.0,3986586.0,3986664.0,3986909.0,3986767.0,3986604.0,3986492.0,3986317.0,3987074.0,3986080.0,3986030.0,3986030.0,3985936.0,3986167.0,3986659.0,3986196.0,3985756.0,3985758.0,3985870.0,3983186.0,4006439.0,3988101.0,3987215.0,3986811.0,3987284.0,3987817.0,3988480.0,3989478.0,3990198.0,3990781.0,3990866.0,3990500.0,3989997.0,3989589.0,3989419.0,3990047.0,3990621.0,3991173.0,3991526.0,3991741.0,3992145.0,3992378.020:23:59,3992615.0,3995036.0,3995334.0,3995116.0,3995428.0,3995652.0,3992856.0,4010956.0,4000715.0,3998339.0,3997875.0,3998295.0,3999018.0,3999655.0,4000615.0,4001507.0,4002347.0,4002499.0,4002115.0,4001365.0,4000641.0,4000117.0,4000374.0,4000817.0,4001228.0,4001290.0,4001352.0,4001141.0,4001120.0,4001183.0,4001306.0,4001347.0,4001529.0,4002267.0,4001918.0,4001566.0,4001996.0,4001773.0,3998830.0,4021735.0,4004086.0,4003499.0,4003055.0,4003359.0,4003798.0,4004373.0,4004999.0,4005656.0,4006176.0,4005930.0,4005405.0,4004473.0,4003489.0,4003141.0,4003283.0,4003545.0,4003664.0,4003683.0,4003505.0,4003429.0,4003352.0,4003358.0,4003328.0,4003303.0,4003370.0,4003697.0,4004153.0,4003683.0,4003257.0,4003272.0,4003107.0,4002426.0,4029749.0,4005204.0,4004073.0,4003763.0,4003969.0,4004252.0,4004726.0,4005158.0,4006247.0,4006017.0,4005563.0,4004922.0,4003968.0,4003256.0,4002816.0,4002902.0,4002987.0,4003013.0,4003017.0,4002812.0,4002514.0,4002434.0,4002259.0,4002165.0,4002009.0,4001783.0,4002364.0,4002205.020:24:01,4001477.0,4021805.0,4002829.0,4001637.0,4001059.0,4001157.0,4001484.0,4001819.0,4002317.0,4002735.0,4003077.0,4002752.0,4002138.0,4001037.0,4000067.0,3999566.0,3999525.0,3999576.0,3999559.0,3999340.0,3999107.0,3998799.0,3998558.0,3998290.0,3998197.0,3998042.0,3997885.0,3998618.0,3998118.0,3997515.0,3997368.0,3997365.0,3994171.0,4014608.0,3998399.0,3998001.0,3997482.0,3997601.0,3997822.0,3998340.0,3998990.0,3999418.0,3999668.0,3999239.0,3998597.0,3998334.0,3996418.0,3995778.0,3995887.0,3996123.0,3996184.0,3996033.0,3995859.0,3995664.0,3995520.0,3995505.0,3995405.0,3995633.0,3995910.0,3995363.0,3995010.0,3994895.0,3994756.0,3994986.0,4021869.0,3996661.0,3995472.0,3995328.0,3995521.0,3995874.0,3996370.0,3996986.0,3997645.0,3997909.0,3997404.0,3996559.0,3995554.0,3994542.0,3994390.0,3994390.0,3994581.0,3994567.0,3994473.0,3994291.0,3994107.0,3993956.0,3993869.0,3994518.0,3994263.0,3994248.0,3993487.0,3993614.0,3991900.0,4002194.0,4008940.0,3994993.0,3994229.0,3994250.0,3994680.0,3995135.020:24:03,3995596.0,3995622.0,3994631.0,3993639.0,3993440.0,3994132.0,3993703.0,3993739.0,3993627.0,3993545.0,3993438.0,3993221.0,3993390.0,3993787.0,3993260.0,3992762.0,3992692.0,3992550.0,3990665.0,4017664.0,3994643.0,3993355.0,3993185.0,3993447.0,3993677.0,3994270.0,3994766.0,3995276.0,3995439.0,3995038.0,3994346.0,3993064.0,3991976.0,3991808.0,3991683.0,3991910.0,3991930.0,3991698.0,3991564.0,3991250.0,3991134.0,3991702.0,3991481.0,3990804.0,3990618.0,3990620.0,3988599.0,4000535.0,4001518.0,3992302.0,3990917.0,3990944.0,3991261.0,3991658.0,3992609.0,3992933.0,3993624.0,3993583.0,3992868.0,3992245.0,3990795.0,3990327.0,3990531.0,3991043.0,3991551.0,3991791.0,3991955.0,3992070.0,3992269.0,3992604.0,3993380.0,3993892.0,3994021.0,3994080.0,3994599.0,3995000.0,3996057.0,4024505.0,3999345.0,3998733.0,3999337.0,4000269.0,4001242.0,4002510.0,4003813.0,4005145.0,4006043.0,4006155.0,4006148.0,4005548.0,4005115.0,4005441.0,4006167.0,4007129.0,4007558.0,4007813.0,4007756.0,4007947.0,4008300.0,4008163.020:24:05,4008979.0,4008729.0,4005562.0,4025540.0,4011635.0,4010355.0,4009652.0,4009854.0,4010168.0,4010607.0,4011340.0,4012025.0,4012555.0,4012425.0,4011976.0,4010913.0,4009769.0,4009342.0,4009354.0,4010465.0,4009757.0,4009699.0,4009482.0,4009140.0,4008850.0,4008148.0,4007824.0,4007491.0,4007252.0,4007013.0,4006770.0,4007155.0,4006877.0,4006130.0,4005754.0,4005390.0,4004278.0,4010843.0,4023894.0,4006476.0,4005223.0,4005038.0,4005191.0,4005208.0,4005495.0,4005756.0,4006022.0,4006052.0,4005445.0,4004484.0,4003197.0,4002057.0,4001665.0,4001522.0,4001429.0,4001208.0,4001006.0,4000644.0,4000251.0,4000103.0,3999702.0,3999482.0,3999268.0,3999530.0,3998758.0,3998452.0,3998975.0,3998603.0,3998184.0,3997508.0,3997365.0,3995870.0,4003192.0,4013594.0,3997796.0,3996792.0,3996657.0,3996681.0,3997010.0,3997268.0,3997865.0,3998397.0,3998481.0,3997876.0,3996849.0,3995645.0,3994301.0,3993869.0,3994031.0,3994060.0,3993949.0,3993802.0,3993525.0,3993034.0,3992679.0,3992352.0,3992198.0,3991893.0,3991807.0,3991703.020:24:08,3991840.0,3990917.0,3987798.0,4004408.0,3997141.0,3991860.0,3990981.0,3991090.0,3991449.0,3991685.0,3992090.0,3992733.0,3993196.0,3993935.0,3992639.0,3991635.0,3990214.0,3989289.0,3989155.0,3989333.0,3989487.0,3989692.0,3989378.0,3989220.0,3988912.0,3988883.0,3988643.0,3988413.0,3988503.0,3988295.0,3988188.0,3988463.0,3988632.0,3988282.0,3987774.0,3987693.0,3987536.0,3987693.0,4014882.0,3989212.0,3988048.0,3987783.0,3987966.0,3988359.0,3988662.0,3989281.0,3990014.0,3990350.0,3990147.0,3989397.0,3988197.0,3987120.0,3986447.0,3986519.0,3986802.0,3986860.0,3986812.0,3986673.0,3986401.0,3986098.0,3985926.0,3985696.0,3986092.0,3985500.0,3983360.0,3985330.0,3985290.0,3985966.0,3985562.0,3985018.0,3984799.0,3984661.0,3982382.0,3993989.0,3998080.0,3985437.0,3984488.0,3984572.0,3984667.0,3984948.0,3985331.0,3985756.0,3986217.0,3986484.0,3985909.0,3985064.0,3983933.0,3982888.0,3982594.0,3982773.0,3982743.0,3982872.0,3982637.0,3982326.0,3982148.0,3981924.0,3981618.0,3981455.0,3981307.0,3981013.020:24:10,3980956.0,3980523.0,3980427.0,3977153.0,4000404.0,3981145.0,3980692.0,3980291.0,3980298.0,3980544.0,3981086.0,3981541.0,3982083.0,3982533.0,3982603.0,3981818.0,3980955.0,3979797.0,3978945.0,3978838.0,3979135.0,3979456.0,3980188.0,3979233.0,3978997.0,3978872.0,3978739.0,3978828.0,3978577.0,3978495.0,3978683.0,3979099.0,3978775.0,3978268.0,3978139.0,3978204.0,3975719.0,4003272.0,3980604.0,3979096.0,3978728.0,3978888.0,3979260.0,3979712.0,3980199.0,3980918.0,3981282.0,3981086.0,3980325.0,3979325.0,3978319.0,3977688.0,3977759.0,3978038.0,3978284.0,3978371.0,3978129.0,3978029.0,3977896.0,3977836.0,3977789.0,3977798.0,3977717.0,3977695.0,3978267.0,3978162.0,3978102.0,3977507.0,3977427.0,3975518.0,3988009.0,3991182.0,3978710.0,3977936.0,3978085.0,3978504.0,3978874.0,3979336.0,3979921.0,3980415.0,3980449.0,3979895.0,3979124.0,3978098.0,3977401.0,3977311.0,3977436.0,3977646.0,3977672.0,3977489.0,3977239.0,3977009.0,3976859.0,3976769.0,3976724.0,3976505.0,3976545.0,3976535.0,3977078.0,3977011.020:24:12,3976450.0,3996126.0,3977469.0,3976535.0,3976028.0,3976344.0,3976531.0,3976760.0,3977362.0,3978002.0,3978221.0,3977999.0,3977251.0,3976523.0,3975507.0,3974823.0,3974723.0,3975101.0,3975218.0,3974893.0,3974762.0,3974543.0,3974275.0,3974058.0,3974072.0,3973945.0,3974872.0,3974284.0,3974381.0,3974049.0,3973630.0,3974114.0,3973226.0,3973927.0,4001149.0,3975169.0,3974112.0,3973770.0,3974060.0,3974485.0,3974931.0,3975449.0,3976119.0,3976373.0,3975930.0,3975198.0,3974372.0,3973381.0,3973180.0,3973363.0,3973658.0,3973808.0,3973649.0,3973495.0,3973350.0,3973132.0,3973091.0,3972938.0,3973014.0,3973020.0,3973676.0,3973360.0,3972892.0,3972745.0,3972726.0,3969563.0,3989941.0,3975479.0,3974016.0,3973404.0,3973620.0,3974071.0,3974394.0,3974910.0,3975506.0,3977044.0,3975827.0,3975160.0,3974380.0,3973576.0,3973091.0,3973045.0,3973257.0,3973419.0,3973410.0,3973384.0,3973236.0,3973147.0,3973043.0,3973045.0,3973037.0,3973028.0,3972888.0,3973177.0,3973812.0,3973510.0,3973055.0,3973031.0,3972981.0,3969882.020:24:14,3990385.0,3974104.0,3974352.0,3974871.0,3975346.0,3975761.0,3975802.0,3975190.0,3974543.0,3973875.0,3973059.0,3972999.0,3973151.0,3973343.0,3973338.0,3973193.0,3973044.0,3972814.0,3972840.0,3972552.0,3972418.0,3972457.0,3972233.0,3972395.0,3972889.0,3973205.0,3971945.0,3971957.0,3971815.0,3968577.0,3988551.0,3973680.0,3972574.0,3971912.0,3972222.0,3972528.0,3972874.0,3973312.0,3973824.0,3974247.0,3974018.0,3973379.0,3972355.0,3971384.0,3970736.0,3970901.0,3970928.0,3971068.0,3970983.0,3970773.0,3970607.0,3970301.0,3970093.0,3969955.0,3970000.0,3969985.0,3970582.0,3970228.0,3969884.0,3969760.0,3969719.0,3966461.0,3983859.0,3974794.0,3970841.0,3970165.0,3970324.0,3970643.0,3971188.0,3971830.0,3972262.0,3972689.0,3972664.0,3971902.0,3971854.0,3970110.0,3969447.0,3969565.0,3970025.0,3970245.0,3970228.0,3970084.0,3969863.0,3969799.0,3969732.0,3969602.0,3969718.0,3970319.0,3970135.0,3969539.0,3969493.0,3969449.0,3966284.0,3984191.0,3974164.0,3970708.0,3970105.0,3970424.0,3970830.0,3971299.020:24:16,3971795.0,3971628.0,3970631.0,3969817.0,3969669.0,3969918.0,3970256.0,3970486.0,3970418.0,3970143.0,3970074.0,3969859.0,3969824.0,3969827.0,3969763.0,3969863.0,3970465.0,3970176.0,3969740.0,3969577.0,3969523.0,3966485.0,3985115.0,3974893.0,3970686.0,3970123.0,3970238.0,3970555.0,3971172.0,3971392.0,3972160.0,3972531.0,3972211.0,3971617.0,3971342.0,3969862.0,3969214.0,3969134.0,3969348.0,3970247.0,3969534.0,3969265.0,3969033.0,3968937.0,3968866.0,3968575.0,3968479.0,3968497.0,3968350.0,3968636.0,3968989.0,3968529.0,3968112.0,3967994.0,3967852.0,3965661.0,3992301.0,3970102.0,3968371.0,3968252.0,3968494.0,3968866.0,3969122.0,3969700.0,3970216.0,3970542.0,3970016.0,3969446.0,3968389.0,3967526.0,3966958.0,3967108.0,3967304.0,3967496.0,3967454.0,3967161.0,3967044.0,3966895.0,3966927.0,3966631.0,3966536.0,3966920.0,3967293.0,3967544.0,3966430.0,3966293.0,3966181.0,3965169.0,3994119.0,3968407.0,3967192.0,3967040.0,3967302.0,3967771.0,3968335.0,3968913.0,3969525.0,3969802.0,3969533.0,3968681.020:24:18,3967502.0,3966920.0,3966875.0,3966708.0,3966648.0,3966426.0,3966373.0,3966340.0,3966275.0,3966263.0,3966790.0,3966734.0,3966358.0,3966093.0,3966058.0,3965651.0,3969753.0,3989728.0,3967817.0,3966904.0,3966929.0,3967307.0,3967723.0,3968157.0,3968803.0,3969422.0,3969667.0,3969323.0,3968435.0,3967329.0,3966455.0,3966205.0,3966425.0,3966671.0,3966816.0,3966802.0,3966632.0,3966598.0,3967403.0,3966506.0,3966775.0,3966445.0,3966779.0,3967193.0,3966676.0,3966338.0,3966283.0,3966166.0,3966085.0,3992045.0,3968198.0,3966885.0,3966812.0,3966919.0,3967373.0,3967832.0,3968369.0,3969010.0,3969359.0,3968989.0,3968353.0,3967107.0,3966206.0,3965717.0,3965915.0,3966032.0,3966231.0,3966072.0,3965856.0,3965778.0,3965617.0,3965391.0,3965190.0,3965097.0,3965060.0,3965781.0,3965426.0,3965311.0,3964797.0,3964819.0,3962702.0,3975292.0,3976538.0,3965962.0,3965230.0,3965260.0,3965468.0,3966016.0,3966528.0,3966962.0,3967766.0,3967578.0,3967081.0,3965804.0,3964895.0,3963842.0,3963729.0,3964081.0,3964270.0,3964364.020:24:21,3964367.0,3963421.0,3963483.0,3963755.0,3964195.0,3963783.0,3963397.0,3963369.0,3963487.0,3960946.0,3989137.0,3965769.0,3964402.0,3964016.0,3964345.0,3964794.0,3965322.0,3965927.0,3966596.0,3967135.0,3966713.0,3965931.0,3964707.0,3963654.0,3963133.0,3963184.0,3963682.0,3963946.0,3964067.0,3963970.0,3963715.0,3963724.0,3963657.0,3963682.0,3963549.0,3963543.0,3963768.0,3964323.0,3964007.0,3963543.0,3963555.0,3963554.0,3961140.0,3982436.0,3965401.0,3964700.0,3964272.0,3964786.0,3964917.0,3965512.0,3966234.0,3966968.0,3967625.0,3967498.0,3967000.0,3965743.0,3964661.0,3964060.0,3964119.0,3964446.0,3964599.0,3964808.0,3964718.0,3964504.0,3964276.0,3964145.0,3964178.0,3964157.0,3964175.0,3964119.0,3964173.0,3964300.0,3965034.0,3964798.0,3964344.0,3964317.0,3964180.0,3961240.0,3981205.0,3966651.0,3965288.0,3964677.0,3964785.0,3965084.0,3965490.0,3965950.0,3967438.0,3967193.0,3967193.0,3966642.0,3965601.0,3964634.0,3963732.0,3963795.0,3963838.0,3964124.0,3964147.0,3963952.0,3963740.0,3963520.020:24:23,3963269.0,3962943.0,3962968.0,3963087.0,3963643.0,3963120.0,3962593.0,3963088.0,3962534.0,3960230.0,3988099.0,3964721.0,3964061.0,3962973.0,3962971.0,3963472.0,3963905.0,3964447.0,3965220.0,3965751.0,3965657.0,3964866.0,3963720.0,3962541.0,3961792.0,3961993.0,3962106.0,3962441.0,3962408.0,3962326.0,3962086.0,3961987.0,3961829.0,3961828.0,3961677.0,3961698.0,3961833.0,3962406.0,3961979.0,3961670.0,3961544.0,3961566.0,3958365.0,3977213.0,3966034.0,3963055.0,3962324.0,3962526.0,3962878.0,3963424.0,3963912.0,3964901.0,3965426.0,3965518.0,3964776.0,3963606.0,3962937.0,3961520.0,3961454.0,3961758.0,3961984.0,3962243.0,3962068.0,3961880.0,3961848.0,3961757.0,3961869.0,3961867.0,3961826.0,3961893.0,3962498.0,3962400.0,3961961.0,3961798.0,3961755.0,3961177.0,3965673.0,3984111.0,3963356.0,3962526.0,3962624.0,3962807.0,3963340.0,3963844.0,3964573.0,3965387.0,3965738.0,3965375.0,3964614.0,3963392.0,3962414.0,3962201.0,3962249.0,3962454.0,3962577.0,3962732.0,3962458.0,3962357.0,3962141.0,3962144.020:24:25,3962542.0,3962650.0,3962260.0,3961734.0,3961649.0,3961640.0,3958663.0,3979385.0,3963185.0,3962570.0,3961944.0,3962052.0,3962471.0,3962870.0,3963333.0,3964084.0,3964664.0,3964665.0,3964119.0,3962928.0,3961743.0,3961084.0,3961008.0,3961171.0,3961197.0,3961172.0,3961538.0,3960971.0,3960758.0,3960501.0,3960556.0,3960708.0,3960410.0,3960641.0,3960868.0,3960419.0,3959947.0,3960020.0,3960267.0,3959545.0,3988026.0,3961975.0,3960657.0,3960532.0,3960752.0,3961298.0,3961721.0,3962418.0,3963177.0,3963720.0,3963349.0,3962385.0,3961103.0,3959878.0,3959525.0,3959663.0,3959837.0,3959997.0,3960012.0,3960039.0,3959852.0,3959676.0,3959633.0,3959756.0,3959923.0,3960482.0,3959908.0,3959506.0,3959513.0,3959567.0,3958045.0,3986248.0,3962206.0,3960323.0,3960090.0,3960478.0,3960850.0,3961446.0,3962061.0,3962935.0,3963563.0,3963337.0,3962524.0,3961314.0,3960132.0,3959775.0,3959885.0,3960080.0,3960271.0,3960287.0,3960252.0,3960144.0,3959991.0,3959966.0,3959822.0,3960179.0,3960694.0,3960264.0,3959845.0,3959879.020:24:27,3959909.0,3960938.0,3960983.0,3961352.0,3961916.0,3962338.0,3963068.0,3963849.0,3964292.0,3963948.0,3963124.0,3961942.0,3961111.0,3961020.0,3961162.0,3961501.0,3961536.0,3961552.0,3961382.0,3961245.0,3961113.0,3961025.0,3960966.0,3961204.0,3961647.0,3961129.0,3960664.0,3960548.0,3960574.0,3958422.0,3984592.0,3962784.0,3961520.0,3961260.0,3961583.0,3962342.0,3962575.0,3962994.0,3963768.0,3964116.0,3964464.0,3963056.0,3961718.0,3960608.0,3960304.0,3960344.0,3960502.0,3960516.0,3960361.0,3960128.0,3960213.0,3959855.0,3959845.0,3959911.0,3960563.0,3960245.0,3959823.0,3959731.0,3959459.0,3958141.0,3964706.0,3979419.0,3960691.0,3959797.0,3959977.0,3960205.0,3960798.0,3961208.0,3961828.0,3962712.0,3962813.0,3962168.0,3961150.0,3959771.0,3958878.0,3958921.0,3959228.0,3959273.0,3959659.0,3959707.0,3959440.0,3959178.0,3959054.0,3959139.0,3959566.0,3959728.0,3959224.0,3958853.0,3958852.0,3958847.0,3956748.0,3984839.0,3961213.0,3959743.0,3959496.0,3959814.0,3960290.0,3960800.0,3961556.0,3962401.020:24:29,3962813.0,3959057.0,3958921.0,3959245.0,3959454.0,3959732.0,3959604.0,3959511.0,3959366.0,3959220.0,3959186.0,3959207.0,3959833.0,3959658.0,3959238.0,3959023.0,3959009.0,3958492.0,3962398.0,3983461.0,3960506.0,3959740.0,3959772.0,3960155.0,3960682.0,3961195.0,3961939.0,3962684.0,3963042.0,3962786.0,3961792.0,3960692.0,3959760.0,3959526.0,3959566.0,3959872.0,3959931.0,3959892.0,3959641.0,3959620.0,3959408.0,3959382.0,3959173.0,3959163.0,3960355.0,3959741.0,3959189.0,3958993.0,3958904.0,3958499.0,3965003.0,3976520.0,3960304.0,3959512.0,3959505.0,3959818.0,3960133.0,3960696.0,3961339.0,3962038.0,3962254.0,3961770.0,3960562.0,3959286.0,3958391.0,3958277.0,3958356.0,3958445.0,3958584.0,3958602.0,3958415.0,3958114.0,3958066.0,3957830.0,3957737.0,3957879.0,3958504.0,3957960.0,3957499.0,3957295.0,3957263.0,3953979.0,3977767.0,3958337.0,3958110.0,3957751.0,3957940.0,3958274.0,3959091.0,3959497.0,3960290.0,3960892.0,3960852.0,3960785.0,3958770.0,3957323.0,3956825.0,3956765.0,3957068.0,3957248.020:24:31,3957331.0,3956900.0,3956928.0,3957327.0,3957252.0,3957022.0,3956581.0,3956657.0,3956242.0,3958379.0,3982852.0,3958270.0,3957372.0,3957185.0,3958364.0,3958073.0,3958672.0,3959346.0,3960117.0,3960836.0,3960324.0,3959177.0,3957922.0,3957053.0,3956744.0,3956849.0,3957186.0,3957386.0,3957324.0,3957239.0,3956991.0,3956941.0,3956791.0,3956807.0,3956872.0,3957093.0,3957490.0,3957094.0,3956833.0,3956769.0,3956829.0,3954989.0,3982425.0,3959320.0,3957924.0,3957767.0,3958136.0,3958476.0,3959052.0,3959606.0,3960430.0,3960906.0,3960747.0,3959991.0,3958848.0,3957645.0,3957265.0,3957401.0,3958140.0,3957839.0,3957903.0,3957814.0,3957724.0,3957772.0,3957578.0,3957538.0,3957455.0,3957455.0,3957595.0,3958023.0,3957542.0,3957144.0,3957195.0,3957050.0,3954849.0,3978845.0,3959218.0,3957840.0,3957428.0,3957684.0,3958031.0,3958453.0,3959121.0,3959813.0,3960546.0,3960373.0,3959638.0,3958178.0,3957001.0,3956524.0,3956531.0,3956660.0,3956733.0,3956656.0,3956561.0,3956206.0,3956168.0,3955983.0,3955921.0,3955801.020:24:34,3955890.0,3955424.0,3953184.0,3966271.0,3969589.0,3956654.0,3955891.0,3955956.0,3956365.0,3956881.0,3957498.0,3958313.0,3959084.0,3959188.0,3958551.0,3957439.0,3955813.0,3955028.0,3955797.0,3955140.0,3955393.0,3955575.0,3955520.0,3955500.0,3955120.0,3954897.0,3955146.0,3954784.0,3955633.0,3955349.0,3954973.0,3954849.0,3954874.0,3952115.0,3968189.0,3962973.0,3956330.0,3955549.0,3955629.0,3956139.0,3956604.0,3957128.0,3958020.0,3958701.0,3958789.0,3958178.0,3956763.0,3955473.0,3954899.0,3954817.0,3955165.0,3955388.0,3955510.0,3955544.0,3955410.0,3955309.0,3955257.0,3955214.0,3955311.0,3955924.0,3955458.0,3955134.0,3955961.0,3955070.0,3952594.0,3978669.0,3957629.0,3956300.0,3955868.0,3956158.0,3956704.0,3957243.0,3957942.0,3958700.0,3959316.0,3959304.0,3958635.0,3957294.0,3956008.0,3955672.0,3955776.0,3956003.0,3956210.0,3956225.0,3956051.0,3955959.0,3955857.0,3955735.0,3955638.0,3955795.0,3956357.0,3955962.0,3955640.0,3955499.0,3955615.0,3952627.0,3974412.0,3957645.0,3956644.0,3956085.020:24:36,3956199.0,3958478.0,3958923.0,3958739.0,3957711.0,3956209.0,3955247.0,3955096.0,3955190.0,3955290.0,3955307.0,3955092.0,3955086.0,3954783.0,3954561.0,3954458.0,3954308.0,3954500.0,3954801.0,3954278.0,3953900.0,3953992.0,3953773.0,3952195.0,3980234.0,3956081.0,3954549.0,3954995.0,3954702.0,3955032.0,3955496.0,3955928.0,3956884.0,3957265.0,3956853.0,3956125.0,3954690.0,3953713.0,3953102.0,3953191.0,3953354.0,3953542.0,3953483.0,3953343.0,3953225.0,3953149.0,3953016.0,3953004.0,3953638.0,3953508.0,3952990.0,3952670.0,3952768.0,3952162.0,3955536.0,3977327.0,3954232.0,3953369.0,3953279.0,3953718.0,3954065.0,3954724.0,3955433.0,3956186.0,3956525.0,3956154.0,3955200.0,3953966.0,3952964.0,3952848.0,3953052.0,3954005.0,3953286.0,3953244.0,3953196.0,3953036.0,3953364.0,3952929.0,3952878.0,3953476.0,3953427.0,3953186.0,3952767.0,3952740.0,3952376.0,3955253.0,3977476.0,3954638.0,3953822.0,3953809.0,3954205.0,3954587.0,3955088.0,3955765.0,3956513.0,3956880.0,3956583.0,3955654.0,3954343.0,3953547.020:24:38,3953357.0,3953572.0,3953530.0,3953497.0,3953526.0,3953471.0,3953588.0,3953687.0,3954378.0,3953927.0,3953542.0,3953435.0,3953434.0,3950567.0,3969631.0,3956000.0,3955125.0,3954004.0,3954165.0,3954533.0,3954891.0,3955789.0,3955986.0,3956499.0,3956608.0,3956019.0,3954958.0,3953868.0,3953322.0,3953305.0,3953644.0,3953501.0,3953494.0,3953318.0,3953078.0,3953029.0,3952668.0,3952697.0,3952659.0,3952531.0,3952673.0,3953109.0,3952613.0,3952156.0,3952113.0,3952020.0,3951394.0,3978389.0,3954258.0,3952710.0,3952465.0,3952841.0,3953262.0,3953604.0,3954220.0,3954826.0,3955201.0,3954802.0,3954100.0,3952777.0,3951731.0,3951350.0,3951316.0,3951406.0,3951565.0,3952241.0,3951333.0,3951167.0,3950976.0,3950789.0,3951001.0,3950726.0,3951462.0,3951403.0,3950635.0,3950651.0,3950524.0,3948769.0,3959781.0,3964925.0,3951865.0,3951091.0,3951230.0,3951441.0,3951979.0,3952529.0,3953120.0,3953860.0,3954017.0,3953462.0,3952411.0,3951240.0,3950515.0,3950411.0,3950776.0,3950931.0,3951042.0,3950894.0,3950767.0,3950602.020:24:40,3950507.0,3950384.0,3950395.0,3950340.0,3947441.0,3971135.0,3952333.0,3951444.0,3951119.0,3951323.0,3952372.0,3952275.0,3952969.0,3953708.0,3954373.0,3954615.0,3953420.0,3952197.0,3951186.0,3950818.0,3951122.0,3951077.0,3951230.0,3951202.0,3951137.0,3951020.0,3951081.0,3950758.0,3950635.0,3950845.0,3951450.0,3951096.0,3950778.0,3950764.0,3950687.0,3948361.0,3972224.0,3952891.0,3951792.0,3951448.0,3951582.0,3951962.0,3952342.0,3952915.0,3953550.0,3953940.0,3953723.0,3952993.0,3951778.0,3950685.0,3950378.0,3950365.0,3950587.0,3950385.0,3950711.0,3950419.0,3950391.0,3950042.0,3949967.0,3950214.0,3950418.0,3950161.0,3949611.0,3949343.0,3949223.0,3947518.0,3957390.0,3962871.0,3950293.0,3949410.0,3949545.0,3949818.0,3950164.0,3950709.0,3951405.0,3952040.0,3951982.0,3951452.0,3950478.0,3949154.0,3948429.0,3948355.0,3948330.0,3948436.0,3948400.0,3948346.0,3948160.0,3947985.0,3947784.0,3947847.0,3948650.0,3948060.0,3947563.0,3947577.0,3947553.0,3944688.0,3967557.0,3948806.0,3949529.0,3948183.020:24:42,3948385.0,3950848.0,3951130.0,3950742.0,3949740.0,3948591.0,3947658.0,3947567.0,3947798.0,3947954.0,3948036.0,3947974.0,3947895.0,3947584.0,3947568.0,3947620.0,3948254.0,3947690.0,3947268.0,3947588.0,3947259.0,3944359.0,3968035.0,3949266.0,3949045.0,3948144.0,3948325.0,3948778.0,3949280.0,3949920.0,3950493.0,3950917.0,3950863.0,3950085.0,3949006.0,3947919.0,3947592.0,3947782.0,3947809.0,3947825.0,3947852.0,3947830.0,3947805.0,3947618.0,3947640.0,3947599.0,3948354.0,3948184.0,3947695.0,3947551.0,3947490.0,3945824.0,3956923.0,3960121.0,3949056.0,3948117.0,3948364.0,3948595.0,3949044.0,3949374.0,3949995.0,3950456.0,3950587.0,3950770.0,3949141.0,3948024.0,3947339.0,3947514.0,3947819.0,3947671.0,3947604.0,3947343.0,3947104.0,3947066.0,3946765.0,3946697.0,3946821.0,3947324.0,3946719.0,3946178.0,3946063.0,3946038.0,3943441.0,3966291.0,3947305.0,3946797.0,3946631.0,3946619.0,3947137.0,3947443.0,3948006.0,3948663.0,3949023.0,3948674.0,3947983.0,3946642.0,3945406.0,3945152.0,3945187.0,3945310.020:24:44,3945393.0,3944741.0,3944513.0,3944632.0,3945145.0,3944673.0,3944156.0,3944040.0,3944022.0,3940734.0,3961748.0,3945472.0,3945182.0,3944609.0,3944820.0,3945475.0,3945693.0,3946400.0,3946982.0,3947442.0,3947322.0,3946626.0,3945259.0,3944320.0,3943771.0,3943766.0,3944054.0,3944224.0,3945208.0,3944074.0,3943931.0,3943769.0,3943707.0,3944191.0,3944527.0,3943940.0,3943695.0,3943661.0,3943713.0,3941304.0,3968800.0,3945934.0,3944634.0,3944377.0,3944606.0,3944980.0,3945586.0,3946075.0,3946902.0,3947293.0,3947119.0,3946272.0,3945144.0,3944098.0,3943824.0,3943928.0,3944171.0,3944426.0,3944406.0,3944358.0,3944193.0,3944107.0,3943913.0,3943996.0,3944689.0,3944617.0,3944085.0,3943974.0,3943943.0,3941852.0,3954788.0,3954970.0,3946181.0,3944578.0,3944872.0,3945201.0,3945679.0,3946395.0,3946959.0,3947606.0,3947670.0,3947135.0,3946078.0,3944921.0,3944458.0,3944495.0,3944549.0,3944562.0,3944729.0,3944479.0,3944159.0,3944154.0,3943966.0,3943784.0,3943730.0,3944447.0,3943905.0,3943556.0,3943354.0,3943389.020:24:47,3940408.0,3943720.0,3943942.0,3944468.0,3944955.0,3945429.0,3946042.0,3946359.0,3945939.0,3944782.0,3943483.0,3942681.0,3942442.0,3942617.0,3942782.0,3942713.0,3942420.0,3942266.0,3941903.0,3941727.0,3941631.0,3941913.0,3942123.0,3941560.0,3941211.0,3941080.0,3941011.0,3938498.0,3964850.0,3943028.0,3942020.0,3941596.0,3941842.0,3942050.0,3942559.0,3943223.0,3943920.0,3945128.0,3943992.0,3943054.0,3941638.0,3940751.0,3940416.0,3940438.0,3940633.0,3940811.0,3940781.0,3940719.0,3940452.0,3940473.0,3940266.0,3940899.0,3940738.0,3940107.0,3940038.0,3940026.0,3937681.0,3951381.0,3950948.0,3941446.0,3940584.0,3940681.0,3941101.0,3941428.0,3942030.0,3942812.0,3943568.0,3943438.0,3942905.0,3941754.0,3940536.0,3940071.0,3940163.0,3940248.0,3940390.0,3940375.0,3940263.0,3940187.0,3939945.0,3939972.0,3940368.0,3941378.0,3940086.0,3939662.0,3939660.0,3939432.0,3939680.0,3966706.0,3941514.0,3940555.0,3940480.0,3940906.0,3941337.0,3941876.0,3942535.0,3943182.0,3943442.0,3943074.0,3942198.0,3940967.020:24:49,3940158.0,3940518.0,3940643.0,3940275.0,3940135.0,3939937.0,3939857.0,3940327.0,3940603.0,3940176.0,3939831.0,3939653.0,3939638.0,3936508.0,3954439.0,3942512.0,3940650.0,3940000.0,3940180.0,3940538.0,3940985.0,3941401.0,3942315.0,3942649.0,3942585.0,3942000.0,3940740.0,3939744.0,3939148.0,3939076.0,3939321.0,3939192.0,3939149.0,3938979.0,3938776.0,3938504.0,3938339.0,3938271.0,3938067.0,3938196.0,3938760.0,3938229.0,3937767.0,3937860.0,3937832.0,3934888.0,3959502.0,3939093.0,3938525.0,3938019.0,3938138.0,3939317.0,3938734.0,3939516.0,3939833.0,3940334.0,3940323.0,3939504.0,3938083.0,3937117.0,3936710.0,3936842.0,3936723.0,3936931.0,3937020.0,3936922.0,3936696.0,3936382.0,3936307.0,3936204.0,3936245.0,3936867.0,3936670.0,3936088.0,3935896.0,3936000.0,3934028.0,3945835.0,3950127.0,3937219.0,3936479.0,3936526.0,3936872.0,3937490.0,3938055.0,3938725.0,3939482.0,3939499.0,3938950.0,3937784.0,3936550.0,3935989.0,3936043.0,3936107.0,3936277.0,3937149.0,3936246.0,3936014.0,3935854.0,3935738.020:24:51,3936115.0,3935859.0,3935560.0,3935427.0,3934825.0,3939504.0,3959669.0,3937089.0,3936248.0,3936276.0,3936583.0,3937509.0,3937618.0,3938262.0,3938885.0,3939133.0,3938849.0,3937834.0,3936581.0,3935801.0,3935634.0,3935760.0,3935962.0,3935925.0,3935858.0,3935734.0,3935581.0,3935526.0,3935487.0,3935534.0,3935493.0,3935553.0,3936188.0,3936150.0,3935782.0,3935493.0,3935523.0,3934905.0,3939886.0,3955296.0,3937070.0,3936149.0,3936142.0,3936363.0,3936808.0,3937226.0,3937742.0,3938343.0,3938728.0,3938198.0,3937675.0,3936180.0,3935487.0,3935204.0,3935243.0,3936041.0,3935378.0,3935276.0,3935114.0,3934838.0,3934815.0,3934519.0,3934463.0,3934273.0,3934228.0,3934582.0,3934565.0,3934132.0,3933674.0,3933657.0,3933022.0,3936458.0,3955666.0,3934995.0,3934203.0,3934161.0,3934269.0,3934872.0,3935246.0,3935788.0,3936398.0,3936563.0,3936040.0,3935136.0,3933796.0,3932895.0,3932583.0,3932646.0,3932841.0,3932870.0,3932872.0,3932728.0,3932437.0,3932476.0,3932327.0,3932124.0,3932424.0,3932673.0,3932311.0,3932627.020:24:53,3931758.0,3933282.0,3932501.0,3932717.0,3933010.0,3933502.0,3934121.0,3934827.0,3935441.0,3935484.0,3934939.0,3933678.0,3932608.0,3932077.0,3931972.0,3932611.0,3932448.0,3932537.0,3932501.0,3932464.0,3932839.0,3932479.0,3932526.0,3933243.0,3933166.0,3932723.0,3932511.0,3932577.0,3931257.0,3940296.0,3951503.0,3934338.0,3933477.0,3933609.0,3934036.0,3934553.0,3935120.0,3935847.0,3936543.0,3936883.0,3936480.0,3935498.0,3934485.0,3933745.0,3933894.0,3934234.0,3934370.0,3934564.0,3934465.0,3934481.0,3934281.0,3934346.0,3934393.0,3935090.0,3934955.0,3934594.0,3934358.0,3934418.0,3933527.0,3940120.0,3952614.0,3936219.0,3935590.0,3935604.0,3936757.0,3936590.0,3937153.0,3937861.0,3938535.0,3938846.0,3938267.0,3937376.0,3936208.0,3935593.0,3935683.0,3935787.0,3935758.0,3935876.0,3935796.0,3935529.0,3935575.0,3935599.0,3935196.0,3935943.0,3935706.0,3935180.0,3935130.0,3935009.0,3934496.0,3940335.0,3952223.0,3936187.0,3935376.0,3935343.0,3935677.0,3936020.0,3936501.0,3937163.0,3937647.0,3937782.020:24:55,3937267.0,3934261.0,3934425.0,3934390.0,3934314.0,3934075.0,3933861.0,3933606.0,3933366.0,3934144.0,3933845.0,3933136.0,3933137.0,3933056.0,3930569.0,3943430.0,3943871.0,3934401.0,3933313.0,3933504.0,3933724.0,3934257.0,3934863.0,3935518.0,3936028.0,3935946.0,3935291.0,3934193.0,3932901.0,3932492.0,3932124.0,3932389.0,3932641.0,3932666.0,3932906.0,3932559.0,3932497.0,3932372.0,3933204.0,3932968.0,3932323.0,3932270.0,3932642.0,3929474.0,3945952.0,3938839.0,3933808.0,3933212.0,3933444.0,3933942.0,3934446.0,3935066.0,3935876.0,3936592.0,3936645.0,3935952.0,3934739.0,3933793.0,3933520.0,3933683.0,3933976.0,3934176.0,3934289.0,3934226.0,3934215.0,3934114.0,3934324.0,3934790.0,3934487.0,3934151.0,3934085.0,3934081.0,3932003.0,3960065.0,3936687.0,3935480.0,3935401.0,3935878.0,3936632.0,3936983.0,3937610.0,3938413.0,3938869.0,3938682.0,3937850.0,3936694.0,3935827.0,3935691.0,3935855.0,3936011.0,3936205.0,3936257.0,3936046.0,3936138.0,3936035.0,3936036.0,3936443.0,3936760.0,3936499.0,3936341.020:24:57,3936246.0,3937883.0,3936993.0,3937308.0,3937711.0,3938210.0,3938912.0,3939532.0,3940056.0,3940228.0,3939449.0,3938283.0,3937198.0,3936796.0,3936771.0,3936885.0,3936962.0,3936883.0,3936729.0,3936631.0,3936422.0,3936274.0,3936057.0,3935987.0,3936473.0,3936422.0,3936213.0,3935673.0,3935673.0,3935340.0,3937333.0,3959002.0,3936949.0,3936203.0,3936050.0,3936289.0,3936642.0,3937156.0,3938565.0,3938359.0,3938545.0,3938118.0,3937170.0,3936716.0,3934734.0,3934778.0,3934770.0,3935055.0,3935327.0,3935087.0,3934972.0,3934846.0,3934622.0,3934679.0,3934423.0,3934605.0,3935090.0,3934697.0,3934253.0,3934215.0,3934310.0,3931068.0,3953920.0,3935460.0,3935379.0,3934868.0,3935194.0,3935581.0,3936104.0,3936748.0,3937510.0,3937985.0,3937964.0,3937256.0,3935973.0,3935050.0,3934522.0,3934592.0,3934864.0,3934994.0,3935005.0,3934985.0,3935124.0,3934928.0,3934562.0,3934496.0,3934485.0,3936047.0,3935031.0,3934613.0,3934595.0,3934518.0,3933889.0,3940988.0,3952854.0,3936392.0,3935453.0,3935622.0,3935956.0,3936321.020:25:00,3936857.0,3937742.0,3936447.0,3935851.0,3935195.0,3935182.0,3935520.0,3935694.0,3935973.0,3935641.0,3935513.0,3935422.0,3935324.0,3935394.0,3935243.0,3935381.0,3935807.0,3935976.0,3935687.0,3935468.0,3935501.0,3935174.0,3936687.0,3959275.0,3937077.0,3936278.0,3936277.0,3936568.0,3936996.0,3937384.0,3937977.0,3938612.0,3938877.0,3938461.0,3937556.0,3936543.0,3935604.0,3935361.0,3935375.0,3935627.0,3935671.0,3935495.0,3935422.0,3935206.0,3935062.0,3934858.0,3934780.0,3934862.0,3934542.0,3934791.0,3934924.0,3934579.0,3934927.0,3934039.0,3933628.0,3935411.0,3956687.0,3935612.0,3934368.0,3934231.0,3934485.0,3934788.0,3935511.0,3935995.0,3936686.0,3936918.0,3936517.0,3935614.0,3934459.0,3933451.0,3933144.0,3933292.0,3933432.0,3933568.0,3933425.0,3933223.0,3933229.0,3933107.0,3932868.0,3932950.0,3932826.0,3933294.0,3933744.0,3933412.0,3933153.0,3933201.0,3933098.0,3933526.0,3960454.0,3935520.0,3934334.0,3934230.0,3934461.0,3934971.0,3935629.0,3936356.0,3937972.0,3937442.0,3937267.0,3936465.020:25:02,3935346.0,3935076.0,3935116.0,3935147.0,3935113.0,3935036.0,3934913.0,3934984.0,3935253.0,3935964.0,3935562.0,3935241.0,3935223.0,3935420.0,3932505.0,3955733.0,3937467.0,3937568.0,3936431.0,3936716.0,3937148.0,3937675.0,3938528.0,3939073.0,3939765.0,3939615.0,3938951.0,3937871.0,3936749.0,3936452.0,3936516.0,3936854.0,3937120.0,3937167.0,3937214.0,3937219.0,3937106.0,3937201.0,3937157.0,3937137.0,3937875.0,3937768.0,3937304.0,3937140.0,3937190.0,3936443.0,3942333.0,3958300.0,3938956.0,3938109.0,3938093.0,3938410.0,3938913.0,3939497.0,3940304.0,3941009.0,3941190.0,3940851.0,3940089.0,3938972.0,3938276.0,3938368.0,3938223.0,3938469.0,3938453.0,3938436.0,3939166.0,3938096.0,3938063.0,3937849.0,3937754.0,3937891.0,3937892.0,3938491.0,3938094.0,3937685.0,3937622.0,3937625.0,3935040.0,3956683.0,3938834.0,3938607.0,3937911.0,3938146.0,3938438.0,3938849.0,3939092.0,3939811.0,3940232.0,3940165.0,3939554.0,3938352.0,3937374.0,3936917.0,3936860.0,3938447.0,3937455.0,3937027.0,3936804.0,3936662.020:25:04,3936936.0,3936531.0,3937145.0,3935539.0,3935654.0,3935485.0,3933202.0,3958223.0,3937259.0,3936150.0,3935812.0,3936000.0,3936419.0,3936892.0,3937444.0,3938106.0,3938362.0,3938096.0,3937311.0,3936123.0,3935117.0,3935027.0,3934925.0,3934907.0,3935215.0,3935219.0,3935840.0,3934938.0,3934853.0,3934700.0,3934627.0,3935456.0,3935132.0,3934575.0,3934373.0,3934404.0,3932111.0,3945773.0,3944837.0,3935745.0,3934880.0,3935058.0,3935413.0,3935852.0,3936458.0,3937154.0,3937925.0,3937764.0,3937245.0,3936167.0,3935069.0,3934395.0,3934400.0,3934635.0,3934679.0,3934740.0,3934633.0,3934513.0,3934392.0,3934355.0,3934205.0,3934599.0,3934906.0,3934504.0,3934254.0,3934238.0,3934196.0,3934115.0,3961133.0,3936292.0,3936102.0,3935139.0,3935432.0,3935845.0,3936339.0,3937068.0,3937636.0,3937859.0,3937596.0,3936738.0,3935662.0,3934717.0,3934582.0,3934816.0,3935014.0,3935110.0,3935181.0,3934965.0,3934975.0,3934820.0,3934845.0,3934607.0,3934852.0,3935468.0,3934915.0,3934550.0,3934610.0,3934485.0,3932490.0,3956165.020:25:06,3936660.0,3936269.0,3936743.0,3937370.0,3937954.0,3938098.0,3937693.0,3936818.0,3935906.0,3935008.0,3934920.0,3935100.0,3935100.0,3935245.0,3934968.0,3935003.0,3934839.0,3934765.0,3934690.0,3934581.0,3934452.0,3935148.0,3934854.0,3934434.0,3934163.0,3934096.0,3931710.0,3945495.0,3941931.0,3935347.0,3934496.0,3934590.0,3934855.0,3935296.0,3935996.0,3936629.0,3936835.0,3936875.0,3936280.0,3935372.0,3934720.0,3933690.0,3933484.0,3933624.0,3933737.0,3933696.0,3933359.0,3933310.0,3933053.0,3932829.0,3932789.0,3932578.0,3932813.0,3933155.0,3932640.0,3932274.0,3932189.0,3932054.0,3930333.0,3957838.0,3934291.0,3932914.0,3932778.0,3933017.0,3933379.0,3933943.0,3934541.0,3935249.0,3935503.0,3935219.0,3934507.0,3933310.0,3932351.0,3932085.0,3932077.0,3932271.0,3932507.0,3932534.0,3932338.0,3932282.0,3932098.0,3932163.0,3932154.0,3932573.0,3933295.0,3932338.0,3931994.0,3931885.0,3931932.0,3930328.0,3958108.0,3934199.0,3932892.0,3932614.0,3932944.0,3933346.0,3933774.0,3934428.0,3935172.0,3935699.020:25:08,3935372.0,3932330.0,3932572.0,3932915.0,3932927.0,3932820.0,3932651.0,3932554.0,3932492.0,3932354.0,3932385.0,3932462.0,3932617.0,3933163.0,3932822.0,3932423.0,3932437.0,3932387.0,3930217.0,3956154.0,3934602.0,3933482.0,3933274.0,3933551.0,3934051.0,3934500.0,3935135.0,3935905.0,3936250.0,3936164.0,3935530.0,3934518.0,3933593.0,3933265.0,3933748.0,3933429.0,3933585.0,3933644.0,3933510.0,3933423.0,3933303.0,3933330.0,3933262.0,3933322.0,3933376.0,3933550.0,3934270.0,3934185.0,3933968.0,3933850.0,3933830.0,3933279.0,3938109.0,3953150.0,3935735.0,3935083.0,3935146.0,3935471.0,3935994.0,3936556.0,3937347.0,3938094.0,3938336.0,3938246.0,3937719.0,3936615.0,3935929.0,3935923.0,3936172.0,3936428.0,3936541.0,3936575.0,3936588.0,3936686.0,3936560.0,3936528.0,3936493.0,3936628.0,3937687.0,3937561.0,3936901.0,3936743.0,3936702.0,3937097.0,3933969.0,3954444.0,3938301.0,3938516.0,3938120.0,3938284.0,3938767.0,3939214.0,3939963.0,3940818.0,3941210.0,3941300.0,3940704.0,3939801.0,3938550.0,3938069.020:25:10,3938189.0,3938999.0,3938885.0,3938819.0,3939647.0,3938933.0,3939139.0,3939838.0,3939501.0,3939203.0,3939180.0,3939201.0,3936230.0,3958284.0,3940779.0,3940577.0,3940117.0,3940592.0,3941069.0,3941673.0,3942299.0,3943036.0,3943624.0,3943545.0,3942898.0,3941742.0,3940626.0,3940290.0,3940398.0,3940635.0,3940806.0,3940910.0,3940827.0,3940736.0,3940632.0,3940724.0,3940732.0,3940798.0,3941567.0,3941535.0,3941007.0,3941003.0,3941185.0,3939763.0,3949065.0,3957017.0,3942901.0,3942013.0,3942956.0,3942716.0,3943150.0,3943735.0,3944482.0,3945296.0,3945480.0,3945090.0,3944095.0,3943190.0,3942647.0,3942748.0,3943081.0,3943277.0,3943409.0,3943447.0,3943536.0,3943399.0,3943295.0,3943431.0,3943372.0,3943545.0,3944361.0,3943939.0,3943669.0,3943606.0,3943715.0,3940883.0,3959147.0,3946461.0,3945304.0,3944873.0,3945236.0,3945672.0,3946171.0,3946680.0,3947408.0,3947985.0,3947874.0,3947898.0,3946189.0,3945104.0,3944711.0,3944793.0,3945058.0,3944763.0,3944757.0,3944637.0,3944480.0,3944492.0,3944315.0,3944313.020:25:13,3944291.0,3941778.0,3954900.0,3951954.0,3945147.0,3944346.0,3944482.0,3944773.0,3945064.0,3945564.0,3946193.0,3946866.0,3946773.0,3946360.0,3945124.0,3943984.0,3943185.0,3943155.0,3943418.0,3943572.0,3943540.0,3943456.0,3943360.0,3943150.0,3943146.0,3943019.0,3942836.0,3943532.0,3943323.0,3942818.0,3942759.0,3942620.0,3940544.0,3953725.0,3953337.0,3944229.0,3943338.0,3943456.0,3943847.0,3944419.0,3945922.0,3945767.0,3946569.0,3946627.0,3946272.0,3945663.0,3944005.0,3943330.0,3943288.0,3943560.0,3943735.0,3943815.0,3943625.0,3943617.0,3943419.0,3943466.0,3943362.0,3943899.0,3943995.0,3943579.0,3943358.0,3943296.0,3943058.0,3944496.0,3969418.0,3945227.0,3944502.0,3944575.0,3944876.0,3945316.0,3945883.0,3946559.0,3947407.0,3947691.0,3947510.0,3946556.0,3945272.0,3944550.0,3944456.0,3944525.0,3944841.0,3944912.0,3945066.0,3944949.0,3945407.0,3945002.0,3944917.0,3944976.0,3945117.0,3946070.0,3945342.0,3945057.0,3945071.0,3945039.0,3942203.0,3964398.0,3947104.0,3946317.0,3945920.0,3946112.020:25:15,3946516.0,3949316.0,3948928.0,3948144.0,3946872.0,3946247.0,3946054.0,3946137.0,3946224.0,3946276.0,3946748.0,3946216.0,3946169.0,3946087.0,3945938.0,3946091.0,3946055.0,3946342.0,3946559.0,3946095.0,3945808.0,3945670.0,3945592.0,3944453.0,3968577.0,3947506.0,3946300.0,3946015.0,3946394.0,3946773.0,3947253.0,3947850.0,3948589.0,3949189.0,3949235.0,3948681.0,3947689.0,3946888.0,3946819.0,3947131.0,3947325.0,3947658.0,3947800.0,3947827.0,3947883.0,3948089.0,3948283.0,3948600.0,3948848.0,3949419.0,3949940.0,3949934.0,3949921.0,3950069.0,3951071.0,3950451.0,3976646.0,3953860.0,3953121.0,3954330.0,3954430.0,3955437.0,3956542.0,3957475.0,3958843.0,3959706.0,3960058.0,3959821.0,3959161.0,3958785.0,3959170.0,3959934.0,3960715.0,3961578.0,3962133.0,3962493.0,3962827.0,3963328.0,3964097.0,3965020.0,3966048.0,3966771.0,3966699.0,3966559.0,3966629.0,3966661.0,3967906.0,3993774.0,3969914.0,3968969.0,3969039.0,3969669.0,3970387.0,3971161.0,3972177.0,3973196.0,3973931.0,3973897.0,3973687.0,3972335.020:25:17,3971721.0,3973245.0,3973451.0,3973585.0,3974028.0,3974354.0,3974625.0,3975704.0,3976101.0,3976179.0,3976440.0,3976893.0,3976346.0,3981429.0,4000033.0,3980591.0,3980338.0,3980647.0,3981430.0,3982354.0,3982884.0,3983752.0,3984644.0,3985133.0,3985614.0,3984073.0,3983074.0,3982627.0,3982764.0,3983173.0,3983565.0,3983847.0,3983922.0,3984009.0,3984079.0,3984070.0,3984201.0,3984806.0,3984984.0,3984613.0,3984379.0,3984258.0,3984119.0,3984964.0,4008644.0,3986202.0,3985318.0,3985217.0,3985599.0,3986165.0,3986761.0,3987368.0,3988228.0,3988737.0,3988478.0,3987546.0,3986302.0,3985525.0,3985289.0,3985367.0,3985500.0,3985557.0,3985427.0,3985154.0,3984975.0,3984849.0,3984622.0,3984729.0,3985998.0,3984940.0,3984275.0,3984366.0,3984285.0,3981601.0,4002436.0,3985250.0,3985113.0,3984596.0,3984681.0,3984959.0,3985405.0,3985874.0,3986582.0,3987115.0,3986900.0,3986138.0,3984682.0,3983432.0,3983040.0,3983015.0,3983174.0,3983221.0,3983188.0,3982867.0,3982769.0,3982594.0,3982439.0,3982253.0,3983087.0,3982499.020:25:19,3981852.0,4006143.0,3983439.0,3982108.0,3981811.0,3981985.0,3982373.0,3982788.0,3983341.0,3984121.0,3984355.0,3984067.0,3983198.0,3981702.0,3980677.0,3980289.0,3980356.0,3980556.0,3980556.0,3980626.0,3980588.0,3980315.0,3980151.0,3979992.0,3980188.0,3980712.0,3980163.0,3979708.0,3979620.0,3979504.0,3976280.0,4000186.0,3981221.0,3980638.0,3979908.0,3980084.0,3980500.0,3980976.0,3982160.0,3982205.0,3982754.0,3982581.0,3981859.0,3980630.0,3979398.0,3979082.0,3979066.0,3979325.0,3979467.0,3979512.0,3979309.0,3979165.0,3978996.0,3978892.0,3978908.0,3978892.0,3979393.0,3979297.0,3978886.0,3978703.0,3978564.0,3977753.0,3983535.0,3998518.0,3980396.0,3979380.0,3979356.0,3979794.0,3980264.0,3980792.0,3981521.0,3982180.0,3982530.0,3982183.0,3981204.0,3979911.0,3979164.0,3979127.0,3979027.0,3979208.0,3979320.0,3979417.0,3979771.0,3978920.0,3978892.0,3978811.0,3978808.0,3978678.0,3978643.0,3978562.0,3979073.0,3978869.0,3978443.0,3978062.0,3978046.0,3977099.0,3983582.0,3997355.0,3979368.0,3978260.020:25:21,3978175.0,3980269.0,3980798.0,3980766.0,3979942.0,3978560.0,3977268.0,3976886.0,3976869.0,3976857.0,3976973.0,3977093.0,3976996.0,3976767.0,3976590.0,3976529.0,3976310.0,3976337.0,3976144.0,3975930.0,3976646.0,3976230.0,3975958.0,3975665.0,3975483.0,3974334.0,3981516.0,3993529.0,3976704.0,3975847.0,3975856.0,3976212.0,3976750.0,3977349.0,3978169.0,3978944.0,3979320.0,3979338.0,3977869.0,3976475.0,3975431.0,3975173.0,3975460.0,3975650.0,3975750.0,3975821.0,3975696.0,3975453.0,3975272.0,3975263.0,3975239.0,3975204.0,3975225.0,3975316.0,3975903.0,3975896.0,3975604.0,3975386.0,3975242.0,3974769.0,3978060.0,4001543.0,3977134.0,3976101.0,3976073.0,3976289.0,3976792.0,3977237.0,3977871.0,3978658.0,3979149.0,3979019.0,3978128.0,3976917.0,3975839.0,3975750.0,3975832.0,3976034.0,3976292.0,3976333.0,3976271.0,3976708.0,3975977.0,3975878.0,3975877.0,3975917.0,3976204.0,3975865.0,3975909.0,3975933.0,3975995.0,3976721.0,3976426.0,3976175.0,3976062.0,3976090.0,3973384.0,3992968.0,3979305.0,3977712.020:25:23,3977063.0,3979016.0,3980695.0,3980433.0,3980572.0,3979670.0,3978524.0,3977671.0,3977262.0,3977283.0,3977424.0,3977518.0,3977614.0,3977432.0,3977330.0,3977068.0,3976907.0,3976790.0,3976554.0,3976417.0,3976425.0,3976473.0,3976324.0,3976429.0,3976930.0,3976860.0,3976499.0,3976286.0,3976168.0,3975620.0,3978954.0,3997847.0,3977406.0,3976422.0,3976350.0,3976614.0,3976848.0,3977327.0,3977949.0,3978608.0,3979145.0,3978900.0,3977942.0,3976613.0,3975619.0,3975186.0,3975971.0,3975354.0,3975480.0,3975395.0,3975227.0,3975302.0,3974794.0,3974739.0,3974461.0,3974413.0,3974351.0,3974397.0,3974281.0,3974876.0,3974664.0,3974276.0,3974082.0,3974102.0,3972624.0,3980197.0,3992088.0,3975657.0,3974937.0,3974956.0,3975232.0,3975691.0,3976141.0,3976856.0,3977672.0,3977922.0,3977592.0,3976692.0,3975341.0,3974306.0,3974042.0,3974101.0,3974364.0,3974510.0,3974536.0,3974448.0,3974388.0,3974267.0,3974159.0,3974242.0,3974929.0,3974263.0,3974227.0,3974807.0,3974746.0,3974344.0,3973991.0,3974066.0,3972620.0,3981007.020:25:26,3991831.0,3975462.0,3975987.0,3976560.0,3977265.0,3977934.0,3978609.0,3977360.0,3976037.0,3975047.0,3974509.0,3974826.0,3974857.0,3975062.0,3975117.0,3975121.0,3975136.0,3975059.0,3975004.0,3974896.0,3974860.0,3974885.0,3974876.0,3974838.0,3975011.0,3975583.0,3975159.0,3974759.0,3974835.0,3974727.0,3973264.0,3998985.0,3977079.0,3975807.0,3975565.0,3975845.0,3976204.0,3976723.0,3977440.0,3978004.0,3978521.0,3978502.0,3977836.0,3976664.0,3975674.0,3975096.0,3975131.0,3975210.0,3975201.0,3975022.0,3975698.0,3974766.0,3974671.0,3974506.0,3974367.0,3974278.0,3974128.0,3974124.0,3974436.0,3974774.0,3974268.0,3973789.0,3973701.0,3973514.0,3973255.0,3998462.0,3975480.0,3974251.0,3973935.0,3974008.0,3974366.0,3974795.0,3975354.0,3975982.0,3976575.0,3976378.0,3975756.0,3974500.0,3973396.0,3972773.0,3972828.0,3973034.0,3973032.0,3973022.0,3972902.0,3972667.0,3972564.0,3972391.0,3972369.0,3972166.0,3972106.0,3972944.0,3972692.0,3972132.0,3972908.0,3972148.0,3969531.0,3984860.0,3982528.0,3973879.020:25:28,3972957.0,3974844.0,3975555.0,3976185.0,3976119.0,3975416.0,3974254.0,3973232.0,3972890.0,3973016.0,3973232.0,3973468.0,3973439.0,3973495.0,3973240.0,3974047.0,3973177.0,3973063.0,3973151.0,3973443.0,3974003.0,3973446.0,3973127.0,3973077.0,3973242.0,3972364.0,3998163.0,3975568.0,3974407.0,3974265.0,3974573.0,3975027.0,3975377.0,3976086.0,3976843.0,3977414.0,3977347.0,3976643.0,3975507.0,3974507.0,3974169.0,3974265.0,3974403.0,3974495.0,3974529.0,3974547.0,3974493.0,3974397.0,3974392.0,3974333.0,3974458.0,3974998.0,3975081.0,3974609.0,3974633.0,3974367.0,3973986.0,3976127.0,3997106.0,3976546.0,3975044.0,3974964.0,3975211.0,3975542.0,3976205.0,3976527.0,3977121.0,3977439.0,3977171.0,3976501.0,3975335.0,3974516.0,3974153.0,3974075.0,3974124.0,3974127.0,3974119.0,3973873.0,3973597.0,3973414.0,3973162.0,3973117.0,3972966.0,3973664.0,3973266.0,3972747.0,3972514.0,3972357.0,3971450.0,3977872.0,3989198.0,3973487.0,3972793.0,3972729.0,3973033.0,3973365.0,3973880.0,3974336.0,3975078.0,3975145.020:25:30,3974780.0,3971610.0,3971728.0,3971503.0,3971389.0,3971104.0,3970984.0,3970876.0,3970789.0,3970873.0,3971487.0,3970833.0,3970553.0,3971261.0,3970504.0,3967847.0,3993817.0,3972653.0,3971535.0,3971073.0,3971164.0,3971572.0,3972248.0,3972851.0,3973470.0,3974025.0,3973924.0,3973287.0,3972013.0,3970755.0,3970326.0,3970453.0,3970660.0,3970834.0,3970939.0,3970808.0,3970842.0,3970768.0,3970626.0,3970595.0,3971005.0,3971087.0,3970684.0,3970361.0,3970300.0,3970193.0,3970759.0,3997158.0,3972226.0,3971125.0,3971066.0,3971396.0,3971874.0,3972140.0,3973033.0,3973925.0,3974297.0,3974378.0,3973260.0,3972140.0,3971193.0,3971087.0,3971695.0,3971379.0,3971450.0,3971583.0,3971450.0,3971364.0,3971289.0,3971164.0,3971181.0,3971162.0,3971953.0,3971780.0,3971332.0,3971323.0,3971345.0,3968780.0,3985232.0,3976905.0,3973166.0,3972562.0,3972807.0,3973204.0,3973785.0,3974291.0,3975071.0,3975924.0,3976017.0,3975525.0,3974547.0,3973456.0,3973065.0,3973159.0,3973329.0,3973579.0,3973560.0,3973592.0,3973459.0,3973349.020:25:32,3973286.0,3973602.0,3973439.0,3972747.0,3972754.0,3972776.0,3971254.0,3997182.0,3974737.0,3973485.0,3973221.0,3973385.0,3973789.0,3974054.0,3974787.0,3975341.0,3975873.0,3975772.0,3975108.0,3973993.0,3972884.0,3972459.0,3972369.0,3972566.0,3972527.0,3972528.0,3972358.0,3972149.0,3972033.0,3971756.0,3971742.0,3971577.0,3972216.0,3972050.0,3971354.0,3971207.0,3971274.0,3969957.0,3978613.0,3988982.0,3972695.0,3971858.0,3971898.0,3972178.0,3972658.0,3973312.0,3974029.0,3974518.0,3974724.0,3974241.0,3973359.0,3972633.0,3971023.0,3970968.0,3971092.0,3971396.0,3971556.0,3971510.0,3971278.0,3971190.0,3971074.0,3971017.0,3971031.0,3971453.0,3971597.0,3971149.0,3970877.0,3970793.0,3970633.0,3971717.0,3996761.0,3972517.0,3971563.0,3971444.0,3971692.0,3972042.0,3972573.0,3973320.0,3974080.0,3974434.0,3974184.0,3973403.0,3972244.0,3971332.0,3971069.0,3971122.0,3971270.0,3971470.0,3971497.0,3971386.0,3971231.0,3971089.0,3971034.0,3970969.0,3970979.0,3972493.0,3971425.0,3970944.0,3970991.0,3970894.020:25:34,3968299.0,3971605.0,3971927.0,3972340.0,3972813.0,3973367.0,3974155.0,3974674.0,3974491.0,3973876.0,3972979.0,3971977.0,3971677.0,3971730.0,3972054.0,3972067.0,3972948.0,3972026.0,3971955.0,3971827.0,3971823.0,3971912.0,3971744.0,3971698.0,3972420.0,3972369.0,3972011.0,3971908.0,3971903.0,3970706.0,3979747.0,3986273.0,3973638.0,3972718.0,3972878.0,3973226.0,3973625.0,3974122.0,3974937.0,3975517.0,3975758.0,3975407.0,3974440.0,3973244.0,3972554.0,3972411.0,3972592.0,3972760.0,3972847.0,3972901.0,3972853.0,3972677.0,3972632.0,3972571.0,3972539.0,3972619.0,3972228.0,3972327.0,3972213.0,3972915.0,3973440.0,3972198.0,3972054.0,3971892.0,3969572.0,3982147.0,3983133.0,3973237.0,3972433.0,3972434.0,3972876.0,3973338.0,3973791.0,3974592.0,3975016.0,3975341.0,3974608.0,3973629.0,3972328.0,3971632.0,3971513.0,3971582.0,3971740.0,3971843.0,3971595.0,3971429.0,3971324.0,3971243.0,3971177.0,3971201.0,3971277.0,3971990.0,3971563.0,3971204.0,3971072.0,3971041.0,3968013.0,3990536.0,3972423.0,3972252.020:25:37,3971749.0,3973795.0,3974441.0,3974902.0,3974604.0,3973575.0,3972242.0,3971384.0,3971120.0,3971227.0,3971451.0,3971486.0,3971533.0,3971324.0,3971244.0,3971107.0,3971081.0,3971037.0,3971527.0,3971893.0,3971607.0,3971211.0,3971190.0,3971114.0,3969999.0,3997177.0,3973389.0,3972100.0,3971985.0,3972133.0,3972640.0,3973092.0,3973607.0,3974389.0,3974971.0,3974813.0,3974023.0,3972767.0,3971834.0,3971459.0,3971609.0,3971737.0,3971984.0,3972062.0,3971952.0,3971857.0,3971751.0,3971617.0,3971618.0,3971475.0,3972177.0,3973096.0,3971699.0,3971503.0,3971488.0,3969705.0,3981202.0,3983882.0,3973111.0,3972261.0,3972390.0,3972875.0,3973332.0,3973879.0,3974499.0,3975048.0,3975159.0,3974721.0,3973528.0,3972814.0,3971684.0,3971488.0,3971426.0,3971680.0,3971743.0,3971600.0,3971382.0,3971174.0,3971026.0,3970871.0,3970800.0,3970707.0,3971440.0,3971322.0,3970666.0,3970543.0,3970478.0,3968252.0,3981733.0,3978187.0,3971604.0,3970750.0,3970793.0,3971172.0,3971467.0,3972043.0,3972626.0,3973126.0,3973317.0,3972791.020:25:39,3971724.0,3969698.0,3969764.0,3969758.0,3969495.0,3969332.0,3969245.0,3969139.0,3968997.0,3968947.0,3969073.0,3969768.0,3969236.0,3968929.0,3968833.0,3968806.0,3966571.0,3992398.0,3971019.0,3969707.0,3969354.0,3969590.0,3969973.0,3970563.0,3971065.0,3971764.0,3972340.0,3972267.0,3971579.0,3970366.0,3969306.0,3968891.0,3969026.0,3969303.0,3969953.0,3969473.0,3969481.0,3969240.0,3969145.0,3969720.0,3969154.0,3968949.0,3969037.0,3969357.0,3969896.0,3969280.0,3968976.0,3968966.0,3968937.0,3966313.0,3990337.0,3971388.0,3970287.0,3970052.0,3970322.0,3970646.0,3971213.0,3971751.0,3972394.0,3973079.0,3973372.0,3972547.0,3971338.0,3970252.0,3969836.0,3969807.0,3969965.0,3970090.0,3970225.0,3970111.0,3970021.0,3969943.0,3969954.0,3969951.0,3970021.0,3970027.0,3970051.0,3970679.0,3970988.0,3970235.0,3969978.0,3969919.0,3969420.0,3974391.0,3989647.0,3971534.0,3970729.0,3970620.0,3970942.0,3971250.0,3971787.0,3972373.0,3973047.0,3973372.0,3973184.0,3972323.0,3971142.0,3970271.0,3970058.0,3969965.020:25:41,3970101.0,3969647.0,3969456.0,3969453.0,3969284.0,3969122.0,3968968.0,3969098.0,3969680.0,3969155.0,3968660.0,3968596.0,3968457.0,3965643.0,3985005.0,3969731.0,3969278.0,3968835.0,3968922.0,3969307.0,3969844.0,3970235.0,3971017.0,3971429.0,3971241.0,3970846.0,3969660.0,3968377.0,3967585.0,3967591.0,3967747.0,3967726.0,3967741.0,3968358.0,3967460.0,3967303.0,3967180.0,3967146.0,3967713.0,3967085.0,3967531.0,3967812.0,3967334.0,3967044.0,3966885.0,3966905.0,3965879.0,3993395.0,3969186.0,3967645.0,3967503.0,3967757.0,3968107.0,3968644.0,3969245.0,3969941.0,3970457.0,3970285.0,3969602.0,3968419.0,3967385.0,3967091.0,3967165.0,3967315.0,3967429.0,3967448.0,3967304.0,3967173.0,3967135.0,3966966.0,3966999.0,3966968.0,3966933.0,3967478.0,3967443.0,3967066.0,3966808.0,3967186.0,3966255.0,3971442.0,3987641.0,3968707.0,3967878.0,3967766.0,3968100.0,3968446.0,3969094.0,3969666.0,3970482.0,3970744.0,3970442.0,3969564.0,3968406.0,3967523.0,3967215.0,3967233.0,3967498.0,3967707.0,3967667.0,3967641.020:25:43,3967481.0,3967678.0,3967991.0,3967562.0,3967217.0,3967187.0,3967063.0,3966623.0,3991907.0,3969004.0,3968026.0,3967904.0,3968819.0,3968672.0,3969130.0,3969680.0,3970321.0,3971093.0,3970632.0,3969840.0,3968611.0,3967802.0,3967409.0,3967309.0,3967491.0,3967478.0,3967439.0,3967333.0,3967097.0,3966863.0,3966691.0,3966588.0,3966495.0,3966457.0,3966980.0,3966992.0,3966528.0,3966360.0,3966236.0,3965830.0,3968042.0,3988358.0,3967381.0,3966516.0,3966378.0,3966597.0,3966893.0,3967255.0,3967959.0,3968472.0,3968796.0,3968359.0,3967521.0,3966356.0,3965453.0,3965210.0,3966099.0,3965293.0,3965568.0,3965192.0,3965054.0,3965085.0,3964698.0,3964610.0,3964447.0,3964496.0,3965174.0,3964699.0,3964063.0,3964078.0,3963934.0,3961150.0,3983186.0,3965434.0,3965017.0,3964377.0,3964677.0,3965079.0,3965711.0,3966293.0,3966912.0,3967387.0,3967264.0,3966550.0,3965459.0,3964244.0,3963675.0,3963835.0,3963836.0,3964068.0,3964097.0,3963791.0,3963769.0,3963587.0,3963504.0,3963485.0,3963731.0,3964352.0,3963866.0,3963451.020:25:45,3964095.0,3964780.0,3963928.0,3963874.0,3964229.0,3964773.0,3965314.0,3965869.0,3966515.0,3966887.0,3966624.0,3965690.0,3964383.0,3963647.0,3963480.0,3963513.0,3963697.0,3963811.0,3963756.0,3963638.0,3963524.0,3963334.0,3963356.0,3963274.0,3963462.0,3963970.0,3964439.0,3963241.0,3963241.0,3963160.0,3961566.0,3988120.0,3965383.0,3964116.0,3963950.0,3964157.0,3964677.0,3965119.0,3965704.0,3966203.0,3966651.0,3966465.0,3965804.0,3964741.0,3963733.0,3963366.0,3963518.0,3963683.0,3963775.0,3963784.0,3963804.0,3963747.0,3963495.0,3963463.0,3963263.0,3963403.0,3964080.0,3963467.0,3963101.0,3963127.0,3963000.0,3960194.0,3982290.0,3964321.0,3963973.0,3963389.0,3963555.0,3963931.0,3964349.0,3964972.0,3966634.0,3966137.0,3966284.0,3965737.0,3964469.0,3963865.0,3963032.0,3963035.0,3963183.0,3963281.0,3963395.0,3963314.0,3963209.0,3963160.0,3962958.0,3963056.0,3963277.0,3963834.0,3963464.0,3963053.0,3963277.0,3963199.0,3961232.0,3986892.0,3965685.0,3964655.0,3964647.0,3964722.0,3965272.0,3965651.020:25:47,3966353.0,3966702.0,3965480.0,3964807.0,3964633.0,3964848.0,3965220.0,3965298.0,3965388.0,3965402.0,3965266.0,3965263.0,3965201.0,3965191.0,3965976.0,3965740.0,3965320.0,3965437.0,3965382.0,3963304.0,3976651.0,3976683.0,3967355.0,3966488.0,3966659.0,3967033.0,3967595.0,3968060.0,3968834.0,3969522.0,3969788.0,3969248.0,3968259.0,3967084.0,3966567.0,3966403.0,3966676.0,3966830.0,3966877.0,3966938.0,3967784.0,3966888.0,3966765.0,3966871.0,3966888.0,3967020.0,3967405.0,3967626.0,3967214.0,3966912.0,3966928.0,3966832.0,3966651.0,3993293.0,3968854.0,3967978.0,3967704.0,3968036.0,3968431.0,3968896.0,3969517.0,3970296.0,3970753.0,3970659.0,3969948.0,3968925.0,3967991.0,3967855.0,3967892.0,3968133.0,3968324.0,3968283.0,3968252.0,3968205.0,3968000.0,3968066.0,3967895.0,3967926.0,3967844.0,3967822.0,3968549.0,3968436.0,3968042.0,3968043.0,3968750.0,3966285.0,3978603.0,3978865.0,3969854.0,3969274.0,3969132.0,3969539.0,3970011.0,3970677.0,3971456.0,3972211.0,3972585.0,3972433.0,3971718.0,3970882.020:25:50,3970360.0,3972091.0,3972357.0,3972653.0,3972836.0,3973203.0,3973269.0,3973679.0,3973878.0,3974477.0,3975575.0,3975282.0,3975546.0,3975699.0,3976249.0,3973965.0,3997105.0,3978350.0,3978944.0,3978817.0,3979493.0,3980239.0,3981253.0,3982041.0,3983223.0,3984245.0,3984708.0,3984542.0,3984025.0,3983239.0,3982943.0,3983337.0,3983833.0,3984373.0,3984887.0,3985166.0,3985399.0,3985728.0,3986019.0,3986309.0,3986511.0,3986770.0,3987252.0,3988261.0,3988775.0,3988857.0,3989226.0,3989526.0,3987650.0,4012457.0,3992693.0,3991866.0,3991602.0,3992267.0,3993710.0,3993728.0,3994717.0,3995671.0,3996379.0,3997146.0,3996487.0,3995592.0,3994731.0,3994508.0,3994917.0,3995304.0,3995862.0,3996135.0,3996280.0,3996111.0,3996117.0,3996130.0,3996099.0,3996047.0,3996223.0,3996334.0,3997088.0,3997062.0,3996715.0,3996713.0,3996840.0,3995782.0,4004579.0,4014358.0,3999653.0,3998700.0,3998854.0,3999278.0,3999693.0,4000197.0,4000846.0,4001561.0,4001842.0,4001537.0,4000700.0,3999618.0,3998892.0,3998772.0,3999225.0,3999150.020:25:52,3999300.0,3998876.0,3998956.0,3998969.0,3999066.0,3999053.0,3999240.0,3999679.0,3999317.0,3999728.0,3998901.0,3998842.0,3997164.0,4022326.0,4001075.0,3999868.0,3999555.0,3999688.0,4000079.0,4000582.0,4001135.0,4001864.0,4002335.0,4002179.0,4001845.0,4000767.0,3999796.0,3999246.0,3999124.0,3999229.0,3999170.0,3999100.0,3998859.0,3998574.0,3998346.0,3998207.0,3998028.0,3997750.0,3997570.0,3997399.0,3998083.0,3997834.0,3997221.0,3997137.0,3996979.0,3994919.0,4007475.0,4005607.0,3997968.0,3997132.0,3997074.0,3997223.0,3997602.0,3998703.0,3998466.0,3999040.0,3998939.0,3998528.0,3997708.0,3996236.0,3995434.0,3995162.0,3995300.0,3995372.0,3995172.0,3995048.0,3995042.0,3994674.0,3994519.0,3994318.0,3994207.0,3993898.0,3994249.0,3994253.0,3993658.0,3993267.0,3993207.0,3992528.0,3995620.0,4014380.0,3994316.0,3993265.0,3993097.0,3993308.0,3993778.0,3994227.0,3994858.0,3995433.0,3995642.0,3995310.0,3994460.0,3993365.0,3992369.0,3992085.0,3992060.0,3992149.0,3992187.0,3992545.0,3991830.0,3991705.020:25:54,3991618.0,3991681.0,3991329.0,3991179.0,3991225.0,3988511.0,4012868.0,3993062.0,3992039.0,3991654.0,3991861.0,3992279.0,3992723.0,3993436.0,3993975.0,3994799.0,3994357.0,3993766.0,3992888.0,3991462.0,3991501.0,3991177.0,3991320.0,3991485.0,3991491.0,3991398.0,3991269.0,3991076.0,3991129.0,3990952.0,3991679.0,3991542.0,3991163.0,3991092.0,3991267.0,3988535.0,4004598.0,3999548.0,3992980.0,3992089.0,3992292.0,3992862.0,3993341.0,3994021.0,3994863.0,3995707.0,3995995.0,3995718.0,3994914.0,3994105.0,3993990.0,3994279.0,3994873.0,3995488.0,3995976.0,3996408.0,3996796.0,3997745.0,3997600.0,3998035.0,3998777.0,3999839.0,4000701.0,4000182.0,4000621.0,4001257.0,3999774.0,4025072.0,4004912.0,4004385.0,4004737.0,4005323.0,4006245.0,4007342.0,4008419.0,4009555.0,4010481.0,4010798.0,4010739.0,4010227.0,4009705.0,4009885.0,4010571.0,4011232.0,4011444.0,4011455.0,4011642.0,4011815.0,4011977.0,4012225.0,4012305.0,4012688.0,4013403.0,4013142.0,4012942.0,4012929.0,4013060.0,4010709.0,4033654.0,4014976.020:25:56,4014340.0,4015221.0,4015692.0,4016411.0,4016474.0,4016049.0,4014956.0,4013832.0,4012970.0,4012814.0,4012947.0,4013059.0,4013161.0,4013082.0,4012982.0,4012744.0,4012639.0,4012790.0,4012504.0,4012909.0,4012377.0,4012024.0,4012409.0,4011896.0,4011267.0,4037592.0,4013939.0,4012490.0,4012170.0,4012281.0,4012655.0,4013215.0,4013821.0,4014487.0,4014754.0,4014455.0,4013561.0,4012381.0,4011410.0,4011173.0,4011200.0,4011481.0,4011546.0,4011557.0,4011460.0,4011233.0,4011119.0,4011063.0,4011525.0,4011568.0,4010987.0,4010703.0,4010747.0,4010397.0,4012188.0,4035600.0,4012391.0,4011400.0,4011243.0,4011626.0,4012123.0,4013551.0,4013386.0,4014194.0,4014509.0,4014306.0,4013655.0,4012363.0,4011634.0,4011538.0,4011737.0,4012101.0,4012125.0,4012269.0,4012107.0,4011941.0,4011966.0,4011718.0,4011930.0,4012346.0,4011973.0,4011581.0,4011504.0,4011485.0,4009430.0,4035299.0,4013637.0,4012485.0,4012219.0,4012361.0,4012752.0,4013179.0,4013790.0,4014365.0,4014765.0,4014579.0,4013787.0,4012657.0,4011801.0,4011416.020:25:58,4011376.0,4011401.0,4011227.0,4011010.0,4010856.0,4010707.0,4010832.0,4011065.0,4010561.0,4010191.0,4009991.0,4009883.0,4008370.0,4033654.0,4011651.0,4010519.0,4010102.0,4010153.0,4010506.0,4010855.0,4011370.0,4011889.0,4012218.0,4011842.0,4011165.0,4009914.0,4009331.0,4008282.0,4008285.0,4008388.0,4008568.0,4009031.0,4008155.0,4007997.0,4007792.0,4007623.0,4007482.0,4007280.0,4007807.0,4007695.0,4007079.0,4006881.0,4006684.0,4005264.0,4013918.0,4023381.0,4007863.0,4006930.0,4006852.0,4007110.0,4007516.0,4007920.0,4008532.0,4009321.0,4009466.0,4008997.0,4007927.0,4006697.0,4005874.0,4005510.0,4005600.0,4005814.0,4005841.0,4005898.0,4005734.0,4005431.0,4005338.0,4005133.0,4005017.0,4005177.0,4005855.0,4005316.0,4004912.0,4004857.0,4004894.0,4002072.0,4023230.0,4007778.0,4006188.0,4005529.0,4005844.0,4005951.0,4006493.0,4007031.0,4007750.0,4008322.0,4008327.0,4007701.0,4006531.0,4005348.0,4005566.0,4004896.0,4005029.0,4005403.0,4005461.0,4005468.0,4005332.0,4005255.0,4005168.0,4005252.020:26:00,4005136.0,4005222.0,4005050.0,4004990.0,4004564.0,4031205.0,4007429.0,4006200.0,4005885.0,4006179.0,4006567.0,4007045.0,4007605.0,4008332.0,4008770.0,4008654.0,4007987.0,4006776.0,4005862.0,4005532.0,4005534.0,4005724.0,4006023.0,4006057.0,4006020.0,4005909.0,4005817.0,4005843.0,4005900.0,4005823.0,4005723.0,4005923.0,4006364.0,4006005.0,4005662.0,4005581.0,4005593.0,4003489.0,4028076.0,4007664.0,4007220.0,4006126.0,4006282.0,4006709.0,4007295.0,4007992.0,4008735.0,4009358.0,4009315.0,4008679.0,4007517.0,4006305.0,4005887.0,4005767.0,4005925.0,4005987.0,4005982.0,4005794.0,4005664.0,4005422.0,4005146.0,4005074.0,4004935.0,4004829.0,4005113.0,4005372.0,4004885.0,4004564.0,4004531.0,4004391.0,4003535.0,4030268.0,4006412.0,4004987.0,4004784.0,4004965.0,4005088.0,4005680.0,4006228.0,4006828.0,4007347.0,4007130.0,4006252.0,4005105.0,4004686.0,4003680.0,4003615.0,4003940.0,4004070.0,4004416.0,4004093.0,4003921.0,4003749.0,4003642.0,4003706.0,4003530.0,4004310.0,4004186.0,4003536.0,4003607.020:26:03,4003440.0,4004163.0,4004299.0,4004551.0,4005122.0,4005670.0,4006212.0,4007061.0,4007454.0,4007132.0,4006176.0,4004960.0,4004141.0,4003818.0,4003994.0,4004283.0,4004507.0,4004481.0,4004335.0,4004155.0,4004166.0,4004044.0,4003971.0,4004054.0,4004372.0,4004669.0,4004444.0,4004025.0,4004130.0,4004451.0,4005215.0,4030562.0,4006222.0,4005166.0,4005606.0,4005295.0,4005695.0,4006250.0,4006731.0,4007500.0,4007941.0,4007834.0,4006952.0,4005919.0,4004959.0,4004637.0,4004780.0,4004938.0,4005282.0,4005229.0,4005284.0,4005140.0,4005074.0,4004982.0,4004891.0,4004934.0,4004895.0,4005531.0,4005464.0,4005097.0,4004823.0,4004770.0,4004073.0,4008695.0,4024039.0,4006255.0,4005384.0,4005426.0,4005740.0,4006093.0,4006549.0,4007134.0,4007785.0,4008170.0,4007674.0,4006841.0,4005693.0,4004876.0,4005259.0,4004592.0,4004826.0,4004785.0,4004737.0,4004651.0,4004387.0,4004188.0,4004103.0,4003947.0,4003934.0,4004192.0,4004734.0,4004217.0,4003785.0,4003764.0,4003599.0,4001955.0,4028371.0,4005732.0,4004316.0,4004123.020:26:05,4004262.0,4006496.0,4006667.0,4006384.0,4005607.0,4004294.0,4003407.0,4003057.0,4003181.0,4003368.0,4003429.0,4003254.0,4003279.0,4003055.0,4002960.0,4002842.0,4002787.0,4002779.0,4003534.0,4003260.0,4002906.0,4002825.0,4002826.0,4001814.0,4007054.0,4023899.0,4004253.0,4003447.0,4003372.0,4003787.0,4004185.0,4004846.0,4005347.0,4006014.0,4006340.0,4005917.0,4004998.0,4003887.0,4003043.0,4002907.0,4002917.0,4003278.0,4003562.0,4003690.0,4003404.0,4003331.0,4003212.0,4003185.0,4003769.0,4003049.0,4003800.0,4003632.0,4003237.0,4003136.0,4003046.0,4001902.0,4009581.0,4020955.0,4004655.0,4003695.0,4003748.0,4004190.0,4004679.0,4005212.0,4005885.0,4006570.0,4006840.0,4006411.0,4005651.0,4004463.0,4003644.0,4003558.0,4003710.0,4003990.0,4004123.0,4004101.0,4004104.0,4003852.0,4003863.0,4003781.0,4003802.0,4003903.0,4003844.0,4004235.0,4004795.0,4004476.0,4004159.0,4004283.0,4004212.0,4002168.0,4027831.0,4006468.0,4006158.0,4004954.0,4005234.0,4005647.0,4006085.0,4006654.0,4007312.0,4007710.020:26:07,4007561.0,4005009.0,4005093.0,4005131.0,4005289.0,4005118.0,4005001.0,4004787.0,4004826.0,4004485.0,4004581.0,4004503.0,4004493.0,4004652.0,4004593.0,4005245.0,4004782.0,4004429.0,4004347.0,4004210.0,4001643.0,4022871.0,4005391.0,4005059.0,4004563.0,4004672.0,4005083.0,4005470.0,4005967.0,4006413.0,4006905.0,4006784.0,4006352.0,4005283.0,4004372.0,4003705.0,4003743.0,4003872.0,4004147.0,4004027.0,4003788.0,4003791.0,4003554.0,4003559.0,4003358.0,4003334.0,4003214.0,4003131.0,4003577.0,4003651.0,4003263.0,4002958.0,4002912.0,4002417.0,4005793.0,4027244.0,4004607.0,4003877.0,4003750.0,4003983.0,4004280.0,4004854.0,4006409.0,4006022.0,4006340.0,4006130.0,4005353.0,4004281.0,4003307.0,4003087.0,4003136.0,4003324.0,4003449.0,4003395.0,4003402.0,4003312.0,4003193.0,4003230.0,4003247.0,4003255.0,4003434.0,4004029.0,4003602.0,4003217.0,4003136.0,4003173.0,4000853.0,4026082.0,4005513.0,4004109.0,4003718.0,4004089.0,4004475.0,4004847.0,4005565.0,4006184.0,4006748.0,4006691.0,4006004.0,4005052.020:26:09,4004029.0,4003957.0,4003988.0,4003951.0,4003709.0,4003761.0,4003722.0,4003700.0,4003688.0,4004389.0,4004330.0,4003840.0,4003611.0,4003616.0,4002536.0,4010322.0,4021909.0,4005218.0,4004311.0,4004347.0,4004692.0,4005058.0,4005879.0,4006205.0,4006840.0,4007080.0,4006740.0,4006547.0,4004894.0,4004319.0,4003927.0,4003932.0,4004188.0,4004182.0,4004080.0,4003945.0,4003724.0,4003592.0,4003475.0,4003291.0,4003222.0,4003532.0,4003712.0,4003253.0,4002842.0,4002822.0,4002613.0,4003554.0,4026707.0,4004382.0,4003372.0,4003283.0,4003416.0,4003714.0,4004228.0,4004792.0,4005298.0,4005601.0,4005240.0,4004558.0,4003403.0,4002266.0,4001931.0,4001865.0,4002229.0,4002239.0,4002397.0,4002055.0,4002159.0,4001794.0,4001746.0,4002473.0,4001502.0,4001916.0,4001918.0,4001417.0,4001150.0,4001086.0,4000563.0,4002826.0,4024936.0,4002548.0,4001584.0,4001568.0,4001935.0,4002411.0,4002882.0,4003576.0,4004249.0,4004547.0,4004270.0,4003436.0,4002135.0,4001285.0,4001272.0,4001048.0,4001330.0,4001467.0,4001499.0,4001337.020:26:11,4001227.0,4001614.0,4001714.0,4001195.0,4000912.0,4000851.0,4000227.0,4004893.0,4022001.0,4002441.0,4001659.0,4001624.0,4001955.0,4002359.0,4002864.0,4003358.0,4004171.0,4004521.0,4004209.0,4003331.0,4002191.0,4001548.0,4001289.0,4001421.0,4001614.0,4001736.0,4001700.0,4001640.0,4001519.0,4001375.0,4001319.0,4001595.0,4001138.0,4001653.0,4001835.0,4001489.0,4001802.0,4001244.0,4001020.0,4002956.0,4026499.0,4003199.0,4002253.0,4002081.0,4002357.0,4002671.0,4003271.0,4003821.0,4004381.0,4004707.0,4004538.0,4003812.0,4002656.0,4001601.0,4001395.0,4001548.0,4001754.0,4001860.0,4001788.0,4001678.0,4001617.0,4001448.0,4001292.0,4001196.0,4001045.0,4001088.0,4001671.0,4001250.0,4000778.0,4000572.0,4000665.0,3998238.0,4022166.0,4002466.0,4001334.0,4001503.0,4001150.0,4001476.0,4001857.0,4002438.0,4003541.0,4003554.0,4003453.0,4002793.0,4001502.0,4000459.0,3999712.0,3999653.0,4000002.0,4000000.0,4000137.0,3999914.0,3999555.0,3999371.0,3999265.0,3999049.0,3999187.0,3999944.0,3999527.0,3998882.020:26:13,3998873.0,4001047.0,3999266.0,3999260.0,3999290.0,3999678.0,4000736.0,4000905.0,4001675.0,4002102.0,4001851.0,4001125.0,3999751.0,3998575.0,3998315.0,3998345.0,3998567.0,3998767.0,3998825.0,3998612.0,3998548.0,3998400.0,3998204.0,3998149.0,3998798.0,3998570.0,3997993.0,3997944.0,3997947.0,3995897.0,4008932.0,4010214.0,3999635.0,3998707.0,3998851.0,3999210.0,3999627.0,4000159.0,4000873.0,4001682.0,4001784.0,4001299.0,4000109.0,3998694.0,3997987.0,3998447.0,3998020.0,3998255.0,3998467.0,3998550.0,3999191.0,3998183.0,3998207.0,3998136.0,3998145.0,3998311.0,3998839.0,3998480.0,3997993.0,3997944.0,3997934.0,3994871.0,4013035.0,4001923.0,3999273.0,3998529.0,3998650.0,3998987.0,3999446.0,4000131.0,4000707.0,4001402.0,4001487.0,4000914.0,3999942.0,3998704.0,3998189.0,3998071.0,3998239.0,3998411.0,3998513.0,3998585.0,3998350.0,3998147.0,3998054.0,3997905.0,3997904.0,3997766.0,3997644.0,3998351.0,3998284.0,3997983.0,3997607.0,3997615.0,3997716.0,3999318.0,4022951.0,3999349.0,3998288.0,3998131.020:26:16,3998369.0,4000521.0,4000610.0,4000388.0,3999424.0,3998056.0,3997319.0,3997111.0,3997129.0,3997268.0,3997311.0,3997302.0,3997064.0,3997003.0,3996699.0,3997289.0,3996404.0,3996303.0,3996241.0,3996005.0,3996996.0,3996718.0,3996216.0,3995972.0,3996018.0,3995603.0,3997740.0,4020651.0,3997457.0,3996621.0,3996339.0,3996506.0,3996982.0,3997309.0,3997931.0,3998763.0,3999078.0,3998975.0,3998088.0,3996648.0,3995663.0,3995145.0,3995068.0,3995365.0,3995683.0,3995677.0,3995640.0,3995519.0,3995421.0,3995336.0,3995146.0,3995067.0,3995155.0,3995090.0,3995754.0,3995550.0,3995104.0,3995006.0,3994949.0,3993096.0,4006357.0,4006126.0,3996333.0,3995486.0,3996484.0,3996050.0,3996405.0,3997178.0,3997816.0,3998630.0,3998800.0,3998388.0,3997222.0,3995837.0,3995120.0,3994890.0,3995025.0,3995144.0,3995599.0,3995499.0,3995251.0,3995210.0,3994972.0,3994978.0,3994985.0,3995034.0,3995001.0,3995070.0,3995759.0,3995461.0,3995040.0,3994977.0,3994923.0,3992032.0,4012973.0,3996582.0,3996073.0,3995533.0,3995673.0,3996007.020:26:18,3996431.0,3998311.0,3997408.0,3996062.0,3995053.0,3994630.0,3994769.0,3994833.0,3994995.0,3995073.0,3994852.0,3994775.0,3994539.0,3994440.0,3994460.0,3994406.0,3994273.0,3994225.0,3994762.0,3994660.0,3994064.0,3993891.0,3993812.0,3991438.0,4006104.0,4002981.0,3995013.0,3994238.0,3994178.0,3994556.0,3994724.0,3995351.0,3995893.0,3996599.0,3997036.0,3996569.0,3995446.0,3994117.0,3993263.0,3993130.0,3992998.0,3993319.0,3993594.0,3993171.0,3993248.0,3992975.0,3992705.0,3992732.0,3992606.0,3992457.0,3993131.0,3992848.0,3992196.0,3992188.0,3992114.0,3989536.0,4004925.0,4000341.0,3993619.0,3992742.0,3992772.0,3993188.0,3993661.0,3994137.0,3994864.0,3995568.0,3995805.0,3995353.0,3994728.0,3992647.0,3991889.0,3991509.0,3991629.0,3992324.0,3992115.0,3992096.0,3991968.0,3991838.0,3991827.0,3991764.0,3991806.0,3992487.0,3991970.0,3991627.0,3991361.0,3991391.0,3988289.0,4009282.0,3993418.0,3992581.0,3991997.0,3992088.0,3992414.0,3992893.0,3993547.0,3994263.0,3994940.0,3995103.0,3994487.0,3993131.020:26:20,3991936.0,3991753.0,3991726.0,3991607.0,3991390.0,3991334.0,3991266.0,3991229.0,3992060.0,3991909.0,3991373.0,3991187.0,3991176.0,3988585.0,4003858.0,3998721.0,3992639.0,3991750.0,3991885.0,3992191.0,3992646.0,3993230.0,3993761.0,3994380.0,3994477.0,3994135.0,3993015.0,3991903.0,3991243.0,3991158.0,3991312.0,3991633.0,3991559.0,3991628.0,3991380.0,3991208.0,3991072.0,3991333.0,3990953.0,3991211.0,3991581.0,3991133.0,3991239.0,3990640.0,3990626.0,3989193.0,4015193.0,3992620.0,3991306.0,3991128.0,3991403.0,3991694.0,3992189.0,3992825.0,3993328.0,3993659.0,3993363.0,3992753.0,3991496.0,3990558.0,3990221.0,3990080.0,3990228.0,3990217.0,3990207.0,3990004.0,3989893.0,3989555.0,3989451.0,3989487.0,3989646.0,3989977.0,3989629.0,3989187.0,3989306.0,3989018.0,3987719.0,4014474.0,3990873.0,3989496.0,3989362.0,3989509.0,3989891.0,3990442.0,3990921.0,3991562.0,3992793.0,3991786.0,3991035.0,3989926.0,3988877.0,3988515.0,3988776.0,3989027.0,3989255.0,3989367.0,3989313.0,3989156.0,3989141.0,3988992.020:26:22,3989234.0,3989195.0,3988948.0,3992407.0,4013984.0,3991013.0,3990337.0,3990613.0,3990901.0,3991418.0,3992143.0,3992790.0,3993766.0,3993989.0,3993662.0,3992983.0,3991756.0,3991020.0,3990974.0,3991197.0,3991603.0,3991766.0,3992045.0,3992142.0,3992010.0,3992159.0,3992141.0,3993138.0,3992728.0,3992305.0,3992265.0,3992444.0,3989386.0,4006657.0,3998674.0,3994124.0,3993465.0,3993691.0,3994080.0,3994611.0,3995319.0,3996004.0,3996711.0,3996940.0,3996387.0,3995436.0,3994270.0,3993928.0,3994022.0,3994232.0,3994528.0,3994653.0,3994604.0,3994519.0,3994343.0,3994383.0,3995170.0,3995164.0,3994775.0,3994229.0,3994294.0,3994437.0,3991321.0,4011152.0,3997087.0,3995878.0,3995390.0,3995614.0,3995964.0,3996456.0,3996984.0,3997652.0,3998188.0,3998148.0,3997703.0,3996522.0,3995531.0,3995205.0,3995346.0,3995433.0,3995632.0,3995673.0,3995620.0,3995573.0,3995509.0,3995446.0,3995452.0,3995432.0,3996160.0,3995846.0,3995375.0,3995291.0,3995276.0,3993030.0,4006248.0,4006056.0,3996696.0,3995884.0,3995955.0,3996276.020:26:24,3996985.0,3998365.0,3997659.0,3996637.0,3995782.0,3995618.0,3995637.0,3995907.0,3996065.0,3996133.0,3996167.0,3996064.0,3996104.0,3996192.0,3996315.0,3996295.0,3997927.0,3997084.0,3996933.0,3996790.0,3997141.0,3996577.0,4002689.0,4018017.0,3999646.0,3999146.0,3999617.0,4000216.0,4001083.0,4002102.0,4003153.0,4004165.0,4005010.0,4005216.0,4005115.0,4004691.0,4004642.0,4005110.0,4006027.0,4007020.0,4007787.0,4008551.0,4009223.0,4010005.0,4011058.0,4011937.0,4012811.0,4013777.0,4015378.0,4016011.0,4016266.0,4017087.0,4017974.0,4015749.0,4036600.0,4024969.0,4023503.0,4023663.0,4024469.0,4025272.0,4026702.0,4027356.0,4028384.0,4029210.0,4029538.0,4029527.0,4028834.0,4028150.0,4028090.0,4028329.0,4028771.0,4029304.0,4029580.0,4029804.0,4029995.0,4030254.0,4030439.0,4030846.0,4031472.0,4032407.0,4032757.0,4032575.0,4032643.0,4032592.0,4030478.0,4056899.0,4035124.0,4033775.0,4033517.0,4033753.0,4034292.0,4034794.0,4035736.0,4036575.0,4037300.0,4037237.0,4036649.0,4035639.0,4034851.0,4034749.020:26:26,4035130.0,4036136.0,4036156.0,4036451.0,4036718.0,4037143.0,4037939.0,4037743.0,4037584.0,4037759.0,4037955.0,4037104.0,4065021.0,4040862.0,4039928.0,4039968.0,4040297.0,4040830.0,4041541.0,4042199.0,4043782.0,4043502.0,4043712.0,4043008.0,4042205.0,4041799.0,4041494.0,4041830.0,4042105.0,4042210.0,4042329.0,4042324.0,4042222.0,4042192.0,4042181.0,4042156.0,4042833.0,4042777.0,4042410.0,4042177.0,4042218.0,4041711.0,4045531.0,4063489.0,4043891.0,4043130.0,4043007.0,4043223.0,4043711.0,4043999.0,4044431.0,4045001.0,4045118.0,4044559.0,4043768.0,4042639.0,4041799.0,4041539.0,4041615.0,4041595.0,4041693.0,4041508.0,4041316.0,4041087.0,4041774.0,4040737.0,4040942.0,4040999.0,4040461.0,4040662.0,4039775.0,4039661.0,4039434.0,4064467.0,4041207.0,4039818.0,4039566.0,4039930.0,4040090.0,4040544.0,4040974.0,4041668.0,4041870.0,4041424.0,4040787.0,4039903.0,4039107.0,4039152.0,4039376.0,4039795.0,4040079.0,4040357.0,4040285.0,4040406.0,4040772.0,4040920.0,4041974.0,4042071.0,4041775.0,4042020.020:26:29,4042485.0,4044949.0,4044987.0,4045595.0,4046282.0,4047123.0,4048022.0,4048712.0,4049308.0,4048979.0,4048379.0,4047455.0,4046491.0,4046278.0,4046555.0,4046789.0,4046841.0,4046873.0,4046688.0,4046434.0,4046348.0,4046926.0,4046677.0,4046030.0,4045734.0,4045452.0,4044296.0,4051051.0,4066434.0,4046266.0,4045021.0,4044835.0,4045050.0,4045247.0,4046543.0,4045978.0,4046465.0,4046255.0,4045559.0,4044396.0,4042960.0,4042173.0,4041944.0,4042019.0,4042123.0,4042126.0,4041861.0,4041588.0,4041292.0,4041154.0,4041502.0,4040849.0,4040249.0,4040053.0,4039905.0,4036700.0,4059064.0,4041245.0,4040539.0,4039910.0,4039982.0,4040237.0,4040454.0,4040891.0,4041405.0,4041603.0,4041250.0,4040506.0,4039227.0,4038167.0,4037633.0,4037666.0,4037791.0,4037824.0,4037716.0,4037483.0,4037309.0,4037043.0,4037775.0,4037614.0,4037042.0,4036438.0,4036352.0,4036379.0,4033082.0,4049752.0,4040307.0,4037204.0,4036368.0,4036384.0,4036687.0,4036987.0,4037511.0,4037967.0,4038370.0,4038105.0,4037476.0,4036326.0,4035266.0,4034853.020:26:31,4034750.0,4034208.0,4033941.0,4033671.0,4033871.0,4033990.0,4033787.0,4033052.0,4032827.0,4032767.0,4029642.0,4045055.0,4037263.0,4033425.0,4032555.0,4032499.0,4032637.0,4033032.0,4033410.0,4033776.0,4034097.0,4033709.0,4033106.0,4031928.0,4030643.0,4030178.0,4030073.0,4030164.0,4030109.0,4029917.0,4029600.0,4029375.0,4029064.0,4028670.0,4029267.0,4028898.0,4027951.0,4027818.0,4027680.0,4025082.0,4039170.0,4034852.0,4028212.0,4027437.0,4027376.0,4027565.0,4028025.0,4028501.0,4029983.0,4029423.0,4029191.0,4028478.0,4027340.0,4026267.0,4025410.0,4025366.0,4025377.0,4025542.0,4025499.0,4025236.0,4024946.0,4024685.0,4024921.0,4025042.0,4024405.0,4024027.0,4023809.0,4023621.0,4024912.0,4049854.0,4025625.0,4024404.0,4024114.0,4024323.0,4024693.0,4025126.0,4025624.0,4026168.0,4026266.0,4025784.0,4024760.0,4023565.0,4022687.0,4022518.0,4022638.0,4022801.0,4022797.0,4023308.0,4022570.0,4022357.0,4022370.0,4023058.0,4023074.0,4021919.0,4021827.0,4021762.0,4018526.0,4040839.0,4023248.0,4022745.020:26:33,4022174.0,4024161.0,4024691.0,4024573.0,4024026.0,4022751.0,4021747.0,4021419.0,4021517.0,4021644.0,4021817.0,4021836.0,4021809.0,4021705.0,4021556.0,4021343.0,4022088.0,4021772.0,4021239.0,4021051.0,4021040.0,4018983.0,4029686.0,4033696.0,4022468.0,4021524.0,4021620.0,4021957.0,4022381.0,4022945.0,4023542.0,4024035.0,4024165.0,4023537.0,4022472.0,4021375.0,4020875.0,4020815.0,4020677.0,4020800.0,4020804.0,4020604.0,4021190.0,4020181.0,4020009.0,4019794.0,4019712.0,4020203.0,4019962.0,4019325.0,4019121.0,4018945.0,4017108.0,4027389.0,4030934.0,4020135.0,4019167.0,4019088.0,4019330.0,4019555.0,4020026.0,4020596.0,4020969.0,4020950.0,4020406.0,4019339.0,4018072.0,4017365.0,4017142.0,4017193.0,4017412.0,4017514.0,4017279.0,4017038.0,4016815.0,4016600.0,4016539.0,4016426.0,4016282.0,4016463.0,4016712.0,4016232.0,4015846.0,4015578.0,4015518.0,4014661.0,4043325.0,4017591.0,4016095.0,4015776.0,4015913.0,4016506.0,4016794.0,4017309.0,4018070.0,4018430.0,4018159.0,4017403.0,4016199.0,4015089.020:26:35,4014729.0,4015272.0,4015831.0,4014853.0,4014723.0,4014634.0,4014514.0,4014488.0,4014719.0,4014999.0,4014516.0,4014219.0,4014126.0,4013807.0,4013008.0,4041529.0,4015992.0,4014740.0,4014557.0,4014896.0,4015190.0,4015617.0,4016225.0,4016976.0,4017268.0,4017082.0,4016422.0,4015196.0,4014204.0,4013763.0,4013824.0,4014137.0,4014363.0,4014418.0,4014332.0,4014041.0,4013911.0,4013784.0,4013714.0,4013648.0,4013600.0,4013682.0,4013568.0,4013725.0,4013688.0,4014407.0,4014842.0,4013847.0,4013642.0,4013647.0,4013040.0,4017825.0,4035388.0,4015137.0,4014174.0,4014050.0,4014348.0,4014584.0,4015008.0,4015535.0,4016022.0,4016492.0,4016335.0,4015723.0,4014733.0,4013993.0,4013633.0,4013634.0,4013801.0,4013894.0,4013954.0,4013779.0,4013583.0,4013387.0,4013230.0,4013078.0,4013059.0,4012946.0,4012723.0,4012560.0,4012490.0,4012425.0,4012436.0,4013087.0,4012599.0,4012261.0,4012206.0,4012150.0,4009117.0,4028578.0,4014539.0,4013080.0,4012393.0,4012493.0,4012941.0,4014195.0,4013797.0,4014558.0,4015050.0,4015474.020:26:37,4015276.0,4013949.0,4013922.0,4014339.0,4014581.0,4014682.0,4015614.0,4015017.0,4015518.0,4015685.0,4016155.0,4016459.0,4016721.0,4017067.0,4018090.0,4017987.0,4017968.0,4018143.0,4018369.0,4016226.0,4031005.0,4029154.0,4020897.0,4020250.0,4020552.0,4021082.0,4021714.0,4022495.0,4023307.0,4024185.0,4024562.0,4024496.0,4023917.0,4022869.0,4022113.0,4022001.0,4022268.0,4022827.0,4023086.0,4023311.0,4023192.0,4023193.0,4023130.0,4023179.0,4023117.0,4023218.0,4023210.0,4023321.0,4023989.0,4024062.0,4024266.0,4023528.0,4023651.0,4022279.0,4031855.0,4040983.0,4025296.0,4024443.0,4024486.0,4024760.0,4025184.0,4025701.0,4026201.0,4026912.0,4027203.0,4026985.0,4026172.0,4025310.0,4024394.0,4023954.0,4024200.0,4024433.0,4024687.0,4024737.0,4024583.0,4024451.0,4024331.0,4024202.0,4024096.0,4024086.0,4023942.0,4023875.0,4023966.0,4024487.0,4024347.0,4023997.0,4023726.0,4023776.0,4022505.0,4030329.0,4041088.0,4025003.0,4023974.0,4024110.0,4024758.0,4024703.0,4025037.0,4025379.0,4025871.0,4026062.020:26:39,4025646.0,4022699.0,4022720.0,4022913.0,4022947.0,4022732.0,4022608.0,4022253.0,4021871.0,4021714.0,4021566.0,4021414.0,4021204.0,4020938.0,4021012.0,4022281.0,4020947.0,4020367.0,4020329.0,4019995.0,4017535.0,4041208.0,4021355.0,4020424.0,4019936.0,4020110.0,4020212.0,4020555.0,4020812.0,4021242.0,4021671.0,4021578.0,4020916.0,4019855.0,4018924.0,4018326.0,4018168.0,4018244.0,4018379.0,4018304.0,4018100.0,4017990.0,4017654.0,4017451.0,4017295.0,4017168.0,4017097.0,4017314.0,4017867.0,4017284.0,4016852.0,4016696.0,4016620.0,4013937.0,4039506.0,4018365.0,4017139.0,4016747.0,4016964.0,4017744.0,4017579.0,4018088.0,4018560.0,4018828.0,4019218.0,4018113.0,4017287.0,4016342.0,4015910.0,4015981.0,4016140.0,4016281.0,4016204.0,4016131.0,4015862.0,4015675.0,4015598.0,4015455.0,4015367.0,4015339.0,4015512.0,4015880.0,4015443.0,4015039.0,4015062.0,4014874.0,4014320.0,4041757.0,4016941.0,4015721.0,4015701.0,4015789.0,4016156.0,4016462.0,4016912.0,4017286.0,4017621.0,4017198.0,4016610.0,4015872.020:26:42,4015111.0,4015230.0,4015204.0,4014997.0,4014774.0,4014742.0,4014535.0,4014470.0,4014351.0,4014205.0,4014210.0,4014566.0,4014586.0,4014253.0,4013782.0,4013829.0,4013238.0,4016359.0,4036503.0,4014896.0,4014168.0,4014007.0,4014152.0,4014307.0,4015151.0,4015052.0,4015512.0,4015592.0,4015097.0,4014621.0,4013762.0,4012926.0,4012704.0,4012649.0,4012864.0,4012929.0,4012701.0,4012623.0,4012373.0,4012278.0,4012067.0,4011964.0,4011865.0,4011882.0,4011798.0,4011790.0,4012298.0,4012482.0,4012224.0,4011983.0,4012090.0,4011710.0,4014558.0,4036649.0,4014449.0,4013725.0,4013819.0,4014445.0,4015324.0,4015985.0,4017059.0,4017945.0,4018406.0,4018729.0,4018701.0,4018620.0,4018607.0,4018875.0,4020418.0,4020493.0,4021085.0,4021813.0,4022276.0,4022924.0,4023286.0,4023862.0,4024463.0,4025029.0,4025748.0,4026128.0,4027312.0,4028056.0,4028287.0,4028481.0,4029012.0,4028779.0,4031581.0,4055663.0,4031934.0,4031252.0,4031466.0,4031996.0,4032652.0,4033314.0,4034055.0,4034806.0,4035128.0,4035136.0,4034865.0,4034351.020:26:44,4033938.0,4035167.0,4035162.0,4035123.0,4035233.0,4035282.0,4035449.0,4035532.0,4035706.0,4035781.0,4035853.0,4036585.0,4036548.0,4036404.0,4036157.0,4036286.0,4034923.0,4043759.0,4054626.0,4037700.0,4036657.0,4036622.0,4036767.0,4037082.0,4037454.0,4037896.0,4038358.0,4038231.0,4037657.0,4037054.0,4036278.0,4035487.0,4035301.0,4036152.0,4035501.0,4035518.0,4035140.0,4034853.0,4034643.0,4034296.0,4033911.0,4033758.0,4033513.0,4033362.0,4033065.0,4033652.0,4033288.0,4032673.0,4032492.0,4032242.0,4029206.0,4044138.0,4039912.0,4032812.0,4031785.0,4031834.0,4031956.0,4032268.0,4032390.0,4032822.0,4033087.0,4032897.0,4032175.0,4031188.0,4030511.0,4029686.0,4029399.0,4029559.0,4029645.0,4029734.0,4029577.0,4029402.0,4029483.0,4029180.0,4029022.0,4029090.0,4028993.0,4030342.0,4029862.0,4029396.0,4029179.0,4029269.0,4028732.0,4034605.0,4050939.0,4031379.0,4030801.0,4031070.0,4031779.0,4032402.0,4032842.0,4033766.0,4034663.0,4034945.0,4034643.0,4034276.0,4033546.0,4033033.0,4033141.0,4033506.020:26:46,4033846.0,4034175.0,4034296.0,4034324.0,4034348.0,4034500.0,4034481.0,4035174.0,4035180.0,4034695.0,4034547.0,4034475.0,4033251.0,4041642.0,4051475.0,4035909.0,4035187.0,4035089.0,4035484.0,4035670.0,4035914.0,4036234.0,4036677.0,4036448.0,4035747.0,4034926.0,4033923.0,4033149.0,4032754.0,4032654.0,4032512.0,4032306.0,4032079.0,4031566.0,4031095.0,4030671.0,4030236.0,4029947.0,4029667.0,4029246.0,4028841.0,4028621.0,4029933.0,4028581.0,4027737.0,4027273.0,4027006.0,4023877.0,4043333.0,4028334.0,4026918.0,4026064.0,4025928.0,4025885.0,4026105.0,4026069.0,4026227.0,4026328.0,4025953.0,4025152.0,4024302.0,4023288.0,4022552.0,4022409.0,4022479.0,4022451.0,4022408.0,4022112.0,4021803.0,4021615.0,4021407.0,4021470.0,4021440.0,4021269.0,4021294.0,4021336.0,4022144.0,4021944.0,4021700.0,4021757.0,4021820.0,4019143.0,4035724.0,4027949.0,4023472.0,4022930.0,4023772.0,4023591.0,4023977.0,4024587.0,4025158.0,4025718.0,4025682.0,4025080.0,4024436.0,4023594.0,4022942.0,4022814.0,4022950.0,4023603.020:26:48,4023828.0,4023328.0,4023851.0,4022971.0,4022740.0,4022772.0,4022403.0,4022859.0,4022056.0,4022002.0,4021189.0,4020479.0,4020282.0,4019623.0,4019402.0,4045969.0,4020730.0,4019163.0,4018433.0,4018248.0,4018210.0,4018198.0,4018170.0,4018387.0,4018275.0,4017388.0,4016393.0,4015187.0,4014185.0,4013478.0,4013170.0,4013037.0,4012680.0,4012374.0,4011905.0,4011354.0,4010800.0,4010213.0,4009716.0,4009306.0,4008878.0,4008496.0,4008081.0,4007686.0,4008016.0,4007413.0,4006462.0,4005909.0,4005469.0,4003648.0,4013713.0,4018315.0,4005236.0,4004029.0,4003644.0,4003633.0,4003916.0,4003617.0,4003867.0,4003990.0,4003731.0,4003042.0,4002064.0,4001111.0,4000290.0,3999892.0,3999897.0,3999811.0,3999663.0,3999207.0,3998789.0,3998437.0,3997967.0,3997634.0,3997258.0,3996863.0,3996826.0,3997092.0,3996438.0,3995712.0,3995284.0,3994888.0,3992146.0,4015991.0,3995328.0,3994767.0,3994113.0,3994033.0,3994226.0,3994543.0,3994651.0,3995123.0,3995340.0,3994911.0,3993937.0,3993118.0,3991806.0,3991141.0,3991051.0,3991110.020:26:50,3991472.0,3989765.0,3989563.0,3989321.0,3989194.0,3989698.0,3989223.0,3988599.0,3988392.0,3988191.0,3985002.0,4004418.0,3990352.0,3988612.0,3988083.0,3988110.0,3988441.0,3988642.0,3989159.0,3989639.0,3989980.0,3990129.0,3989079.0,3988045.0,3987027.0,3986366.0,3986797.0,3986490.0,3986461.0,3986560.0,3986366.0,3986173.0,3985781.0,3985700.0,3985448.0,3985450.0,3986007.0,3985498.0,3984961.0,3984837.0,3984729.0,3981688.0,4000430.0,3986923.0,3985453.0,3984739.0,3984877.0,3985251.0,3985598.0,3985953.0,3986542.0,3986990.0,3986816.0,3986237.0,3985216.0,3984232.0,3983584.0,3983678.0,3983649.0,3983733.0,3983673.0,3983538.0,3983357.0,3983069.0,3982903.0,3982921.0,3982842.0,3983246.0,3982622.0,3982218.0,3982729.0,3981919.0,3978957.0,3999688.0,3982562.0,3982567.0,3981781.0,3981844.0,3982172.0,3982424.0,3982861.0,3983295.0,3983557.0,3983399.0,3982613.0,3982699.0,3980569.0,3980022.0,3979898.0,3980081.0,3980174.0,3980237.0,3980077.0,3979928.0,3979797.0,3979589.0,3979685.0,3979728.0,3980383.0,3980407.020:26:52,3980216.0,3993442.0,3986821.0,3982341.0,3981878.0,3982177.0,3982959.0,3983608.0,3984437.0,3985127.0,3986043.0,3986173.0,3985791.0,3985123.0,3984356.0,3983845.0,3984157.0,3984588.0,3985020.0,3985257.0,3985408.0,3985469.0,3985521.0,3985645.0,3985706.0,3985698.0,3986013.0,3986668.0,3986375.0,3986040.0,3986707.0,3986022.0,3982874.0,4002015.0,3991552.0,3987536.0,3986649.0,3986775.0,3987272.0,3987738.0,3988250.0,3988708.0,3989288.0,3989378.0,3988789.0,3987714.0,3986552.0,3985899.0,3985635.0,3985899.0,3986058.0,3986017.0,3985850.0,3985670.0,3985344.0,3985240.0,3985116.0,3984918.0,3984728.0,3984573.0,3984498.0,3984775.0,3984940.0,3984509.0,3984109.0,3983893.0,3983626.0,3982952.0,4010309.0,3985245.0,3983933.0,3983558.0,3983770.0,3983966.0,3984630.0,3984649.0,3985052.0,3985390.0,3985001.0,3984640.0,3983078.0,3981957.0,3981533.0,3981453.0,3981650.0,3981666.0,3981518.0,3981222.0,3980879.0,3980546.0,3980301.0,3979963.0,3979686.0,3979605.0,3979348.0,3979219.0,3979003.0,3978847.0,3978760.0,3979209.020:26:55,3978663.0,3979326.0,4001627.0,3978644.0,3977522.0,3977237.0,3977333.0,3977600.0,3977928.0,3978277.0,3979033.0,3979230.0,3978913.0,3978094.0,3976956.0,3975728.0,3975216.0,3975060.0,3975177.0,3975232.0,3975033.0,3974800.0,3974542.0,3974296.0,3974079.0,3973793.0,3973673.0,3973546.0,3973389.0,3973216.0,3973092.0,3973307.0,3973529.0,3973224.0,3972737.0,3972522.0,3972384.0,3970864.0,3998404.0,3975099.0,3972715.0,3972487.0,3972523.0,3972899.0,3973651.0,3973788.0,3974270.0,3974946.0,3974763.0,3974027.0,3972862.0,3971671.0,3971059.0,3970916.0,3971220.0,3971345.0,3971411.0,3971296.0,3971066.0,3970871.0,3970657.0,3970650.0,3970517.0,3970310.0,3970173.0,3970427.0,3970743.0,3970283.0,3969767.0,3969862.0,3969710.0,3967511.0,3995519.0,3972010.0,3970374.0,3970142.0,3970302.0,3970550.0,3971048.0,3971485.0,3972249.0,3972835.0,3972783.0,3972474.0,3970718.0,3969547.0,3968830.0,3968834.0,3969020.0,3969229.0,3969224.0,3969121.0,3969010.0,3968864.0,3968725.0,3968697.0,3968588.0,3968497.0,3968487.0,3968319.020:26:57,3968393.0,3968265.0,3968129.0,3965281.0,3983852.0,3971388.0,3968951.0,3968282.0,3968403.0,3968652.0,3969033.0,3969415.0,3969997.0,3970577.0,3970720.0,3970267.0,3969377.0,3968262.0,3967651.0,3967261.0,3967464.0,3967475.0,3967369.0,3967364.0,3967133.0,3966798.0,3966544.0,3966419.0,3966161.0,3966026.0,3965726.0,3965604.0,3965597.0,3966384.0,3965886.0,3965394.0,3965117.0,3964976.0,3964363.0,3968460.0,3986618.0,3965971.0,3965096.0,3965019.0,3965114.0,3965430.0,3965716.0,3966352.0,3967033.0,3967309.0,3967045.0,3966133.0,3964936.0,3963704.0,3963281.0,3963233.0,3963286.0,3963514.0,3963426.0,3963218.0,3963168.0,3962947.0,3962792.0,3962771.0,3962833.0,3962802.0,3963429.0,3963538.0,3963103.0,3963069.0,3963197.0,3962752.0,3966977.0,3986965.0,3965349.0,3965056.0,3965429.0,3966916.0,3966956.0,3967860.0,3969033.0,3970269.0,3971387.0,3971436.0,3970957.0,3970294.0,3969741.0,3970008.0,3970568.0,3971205.0,3971872.0,3972438.0,3972774.0,3973085.0,3973200.0,3973632.0,3973877.0,3974212.0,3975334.0,3975403.020:26:59,3975298.0,4003747.0,3978237.0,3977362.0,3977323.0,3977750.0,3978287.0,3978878.0,3979571.0,3980421.0,3981004.0,3980906.0,3980249.0,3979918.0,3978058.0,3977622.0,3977814.0,3977936.0,3978020.0,3978066.0,3977922.0,3977811.0,3977525.0,3977441.0,3977357.0,3977181.0,3977813.0,3977567.0,3976943.0,3976808.0,3976684.0,3974882.0,3986355.0,3989659.0,3977653.0,3976721.0,3976615.0,3976825.0,3977116.0,3977368.0,3977837.0,3978304.0,3979263.0,3977744.0,3976723.0,3975404.0,3974330.0,3974100.0,3973899.0,3973874.0,3973678.0,3973447.0,3973128.0,3972910.0,3972462.0,3971989.0,3971664.0,3972005.0,3971588.0,3970718.0,3970285.0,3970012.0,3968647.0,3975711.0,3985294.0,3970191.0,3969106.0,3968932.0,3969031.0,3969055.0,3969307.0,3969820.0,3970319.0,3970412.0,3969807.0,3968695.0,3967318.0,3966170.0,3965577.0,3965615.0,3965676.0,3965492.0,3965293.0,3964988.0,3964564.0,3964246.0,3964817.0,3963747.0,3964179.0,3963829.0,3963112.0,3963117.0,3962702.0,3961537.0,3968319.0,3981382.0,3963644.0,3962810.0,3962739.0,3962964.020:27:01,3963279.0,3965342.0,3964630.0,3963438.0,3962266.0,3961490.0,3961527.0,3962396.0,3961925.0,3962030.0,3961848.0,3961591.0,3961624.0,3961267.0,3961210.0,3961848.0,3961641.0,3961053.0,3960921.0,3960851.0,3959561.0,3966380.0,3981303.0,3962072.0,3961270.0,3961267.0,3961541.0,3962015.0,3962413.0,3963043.0,3963618.0,3963944.0,3963558.0,3962370.0,3961113.0,3960178.0,3959813.0,3960026.0,3960119.0,3960390.0,3960331.0,3960177.0,3960133.0,3959830.0,3959746.0,3959747.0,3959878.0,3960191.0,3959826.0,3959249.0,3959248.0,3959503.0,3956778.0,3983480.0,3961074.0,3959823.0,3959580.0,3959737.0,3960015.0,3960411.0,3960764.0,3961620.0,3962055.0,3961924.0,3961084.0,3959923.0,3958868.0,3958234.0,3958207.0,3958390.0,3958484.0,3958452.0,3958144.0,3957941.0,3957640.0,3957488.0,3957267.0,3957098.0,3956880.0,3956745.0,3956779.0,3957109.0,3956603.0,3956092.0,3956141.0,3955956.0,3952900.0,3977156.0,3957517.0,3956414.0,3955852.0,3956024.0,3956422.0,3956717.0,3957195.0,3958492.0,3958077.0,3958149.0,3957334.0,3956342.020:27:03,3955121.0,3954186.0,3954068.0,3953662.0,3953479.0,3953212.0,3952940.0,3952669.0,3952475.0,3952523.0,3952657.0,3952919.0,3952252.0,3951796.0,3951721.0,3951410.0,3950530.0,3980154.0,3953464.0,3952023.0,3951765.0,3952739.0,3952388.0,3952741.0,3953237.0,3954153.0,3954687.0,3954569.0,3953572.0,3952113.0,3950910.0,3950318.0,3950228.0,3950493.0,3950825.0,3950825.0,3950704.0,3950456.0,3950208.0,3950316.0,3949921.0,3949917.0,3950588.0,3950335.0,3949808.0,3949556.0,3949525.0,3947981.0,3958098.0,3966981.0,3950893.0,3949814.0,3949771.0,3950186.0,3950445.0,3950799.0,3951632.0,3952395.0,3952771.0,3952222.0,3951036.0,3949484.0,3948571.0,3948124.0,3948253.0,3949290.0,3948822.0,3948610.0,3948357.0,3948134.0,3948352.0,3947848.0,3948084.0,3948518.0,3947949.0,3947442.0,3947251.0,3947294.0,3943848.0,3966910.0,3948976.0,3948355.0,3947718.0,3947712.0,3948080.0,3948565.0,3949152.0,3949962.0,3950707.0,3950698.0,3950058.0,3948688.0,3947388.0,3946755.0,3946607.0,3946787.0,3947079.0,3947216.0,3947129.0,3946992.020:27:05,3946837.0,3946987.0,3946569.0,3946597.0,3946561.0,3943112.0,3967850.0,3948607.0,3947934.0,3947614.0,3948003.0,3948573.0,3949212.0,3950212.0,3951300.0,3952395.0,3952778.0,3952496.0,3951680.0,3950877.0,3950746.0,3951213.0,3951997.0,3952768.0,3953268.0,3953811.0,3954162.0,3954612.0,3955064.0,3955679.0,3956213.0,3957149.0,3958151.0,3958268.0,3958535.0,3959992.0,3959734.0,3958134.0,3985452.0,3963813.0,3962867.0,3962844.0,3963595.0,3964347.0,3965206.0,3966209.0,3967295.0,3968224.0,3968419.0,3968220.0,3967298.0,3966565.0,3966284.0,3966497.0,3966830.0,3967061.0,3967259.0,3967197.0,3967236.0,3967107.0,3967033.0,3966987.0,3966813.0,3967391.0,3967444.0,3966997.0,3966722.0,3966573.0,3966211.0,3966788.0,3993825.0,3967939.0,3966514.0,3966273.0,3966620.0,3966918.0,3967122.0,3967566.0,3968096.0,3969336.0,3968044.0,3967140.0,3965746.0,3964740.0,3964353.0,3964092.0,3964148.0,3964097.0,3963767.0,3963519.0,3963046.0,3962876.0,3962626.0,3962212.0,3962061.0,3962574.0,3962121.0,3961458.0,3961092.0,3960975.020:27:08,3959060.0,3960141.0,3960265.0,3960386.0,3960709.0,3961398.0,3961693.0,3962089.0,3961850.0,3960903.0,3959646.0,3958252.0,3957654.0,3957488.0,3957657.0,3957645.0,3957469.0,3957129.0,3956763.0,3956558.0,3956176.0,3956309.0,3956598.0,3955912.0,3955398.0,3955201.0,3955111.0,3951534.0,3975146.0,3956238.0,3955657.0,3955023.0,3955154.0,3955318.0,3955742.0,3956064.0,3956800.0,3957186.0,3957080.0,3956315.0,3955007.0,3953691.0,3953109.0,3953140.0,3953623.0,3953251.0,3953202.0,3953004.0,3952765.0,3953067.0,3952370.0,3952512.0,3953028.0,3952420.0,3951892.0,3951648.0,3951693.0,3948869.0,3975961.0,3953891.0,3952297.0,3951865.0,3952117.0,3952389.0,3952837.0,3953240.0,3953884.0,3954319.0,3954187.0,3953563.0,3952361.0,3951323.0,3951013.0,3951051.0,3951178.0,3951208.0,3951203.0,3951030.0,3950741.0,3950583.0,3950414.0,3950859.0,3950773.0,3950168.0,3949793.0,3949590.0,3948900.0,3952734.0,3974061.0,3950583.0,3949772.0,3949625.0,3949978.0,3950702.0,3950810.0,3951352.0,3952053.0,3952203.0,3952130.0,3951257.020:27:10,3950271.0,3950978.0,3951355.0,3951633.0,3952453.0,3952389.0,3953126.0,3954165.0,3954175.0,3954461.0,3955061.0,3955502.0,3953305.0,3981028.0,3959357.0,3959209.0,3959538.0,3960365.0,3961490.0,3962705.0,3963671.0,3965453.0,3966346.0,3966277.0,3966001.0,3965205.0,3964502.0,3964590.0,3964967.0,3965620.0,3965961.0,3966463.0,3966499.0,3966302.0,3966857.0,3967318.0,3966651.0,3966140.0,3966199.0,3965550.0,3962131.0,3990123.0,3965399.0,3966776.0,3966688.0,3966699.0,3967008.0,3966931.0,3967614.0,3967830.0,3967860.0,3967346.0,3966013.0,3964328.0,3963029.0,3962521.0,3962469.0,3962622.0,3962247.0,3962188.0,3961373.0,3961246.0,3961301.0,3959842.0,3959305.0,3958762.0,3958502.0,3958416.0,3988766.0,3958788.0,3957945.0,3957409.0,3957253.0,3957410.0,3957474.0,3957723.0,3958070.0,3957644.0,3956703.0,3955578.0,3954389.0,3953371.0,3952972.0,3952893.0,3952889.0,3952523.0,3952025.0,3953291.0,3951631.0,3950618.0,3950122.0,3949995.0,3947206.0,3962484.0,3960308.0,3949983.0,3949023.0,3948975.0,3948884.0,3949106.020:27:12,3949370.0,3947195.0,3946175.0,3946113.0,3945065.0,3945239.0,3945247.0,3945035.0,3944708.0,3944784.0,3944108.0,3943255.0,3942758.0,3942682.0,3940530.0,3952453.0,3957301.0,3942809.0,3941924.0,3941701.0,3941743.0,3941883.0,3942238.0,3942706.0,3942889.0,3942465.0,3941614.0,3940776.0,3939952.0,3939367.0,3939419.0,3939784.0,3939601.0,3939414.0,3939135.0,3938817.0,3939361.0,3938656.0,3938093.0,3937831.0,3937686.0,3934959.0,3950215.0,3947569.0,3938701.0,3938034.0,3938374.0,3939096.0,3939000.0,3939648.0,3940351.0,3940835.0,3940831.0,3940023.0,3939600.0,3938895.0,3938646.0,3938913.0,3939134.0,3939495.0,3939367.0,3939331.0,3939278.0,3939185.0,3939840.0,3939549.0,3938922.0,3938975.0,3938928.0,3935562.0,3956167.0,3941649.0,3940023.0,3939357.0,3939413.0,3939662.0,3939992.0,3940395.0,3940724.0,3940991.0,3940642.0,3940135.0,3939338.0,3938233.0,3937761.0,3937846.0,3937970.0,3938026.0,3937877.0,3937476.0,3937053.0,3937290.0,3936496.0,3936859.0,3936074.0,3935535.0,3935720.0,3935022.0,3933161.0,3963023.020:27:14,3936322.0,3934862.0,3934921.0,3935274.0,3935354.0,3935114.0,3934354.0,3934598.0,3932789.0,3932024.0,3931936.0,3932111.0,3932184.0,3931815.0,3931379.0,3931020.0,3930572.0,3930322.0,3930924.0,3930339.0,3929509.0,3929236.0,3929159.0,3925352.0,3947944.0,3929577.0,3928799.0,3928081.0,3927964.0,3927941.0,3927968.0,3928227.0,3928517.0,3928487.0,3928184.0,3927452.0,3926777.0,3926004.0,3925345.0,3925349.0,3925748.0,3925972.0,3925953.0,3925651.0,3925364.0,3925329.0,3925227.0,3926123.0,3925862.0,3925568.0,3925664.0,3926786.0,3923352.0,3951549.0,3928606.0,3927675.0,3928025.0,3928340.0,3928849.0,3929669.0,3930524.0,3931396.0,3931878.0,3932093.0,3931903.0,3931908.0,3931554.0,3931445.0,3932029.0,3932802.0,3933076.0,3933300.0,3933279.0,3933328.0,3933184.0,3933305.0,3933228.0,3934150.0,3933824.0,3933553.0,3933486.0,3933478.0,3931183.0,3962320.0,3935323.0,3933881.0,3933608.0,3933741.0,3933780.0,3933944.0,3934248.0,3934462.0,3934466.0,3934009.0,3933426.0,3933696.0,3931990.0,3931633.0,3931701.0,3931674.020:27:16,3932353.0,3929747.0,3929427.0,3929124.0,3929037.0,3929184.0,3928943.0,3928217.0,3927973.0,3927788.0,3924802.0,3941133.0,3940709.0,3927791.0,3926762.0,3926684.0,3926746.0,3926603.0,3926602.0,3926625.0,3926731.0,3926359.0,3925522.0,3925019.0,3924502.0,3924049.0,3923836.0,3923813.0,3923706.0,3923304.0,3922996.0,3922514.0,3922145.0,3921840.0,3921559.0,3921187.0,3920851.0,3920630.0,3920259.0,3920068.0,3919992.0,3920389.0,3919750.0,3919306.0,3919008.0,3918255.0,3921319.0,3942701.0,3919289.0,3918396.0,3918140.0,3918265.0,3918313.0,3918386.0,3918698.0,3918819.0,3918447.0,3917843.0,3917202.0,3917135.0,3917827.0,3916888.0,3916883.0,3916792.0,3916649.0,3916493.0,3915912.0,3915530.0,3915404.0,3915162.0,3914857.0,3914708.0,3914447.0,3914424.0,3914178.0,3914246.0,3914694.0,3913982.0,3913499.0,3913331.0,3912566.0,3915302.0,3935521.0,3913508.0,3912654.0,3912496.0,3912334.0,3912582.0,3912471.0,3912678.0,3912711.0,3912287.0,3911631.0,3910972.0,3910823.0,3911123.0,3910986.0,3911076.0,3910875.0,3910634.020:27:18,3910326.0,3909124.0,3909040.0,3909046.0,3909684.0,3909276.0,3908799.0,3908597.0,3908486.0,3908965.0,3935634.0,3910040.0,3908885.0,3908695.0,3909034.0,3909251.0,3909495.0,3909719.0,3910040.0,3909820.0,3909234.0,3908709.0,3908403.0,3908369.0,3908391.0,3908579.0,3908759.0,3908664.0,3908334.0,3908187.0,3908557.0,3907779.0,3907728.0,3907635.0,3907692.0,3908291.0,3907713.0,3907450.0,3907304.0,3906849.0,3909365.0,3932494.0,3908180.0,3907509.0,3907496.0,3907826.0,3908029.0,3908291.0,3908641.0,3908909.0,3908774.0,3908046.0,3907570.0,3907469.0,3907526.0,3907654.0,3907774.0,3907773.0,3907656.0,3907378.0,3907134.0,3906964.0,3906816.0,3906686.0,3906694.0,3906678.0,3906815.0,3906823.0,3907730.0,3907429.0,3907323.0,3907659.0,3907165.0,3912914.0,3931702.0,3909870.0,3909721.0,3910196.0,3910909.0,3912300.0,3912580.0,3913562.0,3914291.0,3914771.0,3914694.0,3914835.0,3915631.0,3916583.0,3917460.0,3918211.0,3918888.0,3919516.0,3919869.0,3920141.0,3920592.0,3920985.0,3921419.0,3921821.0,3922198.0,3922550.020:27:21,3923585.0,3921237.0,3947350.0,3924701.0,3923445.0,3922889.0,3922821.0,3922617.0,3922644.0,3922622.0,3922512.0,3921933.0,3921151.0,3920337.0,3920079.0,3919883.0,3919879.0,3919709.0,3919492.0,3919595.0,3918617.0,3917997.0,3917695.0,3917208.0,3917281.0,3916322.0,3916483.0,3915947.0,3915112.0,3914741.0,3914333.0,3911034.0,3928584.0,3917530.0,3913627.0,3912818.0,3912576.0,3912333.0,3912182.0,3912093.0,3912002.0,3911564.0,3910426.0,3909334.0,3908699.0,3908550.0,3908393.0,3907991.0,3907529.0,3907134.0,3906519.0,3905891.0,3905297.0,3904733.0,3904287.0,3904130.0,3904138.0,3903058.0,3902523.0,3902207.0,3900430.0,3908589.0,3917458.0,3901930.0,3900701.0,3900441.0,3900319.0,3900224.0,3901055.0,3900354.0,3900144.0,3899169.0,3898289.0,3897914.0,3897772.0,3897715.0,3897481.0,3897268.0,3897050.0,3896618.0,3896050.0,3895707.0,3895369.0,3895336.0,3895483.0,3894694.0,3894191.0,3893920.0,3893196.0,3896343.0,3917000.0,3894097.0,3893396.0,3893248.0,3893414.0,3893468.0,3893586.0,3893690.0,3893625.0,3893026.020:27:23,3892137.0,3891721.0,3891713.0,3891461.0,3891173.0,3890873.0,3890646.0,3890473.0,3890587.0,3890794.0,3889973.0,3889710.0,3889576.0,3888860.0,3893363.0,3910301.0,3890226.0,3889543.0,3889505.0,3889661.0,3889919.0,3890102.0,3890459.0,3890428.0,3889928.0,3889168.0,3888900.0,3888999.0,3889171.0,3889211.0,3889316.0,3889073.0,3888883.0,3889298.0,3888380.0,3888275.0,3888178.0,3888617.0,3888987.0,3888006.0,3887790.0,3887676.0,3886072.0,3895686.0,3901374.0,3888679.0,3888036.0,3888102.0,3888387.0,3888627.0,3888978.0,3889250.0,3889185.0,3888635.0,3887944.0,3887804.0,3888204.0,3888499.0,3888697.0,3888755.0,3888751.0,3888810.0,3888689.0,3888708.0,3888743.0,3889114.0,3889017.0,3890252.0,3889962.0,3889765.0,3890074.0,3890208.0,3888443.0,3913972.0,3892754.0,3891824.0,3892092.0,3892912.0,3892960.0,3893478.0,3894041.0,3894322.0,3894318.0,3893535.0,3893498.0,3893773.0,3894423.0,3894605.0,3894671.0,3894626.0,3894700.0,3894471.0,3894294.0,3893975.0,3893964.0,3893635.0,3894579.0,3893897.0,3893593.0,3893384.020:27:25,3893231.0,3893140.0,3893201.0,3893253.0,3893348.0,3893475.0,3893609.0,3893156.0,3892474.0,3891589.0,3891312.0,3891285.0,3891240.0,3891345.0,3891183.0,3890965.0,3890628.0,3890207.0,3889941.0,3889582.0,3889377.0,3889263.0,3889496.0,3888884.0,3888356.0,3888086.0,3887855.0,3886972.0,3914375.0,3889126.0,3888161.0,3888052.0,3888306.0,3888670.0,3889132.0,3889551.0,3889925.0,3889771.0,3889139.0,3888966.0,3889200.0,3889591.0,3891032.0,3890420.0,3890528.0,3890576.0,3890556.0,3890594.0,3890535.0,3890509.0,3890615.0,3890508.0,3891298.0,3890890.0,3890537.0,3890449.0,3890480.0,3887436.0,3909288.0,3891904.0,3890881.0,3890479.0,3890491.0,3890458.0,3890478.0,3890730.0,3890729.0,3890435.0,3889673.0,3888632.0,3888284.0,3888077.0,3887774.0,3887482.0,3887130.0,3886520.0,3885842.0,3885159.0,3884388.0,3884284.0,3883745.0,3884190.0,3883182.0,3883318.0,3882789.0,3881952.0,3881783.0,3881115.0,3878803.0,3889557.0,3887994.0,3880200.0,3879184.0,3878919.0,3878837.0,3878892.0,3878723.0,3878638.0,3878121.0,3876897.020:27:27,3875913.0,3873937.0,3873544.0,3872716.0,3872170.0,3871503.0,3870798.0,3870255.0,3869521.0,3869165.0,3869527.0,3868627.0,3867683.0,3867077.0,3866568.0,3863194.0,3883568.0,3865876.0,3865277.0,3864657.0,3864451.0,3864281.0,3864244.0,3864218.0,3864117.0,3863623.0,3862511.0,3861654.0,3861168.0,3860879.0,3860546.0,3860367.0,3859921.0,3859578.0,3859001.0,3858443.0,3858088.0,3857638.0,3857235.0,3856784.0,3857368.0,3857548.0,3856179.0,3855745.0,3855609.0,3852187.0,3870625.0,3860225.0,3855810.0,3855171.0,3855023.0,3855234.0,3855347.0,3855623.0,3855786.0,3855629.0,3854701.0,3854042.0,3853615.0,3853385.0,3853375.0,3853199.0,3853364.0,3853095.0,3852821.0,3852730.0,3852402.0,3852191.0,3852241.0,3852011.0,3852572.0,3852242.0,3851723.0,3851393.0,3851382.0,3848873.0,3862601.0,3861050.0,3851948.0,3851235.0,3851452.0,3851499.0,3851798.0,3852247.0,3852576.0,3852983.0,3852035.0,3851393.0,3851238.0,3851085.0,3851365.0,3851288.0,3851403.0,3851263.0,3851091.0,3850794.0,3850638.0,3850530.0,3850461.0,3850393.020:27:29,3850978.0,3850406.0,3847816.0,3872130.0,3852015.0,3850864.0,3851609.0,3851074.0,3851277.0,3851698.0,3852132.0,3852600.0,3852226.0,3851670.0,3851215.0,3850946.0,3850935.0,3850904.0,3851094.0,3851113.0,3851543.0,3850640.0,3850381.0,3850157.0,3849975.0,3849910.0,3849826.0,3849815.0,3850171.0,3850109.0,3849613.0,3849317.0,3849123.0,3848224.0,3854014.0,3865759.0,3849828.0,3849303.0,3849388.0,3849768.0,3849927.0,3850178.0,3850647.0,3850697.0,3850188.0,3849546.0,3849144.0,3848767.0,3848758.0,3848970.0,3849763.0,3848920.0,3848757.0,3848339.0,3848038.0,3848601.0,3847798.0,3847664.0,3847534.0,3848048.0,3848022.0,3847489.0,3847156.0,3847267.0,3846354.0,3852333.0,3865645.0,3848046.0,3847550.0,3847588.0,3847988.0,3848350.0,3848705.0,3849209.0,3849474.0,3849109.0,3848362.0,3847999.0,3847642.0,3847681.0,3847792.0,3848137.0,3848202.0,3848165.0,3848037.0,3847949.0,3847723.0,3847702.0,3847591.0,3847797.0,3848418.0,3847875.0,3847527.0,3847609.0,3848118.0,3845266.0,3871323.0,3849550.0,3848382.0,3848496.020:27:31,3848724.0,3850748.0,3850514.0,3849853.0,3849425.0,3849077.0,3848899.0,3849190.0,3849317.0,3849477.0,3849430.0,3849310.0,3849106.0,3849138.0,3849187.0,3849294.0,3849270.0,3849875.0,3849868.0,3849262.0,3850058.0,3849210.0,3847205.0,3859399.0,3862723.0,3850656.0,3849705.0,3849901.0,3850193.0,3850528.0,3851258.0,3851677.0,3852016.0,3851606.0,3850997.0,3850671.0,3850249.0,3850294.0,3850500.0,3850695.0,3850768.0,3850637.0,3850392.0,3850364.0,3850309.0,3850324.0,3850338.0,3850318.0,3851012.0,3850940.0,3850661.0,3850632.0,3850649.0,3849438.0,3859439.0,3863665.0,3852580.0,3852009.0,3852428.0,3852921.0,3853413.0,3854105.0,3854863.0,3855250.0,3855835.0,3854700.0,3854526.0,3854217.0,3854226.0,3855502.0,3855065.0,3855148.0,3855258.0,3855244.0,3855383.0,3855386.0,3855492.0,3855747.0,3855981.0,3856910.0,3856334.0,3856064.0,3856155.0,3856195.0,3853915.0,3878836.0,3857669.0,3857071.0,3856899.0,3857236.0,3857644.0,3858095.0,3858648.0,3859153.0,3859251.0,3858646.0,3858176.0,3857579.0,3857202.0,3857214.020:27:34,3857550.0,3857001.0,3856958.0,3856888.0,3857080.0,3857688.0,3857150.0,3856687.0,3856588.0,3856487.0,3853866.0,3879630.0,3858437.0,3856981.0,3856711.0,3856874.0,3857203.0,3857484.0,3858118.0,3858506.0,3858484.0,3858001.0,3857264.0,3856660.0,3856541.0,3856189.0,3856450.0,3856760.0,3856519.0,3857194.0,3856053.0,3855824.0,3855696.0,3855608.0,3856210.0,3855998.0,3855400.0,3855066.0,3855068.0,3854246.0,3859233.0,3877485.0,3855869.0,3855221.0,3855262.0,3855496.0,3855866.0,3856235.0,3856824.0,3857222.0,3856886.0,3856096.0,3855414.0,3854547.0,3854046.0,3854182.0,3854328.0,3854298.0,3854122.0,3853821.0,3853634.0,3853293.0,3853210.0,3853358.0,3853739.0,3853135.0,3852668.0,3852608.0,3852803.0,3849872.0,3874272.0,3854387.0,3853431.0,3854112.0,3853781.0,3854269.0,3855190.0,3855908.0,3857051.0,3857367.0,3857550.0,3857458.0,3857295.0,3857380.0,3858056.0,3859221.0,3860069.0,3861004.0,3861689.0,3862505.0,3863135.0,3864287.0,3864947.0,3866558.0,3867189.0,3867662.0,3868501.0,3869342.0,3867207.0,3884890.020:27:36,3877600.0,3875909.0,3877056.0,3878101.0,3879074.0,3879348.0,3878848.0,3878552.0,3877721.0,3877261.0,3877339.0,3877460.0,3877524.0,3877291.0,3877021.0,3876593.0,3876243.0,3875940.0,3875827.0,3876242.0,3875315.0,3874765.0,3874211.0,3873928.0,3870356.0,3892480.0,3874288.0,3873379.0,3872703.0,3872728.0,3872701.0,3872669.0,3872839.0,3873497.0,3872933.0,3872217.0,3871257.0,3870158.0,3869728.0,3868777.0,3868860.0,3868826.0,3868493.0,3868219.0,3867602.0,3867279.0,3866741.0,3866390.0,3866085.0,3865727.0,3865996.0,3865562.0,3864796.0,3864338.0,3864019.0,3862196.0,3870566.0,3881779.0,3864290.0,3863260.0,3863176.0,3863291.0,3863364.0,3863671.0,3863955.0,3864191.0,3863725.0,3862769.0,3861916.0,3860913.0,3860444.0,3860259.0,3860236.0,3860133.0,3859708.0,3859380.0,3858885.0,3858606.0,3858379.0,3858057.0,3857897.0,3857684.0,3858460.0,3857945.0,3857683.0,3857098.0,3856733.0,3856613.0,3855214.0,3861512.0,3873342.0,3857056.0,3856267.0,3856130.0,3856243.0,3856421.0,3856658.0,3857148.0,3857484.0,3857142.020:27:38,3856348.0,3854258.0,3854040.0,3854088.0,3853623.0,3853325.0,3853117.0,3852923.0,3852578.0,3852471.0,3852339.0,3852211.0,3852049.0,3852632.0,3852114.0,3851593.0,3851237.0,3851044.0,3848555.0,3862322.0,3859113.0,3851567.0,3850837.0,3851013.0,3851245.0,3851636.0,3851819.0,3852441.0,3852662.0,3852494.0,3851599.0,3850832.0,3849900.0,3849656.0,3849506.0,3849832.0,3849835.0,3849610.0,3849366.0,3849056.0,3849010.0,3848849.0,3849719.0,3848699.0,3848710.0,3848764.0,3849200.0,3849026.0,3848336.0,3848332.0,3848354.0,3846210.0,3874254.0,3850335.0,3849081.0,3848843.0,3849046.0,3849437.0,3849827.0,3850413.0,3851133.0,3851338.0,3850880.0,3850071.0,3849272.0,3848493.0,3848311.0,3848676.0,3848850.0,3848849.0,3848848.0,3848637.0,3848500.0,3848430.0,3848447.0,3848338.0,3848276.0,3848497.0,3849075.0,3848648.0,3848236.0,3848421.0,3848195.0,3845654.0,3870972.0,3850119.0,3849691.0,3848803.0,3849030.0,3849521.0,3849998.0,3850662.0,3851337.0,3851806.0,3851397.0,3850730.0,3849862.0,3848961.0,3848742.0,3849058.020:27:40,3849269.0,3848666.0,3848658.0,3848643.0,3848666.0,3848930.0,3849442.0,3848909.0,3848583.0,3848612.0,3848538.0,3847386.0,3872565.0,3850200.0,3849198.0,3848975.0,3849634.0,3849506.0,3849928.0,3850357.0,3850967.0,3851400.0,3850694.0,3849924.0,3849018.0,3848128.0,3848087.0,3848288.0,3848313.0,3848281.0,3848081.0,3847871.0,3847544.0,3847314.0,3847231.0,3847050.0,3846884.0,3846679.0,3847407.0,3847038.0,3846502.0,3846269.0,3846254.0,3843497.0,3858490.0,3852187.0,3846870.0,3846237.0,3846535.0,3846676.0,3847084.0,3847595.0,3848313.0,3848775.0,3848515.0,3847973.0,3846823.0,3845914.0,3845415.0,3845883.0,3846557.0,3846036.0,3845638.0,3845461.0,3845305.0,3845322.0,3845228.0,3845111.0,3845200.0,3845357.0,3846065.0,3845647.0,3845201.0,3845111.0,3845156.0,3842530.0,3867201.0,3846627.0,3846084.0,3845733.0,3846000.0,3846535.0,3846987.0,3847573.0,3848466.0,3848933.0,3848458.0,3847876.0,3846928.0,3846009.0,3845898.0,3846126.0,