0.8420426644996916,0.2091740752354419,-0.40142182310285407,-0.6750155162819507,-0.6405637620822652,-0.5518382306324146,-0.43131952614816477,-0.32716857426789,-0.2971778864288758,-0.2963550732938387,-0.29255632598885206,-0.2761225311577864,-0.24703114203554674,-0.23095644551767017,-0.2407252638557756,-0.23456055428942615,-0.22529061752627547,-0.2385926478239949,-0.23590389181696583,-0.24611509819123906,-0.23708905192332871,-0.2345058914887917,-0.23835019250921946,-0.21648690670779008,-0.1881743041710038,-0.1951557498439908,-0.20529873568978432,-0.21859206612620513,-0.22217728958918798,-0.2256810388474998,-0.23873075421575038,-0.24204633321452412,-0.2548928419044208,-0.26762772172554256,-0.29309331694694557,-0.30880014534999667,-0.30831936258239206,-0.3044947206041395,-0.32301849613122313,-0.3446148441165696,-0.3307360009721679,-0.32955939693144204,-0.3475062462384818,-0.38136192283230874,-0.4022156857120069,-0.40364106436020886,-0.39205797590342534,-0.39636870064144536,-0.3844460209575009,-0.38519021704415213,-0.3793209422336201,-0.36682992888177557,-0.3477089311720687,-0.36049423133209146,-0.3409371081130825,-0.3211500656311531,-0.2947013779876693,-0.2969161127075801,-0.28281885773811893,-0.2684633375006145,-0.25063155887364985,-0.21646999391103708,-0.2013063346429542,-0.19871262844027987,-0.18941368665401165,-0.18304357832541718,-0.15069290009812605,-0.1405421393531579,-0.13653220883682968,-0.1322413479574263,-0.11482495793422964,-0.10034803003319429,-0.05669634512590618,-0.028845988299083015,-0.013594124888137906,-0.020587842351331553,-0.0145075608868464,-0.030700329748685307,-0.030638193542470837,-0.03361162744671128,-0.03642861302036496,-0.04553499313691771,-0.03204594017771002,-0.060227389705021804,-0.049805371378114006,-0.036140863436076726,-0.009627995801689113,-0.015267264787822355,-0.014548075516418854,0.011766102913864365,0.02830532705033821,0.06715045276012611,0.19892471971292097,0.37540374512924957,0.5451481961936253,0.6278066118184229,0.6329599221862351,0.4095821510080736,-0.11305683673383593,-0.6234587417654815,-0.8872155054839495,-0.7180768456212488,-0.5303955599331971,-0.3755325003347143,-0.2727142115748018,-0.2122589463511279,-0.1523651424213477,-0.15080524106453863,-0.12402321304087294,-0.10409752480109538,-0.09741164527117911,-0.10392636736151452,-0.11717984139630731,-0.10180328367909537,-0.09951813056949166,-0.10707871012123643,-0.1244528082098325,-0.12591329790852554,-0.12427879222030676,-0.10667289717297121,-0.09234088563389005,-0.09410534157798982,-0.115154194767686,-0.13940460099022883,-0.15077505869418514,-0.17815380545915271,-0.18940154079935836,-0.2101966575345355,-0.2180379652071351,-0.21933347362973218,-0.25261239065861346,-0.2536195625509995,-0.2640977112785616,0.0,0.0,0.0,0.0,0.0,0.0,0.0,0.0,0.0,0.0,0.0,0.0,0.0,0.0,0.0,0.0,0.0,0.0,0.0,0.0,0.0,0.0,0.0,0.0,0.0,0.0,0.0,0.0,0.0,0.0,0.0,0.0,0.0,0.0,0.0,0.0,0.0,0.0,0.0,0.0,0.0,0.0,0.0,0.0,0.0,0.0,0.0,0.0,0.0,0.0,0.0,0.0,0.0,0.0,0.0,0.0,0.0,0.0,0.0,0.0,0.0,0.0,0.0,0.0,0.0,0.0,0.0,0.0,0.0,0.0,0.0,0.0,0.0,0.0,0.0,0.0,0.0,0.0,0.0,0.0,0.0,0.0,0.0,0.0,0.0,0.0,0.0,0.0,0.0,0.0,0.0,0.0,0.0,0.0,0.0,0.0,0.0,0.0,0.0,0.0,0.0,0.0,0.0,0.0,0.0,0.0,0.0,0.0,0.0,0.0,0.0,0.0,0.0,0.0,0.0,0.0,0.0,0.0,0.0,0.0,0.0,0.0,0.0,0.0,0.0,0.0,0.0,0.0,0.0,0.0,0.0,0.0,0.0,0.0,0.0,0.0,0.0,0.0,0.0,0.0,0.0,0.0,0.0,0.0,0.0,0.0,0.0,0.0,0.0,0.0,0.0,0.0,0.0,0.0,0.0,0.0,0.0,0.0,0.0,0.0,0.0,0.0,0.0,0.0,0.0,0.0,0.0,0.0
1.0097593916027465,0.7863925138609741,0.19915760036847943,-0.6612442785838424,-0.7599733537218761,-0.7083561408039777,-0.6335055660034445,-0.4930396927212467,-0.26270668851567913,-0.057441947505517225,0.05018399731344376,0.07838195900276011,0.07562166947902012,0.10247507180225583,0.10452036692493878,0.11206411336453598,0.08581039984191416,0.07119162469772794,0.06824656565490543,0.06490749190245222,0.04607846218163586,0.011791908203133661,-0.004634704486039759,-0.015277160864138032,-0.017082525229022913,-0.04028659924395987,-0.05763107930190216,-0.05698970739223518,-0.0958378845437144,-0.12876529017442404,-0.13759774935697386,-0.14955363490325052,-0.15251317850048637,-0.16159248891168743,-0.1737521203734684,-0.18897968837490925,-0.21634199776665766,-0.25280230544767973,-0.28927237246097304,-0.31061228169202876,-0.32589120005479416,-0.3381263272558282,-0.36546548057511874,-0.3594824834424413,-0.3474025218719792,-0.35645035150630566,-0.34727668775680876,-0.35921055951017555,-0.35895476714381874,-0.34649874548624315,-0.37630124929272796,-0.35756854181187453,-0.3084442584685915,-0.35601118647130586,-0.35197775028811945,-0.33264403546015514,-0.3161535756792853,-0.272232504920408,-0.24323341803893814,-0.2230918122309689,-0.19969155437952374,-0.2093346819279217,-0.22174993064313397,-0.2217972366481513,-0.22157205216025944,-0.18475298391376385,-0.14764557243110474,-0.1526083981383419,-0.15424433883968866,-0.17373136203850265,-0.19593530533417008,-0.2026968179769171,-0.209144383291651,-0.23343334033409932,-0.23622396258038647,-0.16607275328669593,-0.19546779891928448,-0.25481057405153723,-0.31081648412268237,-0.357436285363026,-0.3462556323309161,-0.3014862104890239,-0.27457459886580704,-0.29881107709817195,-0.3136773986487862,-0.3100992033979189,-0.324393754404573,-0.3202522721058985,-0.3612272467013373,-0.3686449025696496,-0.3697441738425195,-0.3675539382211655,-0.3499711959064595,-0.35330926119753636,-0.32612473414356685,-0.33196581224662874,-0.3435980035375142,-0.35496959215464285,-0.3448984467395478,-0.3012807176477137,-0.2997693446589361,-0.2798432854973607,-0.2505819462351754,-0.22711729739668043,-0.22760792581135444,-0.22179554622539197,-0.20060517128204738,-0.1912756128516816,-0.1635506599211126,-0.16887947010837914,-0.17398151333786552,-0.14860328435151518,-0.14117063853935996,-0.1093276294273956,0.0,0.0,0.0,0.0,0.0,0.0,0.0,0.0,0.0,0.0,0.0,0.0,0.0,0.0,0.0,0.0,0.0,0.0,0.0,0.0,0.0,0.0,0.0,0.0,0.0,0.0,0.0,0.0,0.0,0.0,0.0,0.0,0.0,0.0,0.0,0.0,0.0,0.0,0.0,0.0,0.0,0.0,0.0,0.0,0.0,0.0,0.0,0.0,0.0,0.0,0.0,0.0,0.0,0.0,0.0,0.0,0.0,0.0,0.0,0.0,0.0,0.0,0.0,0.0,0.0,0.0,0.0,0.0,0.0,0.0,0.0,0.0,0.0,0.0,0.0,0.0,0.0,0.0,0.0,0.0,0.0,0.0,0.0,0.0,0.0,0.0,0.0,0.0,0.0,0.0,0.0,0.0,0.0,0.0,0.0,0.0,0.0,0.0,0.0,0.0,0.0,0.0,0.0,0.0,0.0,0.0,0.0,0.0,0.0,0.0,0.0,0.0,0.0,0.0,0.0,0.0,0.0,0.0,0.0,0.0,0.0,0.0,0.0,0.0,0.0,0.0,0.0,0.0,0.0,0.0,0.0,0.0,0.0,0.0,0.0,0.0,0.0,0.0,0.0,0.0,0.0,0.0,0.0,0.0,0.0,0.0,0.0,0.0,0.0,0.0,0.0,0.0,0.0,0.0,0.0,0.0,0.0,0.0,0.0,0.0,0.0,0.0,0.0,0.0,0.0,0.0,0.0,0.0,0.0,0.0,0.0,0.0,0.0,0.0,0.0,0.0,0.0,0.0,0.0,0.0,0.0,0.0,0.0,0.0,0.0,0.0,0.0
0.6815230866255014,0.4933045242282522,-0.04972880408768121,-0.6329460707359249,-0.8933004629892878,-0.8520327543191626,-0.6422980699015771,-0.38812602890432807,-0.2528581805400752,-0.11235394941821755,0.02135247896812682,-0.036261677722592325,-0.05514614320831545,0.03133866484411569,0.10221297361224706,0.15451276251058316,0.15198468613755253,0.15520787428264537,0.1672631274316744,0.1851765063625419,0.20899755522986235,0.19943388964725114,0.18376438345912352,0.17110857185738745,0.17058329645075387,0.19130276854379433,0.22422200504153947,0.16345826905774347,0.06653502833086472,0.06965161434111225,0.13046567836811412,0.06743240380517575,-0.03772523557827591,0.005653022394560885,0.03719889714432723,-0.10345769493472738,-0.1863226136858737,-0.21743834380831273,-0.2633701022220533,-0.21517031510613588,-0.1847967616653461,-0.21158165312705837,-0.22289255671181546,-0.2278023067411796,-0.2656453423715071,-0.28497390490000624,-0.2978886656846794,-0.3104384570680247,-0.33169849116412137,-0.3495615414806344,-0.32771174216501464,-0.3206160879271795,-0.34642857623605783,-0.35672929826156263,-0.35454199350371257,-0.37012508272617695,-0.3036149272378553,-0.27605134204408216,-0.23598701497993585,-0.18039253964314164,-0.13044786008666828,-0.21929928794636905,-0.2593282452953168,-0.1779084217093569,-0.07187527428765796,-0.04411733425581959,-0.07345467562552718,-0.05397828188144029,-0.006876511048571922,0.022452018349155483,0.04610274202806172,0.027751697425017735,0.03698622257894798,0.06773938066826454,0.08368133064268865,0.0757149680764266,0.05289756209753064,0.0515190785806008,0.04734555507855082,0.058506319138438866,0.057737270013820674,0.038954900840785005,0.05356943592675724,0.06825848534174396,0.040619333186402665,-0.008204868966089596,0.024631602847503282,0.10579848844014063,0.1656504962619303,0.22834895907178193,0.2877916620785458,0.3893170796967041,0.43603403330054713,0.4884045345064373,0.4616341062250594,0.07422791509720797,-0.5588945817426275,-0.9959978720687939,-0.683361574350386,-0.4259208174027553,-0.2508732565731452,-0.15514886065916475,-0.1084432687707519,-0.06834874122030193,-0.07718941556678095,-0.07742974541694514,-0.06297917890345957,-0.051957307400580584,-0.0382764265189115,-0.07032004700913497,0.02140553766026544,0.05233955978507331,-0.025906379714554707,-0.04989610462345362,0.0,0.0,0.0,0.0,0.0,0.0,0.0,0.0,0.0,0.0,0.0,0.0,0.0,0.0,0.0,0.0,0.0,0.0,0.0,0.0,0.0,0.0,0.0,0.0,0.0,0.0,0.0,0.0,0.0,0.0,0.0,0.0,0.0,0.0,0.0,0.0,0.0,0.0,0.0,0.0,0.0,0.0,0.0,0.0,0.0,0.0,0.0,0.0,0.0,0.0,0.0,0.0,0.0,0.0,0.0,0.0,0.0,0.0,0.0,0.0,0.0,0.0,0.0,0.0,0.0,0.0,0.0,0.0,0.0,0.0,0.0,0.0,0.0,0.0,0.0,0.0,0.0,0.0,0.0,0.0,0.0,0.0,0.0,0.0,0.0,0.0,0.0,0.0,0.0,0.0,0.0,0.0,0.0,0.0,0.0,0.0,0.0,0.0,0.0,0.0,0.0,0.0,0.0,0.0,0.0,0.0,0.0,0.0,0.0,0.0,0.0,0.0,0.0,0.0,0.0,0.0,0.0,0.0,0.0,0.0,0.0,0.0,0.0,0.0,0.0,0.0,0.0,0.0,0.0,0.0,0.0,0.0,0.0,0.0,0.0,0.0,0.0,0.0,0.0,0.0,0.0,0.0,0.0,0.0,0.0,0.0,0.0,0.0,0.0,0.0,0.0,0.0,0.0,0.0,0.0,0.0,0.0,0.0,0.0,0.0,0.0,0.0,0.0,0.0,0.0,0.0,0.0,0.0,0.0,0.0,0.0,0.0,0.0,0.0,0.0,0.0,0.0,0.0,0.0,0.0,0.0,0.0,0.0,0.0,0.0,0.0,0.0
0.47380536760988,0.18289168613769904,-0.4077415533593318,-0.7093925541893923,-0.5115948432694253,-0.34060116791915884,-0.1569163119547973,-0.13812056730016326,-0.1394624678028969,-0.14117729876288465,-0.1300792743419517,-0.12587437696321965,-0.13511292884758255,-0.13145497705805925,-0.14118700322094907,-0.16428339789505414,-0.1415153519446575,-0.15837531285227013,-0.1687921948369824,-0.2122122903361351,-0.21625285811956851,-0.2532521739308883,-0.27714103054950473,-0.2418503686748593,-0.1934061253894323,-0.17125623071138266,-0.1424887298819847,-0.14655255796941674,-0.14395880785857168,-0.13468852581272037,-0.1285907704720617,-0.11906981123162032,-0.10610890070684693,-0.07982479235496902,-0.05335886524643385,-0.010251559538426302,-0.006404794701862878,0.0009513267699080595,-0.004618587713790756,0.009785240269164405,0.007989972122466889,0.009736108086421077,0.008449846297059286,0.010712346015728957,0.016525098080268166,0.029177231582573952,0.02235442483795249,0.005920962058230314,-0.0036821865044121905,0.000117187626428163,-0.025446692793148228,-0.057358899840099106,-0.08905132252226296,-0.10080055324712296,-0.11564253130340688,-0.11385572820101923,-0.13163425336182094,-0.15254736516290815,-0.14371954800756473,-0.14463626967030738,-0.14873620955516625,-0.1461696320690345,-0.1073528361385232,-0.0619067119633853,-0.019718391179959112,0.07510600986185689,0.2093878332927507,0.376524843525839,0.49755201192701387,0.6020415109477865,0.5616845232576366,0.16265105122367504,-0.7464001114534129,-0.38281807245596366,-0.21025551962486858,-0.18265599004097857,-0.17502483976791042,-0.18077574165103488,-0.180166483605668,-0.16661178783607347,-0.19930900982877703,-0.21247005831808294,-0.22582401558806084,-0.23936567977325426,-0.29255940602929714,-0.29330552699676365,-0.3073805394508244,-0.3018867656780111,-0.2965498921977281,-0.28478094775022456,-0.26656787026646495,-0.2747894728913633,-0.2962771661577365,-0.298127764851803,-0.28690607882636027,-0.2823318892203973,-0.277811742558999,-0.2864868238688383,-0.13073019549081288,-0.08352209450104305,-0.05604185886978061,-0.03183015506486269,-0.024030737495933756,0.0002588683508834914,0.02460325301191772,0.04901112153170148,0.060333217770846166,0.07502058032365655,0.09636610795069245,0.12437180413202303,0.11956850437601009,0.09839981009480722,0.09046373466390197,0.08917621931525233,0.08466223278455415,0.09664683771570814,0.10538398730028291,0.09770394930813642,0.09990432236855834,0.08565510646316715,0.07138276582802718,0.09982477021628182,0.10846542639229731,0.10385835374615747,0.15833733509369408,0.22253729790057672,0.33260771967881375,0.4589134311392437,0.0,0.0,0.0,0.0,0.0,0.0,0.0,0.0,0.0,0.0,0.0,0.0,0.0,0.0,0.0,0.0,0.0,0.0,0.0,0.0,0.0,0.0,0.0,0.0,0.0,0.0,0.0,0.0,0.0,0.0,0.0,0.0,0.0,0.0,0.0,0.0,0.0,0.0,0.0,0.0,0.0,0.0,0.0,0.0,0.0,0.0,0.0,0.0,0.0,0.0,0.0,0.0,0.0,0.0,0.0,0.0,0.0,0.0,0.0,0.0,0.0,0.0,0.0,0.0,0.0,0.0,0.0,0.0,0.0,0.0,0.0,0.0,0.0,0.0,0.0,0.0,0.0,0.0,0.0,0.0,0.0,0.0,0.0,0.0,0.0,0.0,0.0,0.0,0.0,0.0,0.0,0.0,0.0,0.0,0.0,0.0,0.0,0.0,0.0,0.0,0.0,0.0,0.0,0.0,0.0,0.0,0.0,0.0,0.0,0.0,0.0,0.0,0.0,0.0,0.0,0.0,0.0,0.0,0.0,0.0,0.0,0.0,0.0,0.0,0.0,0.0,0.0,0.0,0.0,0.0,0.0,0.0,0.0,0.0,0.0,0.0,0.0,0.0,0.0,0.0,0.0,0.0,0.0,0.0,0.0,0.0,0.0,0.0,0.0,0.0,0.0,0.0,0.0,0.0,0.0,0.0,0.0,0.0,0.0,0.0,0.0,0.0,0.0,0.0,0.0,0.0,0.0,0.0,0.0,0.0,0.0,0.0,0.0
0.791878969744011,0.6419934808545046,0.16287252591240373,-0.4120082907955654,-0.8491755935262049,-0.48098174362284074,-0.2842782985290111,-0.1472039069556464,-0.04341383652632684,-0.01563525895646664,0.005233060814228894,0.002774265927535147,-0.003249774857396991,-0.006235044820402658,0.0069992868200355,0.0035851838861129244,-0.003299355023662804,-0.020212399397737637,-0.04384609841861501,-0.04129196041750039,-0.03555749061971984,-0.03320587198825245,-0.037512417882834964,-0.04517547782136615,-0.043027309950488105,-0.04750331469055485,-0.07504009150627028,-0.08287150858626292,-0.10388191102345064,-0.12162005378377348,-0.1229246926012053,-0.1209482372638629,-0.12555479112061116,-0.11371820699313837,-0.1281952440438572,0.0,0.0,0.0,0.0,0.0,0.0,0.0,0.0,0.0,0.0,0.0,0.0,0.0,0.0,0.0,0.0,0.0,0.0,0.0,0.0,0.0,0.0,0.0,0.0,0.0,0.0,0.0,0.0,0.0,0.0,0.0,0.0,0.0,0.0,0.0,0.0,0.0,0.0,0.0,0.0,0.0,0.0,0.0,0.0,0.0,0.0,0.0,0.0,0.0,0.0,0.0,0.0,0.0,0.0,0.0,0.0,0.0,0.0,0.0,0.0,0.0,0.0,0.0,0.0,0.0,0.0,0.0,0.0,0.0,0.0,0.0,0.0,0.0,0.0,0.0,0.0,0.0,0.0,0.0,0.0,0.0,0.0,0.0,0.0,0.0,0.0,0.0,0.0,0.0,0.0,0.0,0.0,0.0,0.0,0.0,0.0,0.0,0.0,0.0,0.0,0.0,0.0,0.0,0.0,0.0,0.0,0.0,0.0,0.0,0.0,0.0,0.0,0.0,0.0,0.0,0.0,0.0,0.0,0.0,0.0,0.0,0.0,0.0,0.0,0.0,0.0,0.0,0.0,0.0,0.0,0.0,0.0,0.0,0.0,0.0,0.0,0.0,0.0,0.0,0.0,0.0,0.0,0.0,0.0,0.0,0.0,0.0,0.0,0.0,0.0,0.0,0.0,0.0,0.0,0.0,0.0,0.0,0.0,0.0,0.0,0.0,0.0,0.0,0.0,0.0,0.0,0.0,0.0,0.0,0.0,0.0,0.0,0.0,0.0,0.0,0.0,0.0,0.0,0.0,0.0,0.0,0.0,0.0,0.0,0.0,0.0,0.0,0.0,0.0,0.0,0.0,0.0,0.0,0.0,0.0,0.0,0.0,0.0,0.0,0.0,0.0,0.0,0.0,0.0,0.0,0.0,0.0,0.0,0.0,0.0,0.0,0.0,0.0,0.0,0.0,0.0,0.0,0.0,0.0,0.0,0.0,0.0,0.0,0.0,0.0,0.0,0.0,0.0,0.0,0.0,0.0,0.0,0.0,0.0,0.0,0.0,0.0,0.0,0.0,0.0,0.0,0.0,0.0,0.0,0.0,0.0,0.0,0.0,0.0,0.0,0.0,0.0,0.0,0.0,0.0,0.0,0.0,0.0,0.0,0.0,0.0,0.0,0.0,0.0,0.0,0.0
0.9061597910112603,0.5390721048065482,-0.09881579532328075,-0.5856887483701378,-0.7334431761050914,-0.6635394226978112,-0.5520307515596091,-0.3564018078218073,-0.17676824751512354,-0.07074800141854261,-0.014009187202021075,0.011708502994861312,0.0459103367066514,0.0431143431842692,0.057998463286622795,0.057218040577812664,0.046884230149693375,0.04828238666814652,0.03413287442055193,0.022682321766386366,0.01699965224518425,-0.013235070062579684,-0.04674495662670135,-0.04707856707739667,-0.0779474169711101,-0.0816562314379189,-0.10674293948578768,-0.12283133455571268,-0.12686301845748338,-0.13095651299978708,-0.14723122992188875,-0.14227942069645746,-0.14339816452528406,-0.15663893958486563,-0.16984281941466647,-0.17388682058710322,-0.17785984659804593,-0.16960504188107173,-0.17945901356391578,-0.17098460139121305,-0.19273092755364216,-0.21129733005108375,-0.23577653522217185,-0.2540153232907,-0.2629664257893962,-0.2595828284200421,-0.28938095800964136,-0.2886101963654441,-0.3058224759688422,-0.3015489530184946,-0.3091655388130954,-0.30437932349462293,-0.28717860300243975,-0.27879808949882146,-0.2640501597149377,-0.23078252261916132,-0.2214767268503774,-0.21487544975894737,-0.19579218952122848,-0.16118170210991975,-0.1383513086022429,-0.12729223057475916,-0.10978531020127605,-0.08278828735001881,-0.05236548315427205,-0.03368793499749388,-0.035857538717436535,-0.031555122174086944,-0.020779676023229072,-0.030848375228526886,-0.04658698735321341,-0.025505832126495397,-0.019207782029694212,-0.042874682476880394,-0.04188016150334316,-0.004091984764350293,0.006740717690466584,0.014888169503150937,-0.006979397327173697,-0.013348501920380375,-0.013340788420667231,-0.006973752529453053,0.01787446043803574,0.0247609840779841,0.050086185936125925,0.060439139922063796,0.09828719481830162,0.11503981350657172,0.15012530066438343,0.16708981197500705,0.1628644500513199,0.1768707855591896,0.19085921293894234,0.24121135370694716,0.3096727151621975,0.4144084980850086,0.5492992147906092,0.6323417317565665,0.7302535418357252,0.8065505845392805,0.8520604417028673,0.5844369597853235,-0.011574024888147,-0.5809364806212436,-0.8991295273183538,-0.7021484308201953,-0.43920446609543495,-0.2347045526076762,-0.10681077669467332,-0.04940395956124682,0.004338127035596732,0.054461990509417545,0.046378956661829424,0.04690663401802507,0.02573441153938248,0.013253959048040496,0.0034328696646491294,-0.003692450041646628,-0.041474356713501095,-0.033999441425706385,-0.03283409537010402,-0.03794763029333774,-0.05841632396318474,-0.06082496090722036,-0.09674521331251199,-0.08420108627987034,-0.08690732056475238,-0.11698132646919257,0.0,0.0,0.0,0.0,0.0,0.0,0.0,0.0,0.0,0.0,0.0,0.0,0.0,0.0,0.0,0.0,0.0,0.0,0.0,0.0,0.0,0.0,0.0,0.0,0.0,0.0,0.0,0.0,0.0,0.0,0.0,0.0,0.0,0.0,0.0,0.0,0.0,0.0,0.0,0.0,0.0,0.0,0.0,0.0,0.0,0.0,0.0,0.0,0.0,0.0,0.0,0.0,0.0,0.0,0.0,0.0,0.0,0.0,0.0,0.0,0.0,0.0,0.0,0.0,0.0,0.0,0.0,0.0,0.0,0.0,0.0,0.0,0.0,0.0,0.0,0.0,0.0,0.0,0.0,0.0,0.0,0.0,0.0,0.0,0.0,0.0,0.0,0.0,0.0,0.0,0.0,0.0,0.0,0.0,0.0,0.0,0.0,0.0,0.0,0.0,0.0,0.0,0.0,0.0,0.0,0.0,0.0,0.0,0.0,0.0,0.0,0.0,0.0,0.0,0.0,0.0,0.0,0.0,0.0,0.0,0.0,0.0,0.0,0.0,0.0,0.0,0.0,0.0,0.0,0.0,0.0,0.0,0.0,0.0,0.0,0.0,0.0,0.0,0.0,0.0,0.0,0.0,0.0,0.0,0.0,0.0,0.0,0.0,0.0,0.0,0.0,0.0,0.0,0.0,0.0,0.0,0.0,0.0,0.0,0.0,0.0,0.0,0.0,0.0,0.0,0.0,0.0,0.0,0.0,0.0,0.0,0.0,0.0
0.8420426644996916,0.2091740752354419,-0.40142182310285407,-0.6750155162819507,-0.6405637620822652,-0.5518382306324146,-0.43131952614816477,-0.32716857426789,-0.2971778864288758,-0.2963550732938387,-0.29255632598885206,-0.2761225311577864,-0.24703114203554674,-0.23095644551767017,-0.2407252638557756,-0.23456055428942615,-0.22529061752627547,-0.2385926478239949,-0.23590389181696583,-0.24611509819123906,-0.23708905192332871,-0.2345058914887917,-0.23835019250921946,-0.21648690670779008,-0.1881743041710038,-0.1951557498439908,-0.20529873568978432,-0.21859206612620513,-0.22217728958918798,-0.2256810388474998,-0.23873075421575038,-0.24204633321452412,-0.2548928419044208,-0.26762772172554256,-0.29309331694694557,-0.30880014534999667,-0.30831936258239206,-0.3044947206041395,-0.32301849613122313,-0.3446148441165696,-0.3307360009721679,-0.32955939693144204,-0.3475062462384818,-0.38136192283230874,-0.4022156857120069,-0.40364106436020886,-0.39205797590342534,-0.39636870064144536,-0.3844460209575009,-0.38519021704415213,-0.3793209422336201,-0.36682992888177557,-0.3477089311720687,-0.36049423133209146,-0.3409371081130825,-0.3211500656311531,-0.2947013779876693,-0.2969161127075801,-0.28281885773811893,-0.2684633375006145,-0.25063155887364985,-0.21646999391103708,-0.2013063346429542,-0.19871262844027987,-0.18941368665401165,-0.18304357832541718,-0.15069290009812605,-0.1405421393531579,-0.13653220883682968,-0.1322413479574263,-0.11482495793422964,-0.10034803003319429,-0.05669634512590618,-0.028845988299083015,-0.013594124888137906,-0.020587842351331553,-0.0145075608868464,-0.030700329748685307,-0.030638193542470837,-0.03361162744671128,-0.03642861302036496,-0.04553499313691771,-0.03204594017771002,-0.060227389705021804,-0.049805371378114006,-0.036140863436076726,-0.009627995801689113,-0.015267264787822355,-0.014548075516418854,0.011766102913864365,0.02830532705033821,0.06715045276012611,0.19892471971292097,0.37540374512924957,0.5451481961936253,0.6278066118184229,0.6329599221862351,0.4095821510080736,-0.11305683673383593,-0.6234587417654815,-0.8872155054839495,-0.7180768456212488,-0.5303955599331971,-0.3755325003347143,-0.2727142115748018,-0.2122589463511279,-0.1523651424213477,-0.15080524106453863,-0.12402321304087294,-0.10409752480109538,-0.09741164527117911,-0.10392636736151452,-0.11717984139630731,-0.10180328367909537,-0.09951813056949166,-0.10707871012123643,-0.1244528082098325,-0.12591329790852554,-0.12427879222030676,-0.10667289717297121,-0.09234088563389005,-0.09410534157798982,-0.115154194767686,-0.13940460099022883,-0.15077505869418514,-0.17815380545915271,-0.18940154079935836,-0.2101966575345355,-0.2180379652071351,-0.21933347362973218,-0.25261239065861346,-0.2536195625509995,-0.2640977112785616,0.0,0.0,0.0,0.0,0.0,0.0,0.0,0.0,0.0,0.0,0.0,0.0,0.0,0.0,0.0,0.0,0.0,0.0,0.0,0.0,0.0,0.0,0.0,0.0,0.0,0.0,0.0,0.0,0.0,0.0,0.0,0.0,0.0,0.0,0.0,0.0,0.0,0.0,0.0,0.0,0.0,0.0,0.0,0.0,0.0,0.0,0.0,0.0,0.0,0.0,0.0,0.0,0.0,0.0,0.0,0.0,0.0,0.0,0.0,0.0,0.0,0.0,0.0,0.0,0.0,0.0,0.0,0.0,0.0,0.0,0.0,0.0,0.0,0.0,0.0,0.0,0.0,0.0,0.0,0.0,0.0,0.0,0.0,0.0,0.0,0.0,0.0,0.0,0.0,0.0,0.0,0.0,0.0,0.0,0.0,0.0,0.0,0.0,0.0,0.0,0.0,0.0,0.0,0.0,0.0,0.0,0.0,0.0,0.0,0.0,0.0,0.0,0.0,0.0,0.0,0.0,0.0,0.0,0.0,0.0,0.0,0.0,0.0,0.0,0.0,0.0,0.0,0.0,0.0,0.0,0.0,0.0,0.0,0.0,0.0,0.0,0.0,0.0,0.0,0.0,0.0,0.0,0.0,0.0,0.0,0.0,0.0,0.0,0.0,0.0,0.0,0.0,0.0,0.0,0.0,0.0,0.0,0.0,0.0,0.0,0.0,0.0,0.0,0.0,0.0,0.0,0.0,0.0
0.6696677858057917,0.06786809755309246,-0.5345746625855897,-0.8145170708808152,-0.8079420262166824,-0.7124066734591781,-0.5937476152660235,-0.39506841894985995,-0.2150822502337182,-0.09264619106487963,-0.042675863564422725,-0.014246697519032602,0.022614320055498047,0.0350291580799534,0.014060056818469764,-0.028283344530546695,-0.026122989305103705,-0.018331139411881935,-0.022832352062555742,-0.05156757040750081,-0.05961632533657034,-0.07089462586845968,-0.0853777985252856,-0.10603572395510935,-0.13284714384629048,-0.13586426462383253,-0.1539753644437143,-0.16920674404182898,-0.1815428945507809,-0.1849839386638528,-0.19448086196827977,-0.19805053038175968,-0.23159590104013192,-0.23225829803933615,-0.24192834748120304,-0.26359107808666166,-0.29424678652930236,-0.32191811878683213,-0.3436067788718829,-0.38624306281959353,-0.4198942505324458,-0.4026565476222226,-0.409345739827152,-0.4130221464805839,-0.4466023451491882,-0.4562114468412216,-0.4448353987245608,-0.46334164025736596,-0.4518612361633855,-0.44329822111165434,-0.434639845954534,-0.4108998738932775,-0.4229324717308572,-0.40187943663938447,-0.38063780561194355,-0.3472125494852398,-0.32851536852472674,-0.28262368749478095,-0.23944283488452245,-0.21092196231946508,-0.19105426046577956,-0.17084115330911556,-0.15924206983735384,-0.1472608210874397,-0.13188814081993544,-0.13106579709972307,-0.10886641078710964,-0.1071771143847869,-0.10503757729484639,-0.11141713464690857,-0.0844089189537285,-0.10780563797202704,-0.124739589938197,-0.15915051136670294,-0.16015935496594613,-0.16068706533292462,-0.157742160513342,-0.15132726371664929,-0.14144630770567723,-0.1460614288804714,-0.17715053400393715,-0.18683669109818166,-0.16914352538530952,-0.16598079152642176,-0.1653889107011217,-0.17336643445858835,-0.18094913399317045,-0.18515963260101037,-0.1830217470967628,-0.17754608743088549,-0.17473725704417478,-0.1806010699111723,-0.1891733232447494,-0.15558447516301635,-0.13073606689818834,-0.12363161533580116,-0.1342976509405631,-0.13582689126926176,-0.13423439433842235,-0.10860134428026968,-0.09786655901707592,-0.10505668770987205,-0.10027907476726627,-0.0835707409275289,-0.08489840714665704,-0.06838864742350544,-0.052040295557128094,-0.04188270032795723,-0.020004565899995094,0.007561032032941031,0.09762803656840906,0.28306577205548966,0.5279063387363867,0.7692430302462345,0.4413722661624645,-0.20437825699135656,-0.6802531313607213,-0.8037646796229856,-0.7575233282842935,-0.6642468065278523,-0.49997303943044735,-0.30057292233954475,-0.16176592688116515,-0.07153094802479452,-0.020840980509358398,0.011300481656342332,0.0,0.0,0.0,0.0,0.0,0.0,0.0,0.0,0.0,0.0,0.0,0.0,0.0,0.0,0.0,0.0,0.0,0.0,0.0,0.0,0.0,0.0,0.0,0.0,0.0,0.0,0.0,0.0,0.0,0.0,0.0,0.0,0.0,0.0,0.0,0.0,0.0,0.0,0.0,0.0,0.0,0.0,0.0,0.0,0.0,0.0,0.0,0.0,0.0,0.0,0.0,0.0,0.0,0.0,0.0,0.0,0.0,0.0,0.0,0.0,0.0,0.0,0.0,0.0,0.0,0.0,0.0,0.0,0.0,0.0,0.0,0.0,0.0,0.0,0.0,0.0,0.0,0.0,0.0,0.0,0.0,0.0,0.0,0.0,0.0,0.0,0.0,0.0,0.0,0.0,0.0,0.0,0.0,0.0,0.0,0.0,0.0,0.0,0.0,0.0,0.0,0.0,0.0,0.0,0.0,0.0,0.0,0.0,0.0,0.0,0.0,0.0,0.0,0.0,0.0,0.0,0.0,0.0,0.0,0.0,0.0,0.0,0.0,0.0,0.0,0.0,0.0,0.0,0.0,0.0,0.0,0.0,0.0,0.0,0.0,0.0,0.0,0.0,0.0,0.0,0.0,0.0,0.0,0.0,0.0,0.0,0.0,0.0,0.0,0.0,0.0,0.0,0.0,0.0,0.0,0.0,0.0,0.0,0.0,0.0,0.0,0.0,0.0,0.0,0.0,0.0,0.0,0.0,0.0,0.0,0.0,0.0,0.0,0.0,0.0
0.6073197890488341,0.19391485241762912,-0.41424351783378943,-0.8529927909267951,-0.5639071167695753,-0.37559587738779376,-0.2546464814164176,-0.1585340106038529,-0.11454344329730999,-0.0740804398701151,-0.07050206573750949,-0.0673568945726639,-0.05854669160389132,-0.06832642934050233,-0.07542428207431878,-0.07374561662058612,-0.10576017863049046,-0.10467159792152313,-0.10991656912525403,-0.12754556595915298,-0.11808200707381343,-0.13917666106103097,-0.14224916097893406,-0.15156481581553743,-0.16103772773892042,-0.1615475633567735,-0.1834323340995593,-0.20846753619391284,-0.236640484842349,-0.258833371209432,-0.2568231215570318,-0.2791613358293934,-0.28334379464142273,-0.29060564866859756,-0.2918301362932921,-0.28397097107926744,-0.2791579415951735,-0.2834505368365148,-0.29076756632683776,-0.2919927446006948,-0.2901506645283967,-0.3034419931721019,-0.3166802492845357,-0.32074936261808745,-0.30653213896919596,-0.29526189343238257,-0.28085496337887733,-0.2632981380800732,-0.2304375188502964,-0.24903466629033377,-0.252302625851926,-0.24022916566271346,-0.24011913442069818,-0.2519608860859031,-0.23628547250260873,-0.23860986545177662,-0.22857132998317478,-0.2031242801807344,-0.18046992539126727,-0.15756356971199417,-0.12225553319023871,-0.11703050797678695,-0.09635324171300762,-0.08753426870092101,-0.09967395383012875,-0.10545132478079833,-0.07754643510899824,-0.06148518292736427,-0.06940738106024623,-0.09827804924184926,-0.08132414279356211,-0.06711132520743947,-0.07385435778069165,-0.07727636275185237,-0.10470005102699764,-0.11667482777249857,-0.134455138539742,-0.15197955191382576,-0.13283546863002438,-0.14077271917686443,-0.13330992474189765,-0.12260016257039077,-0.11776216562167728,-0.08238754837024691,-0.08023052613077306,-0.07488476112051581,-0.07243786639749535,-0.0820138068235765,-0.0489984676953809,-0.03715172578338851,-0.03131948557992944,-0.04063060592021523,-0.03172248553997907,-0.004621066069375292,0.007259123426418943,0.02210048643554741,0.07629507779674703,0.11517725814125068,0.18727634976655375,0.28648593916254994,0.43097876804755436,0.593396591734815,0.5278429436955056,-0.035864749683669046,-1.0097593916027465,-0.46654282910377476,-0.294098834103256,-0.21923200644686153,-0.17210553252442592,-0.12234065257716227,-0.10026331020389231,-0.10281313974406432,-0.08747317270050503,-0.07546669237759386,-0.08801806895951679,-0.09475438584900713,-0.08958542645996398,-0.08463323657190776,-0.11326735215675729,-0.12387275477047699,-0.11643381757160165,-0.10914703049244284,-0.12020982554189412,-0.13139818945560644,-0.1275242341477533,-0.12071775662505105,-0.10793343060881579,-0.08612685047725037,0.0,0.0,0.0,0.0,0.0,0.0,0.0,0.0,0.0,0.0,0.0,0.0,0.0,0.0,0.0,0.0,0.0,0.0,0.0,0.0,0.0,0.0,0.0,0.0,0.0,0.0,0.0,0.0,0.0,0.0,0.0,0.0,0.0,0.0,0.0,0.0,0.0,0.0,0.0,0.0,0.0,0.0,0.0,0.0,0.0,0.0,0.0,0.0,0.0,0.0,0.0,0.0,0.0,0.0,0.0,0.0,0.0,0.0,0.0,0.0,0.0,0.0,0.0,0.0,0.0,0.0,0.0,0.0,0.0,0.0,0.0,0.0,0.0,0.0,0.0,0.0,0.0,0.0,0.0,0.0,0.0,0.0,0.0,0.0,0.0,0.0,0.0,0.0,0.0,0.0,0.0,0.0,0.0,0.0,0.0,0.0,0.0,0.0,0.0,0.0,0.0,0.0,0.0,0.0,0.0,0.0,0.0,0.0,0.0,0.0,0.0,0.0,0.0,0.0,0.0,0.0,0.0,0.0,0.0,0.0,0.0,0.0,0.0,0.0,0.0,0.0,0.0,0.0,0.0,0.0,0.0,0.0,0.0,0.0,0.0,0.0,0.0,0.0,0.0,0.0,0.0,0.0,0.0,0.0,0.0,0.0,0.0,0.0,0.0,0.0,0.0,0.0,0.0,0.0,0.0,0.0,0.0,0.0,0.0,0.0,0.0,0.0,0.0,0.0,0.0,0.0,0.0,0.0,0.0,0.0,0.0,0.0,0.0
0.11301154644912376,0.324300373061735,0.6120693553229811,0.5094622425963102,0.06369648409253709,-0.47711080210230933,-0.8884808392980661,-0.8277524092236294,-0.616979131892712,-0.4659078284459319,-0.3892731933648382,-0.29249197432332,-0.24347740656503514,-0.24219050404910933,-0.23836716550454415,-0.2319703930936195,-0.19932839077204995,-0.19063233167147484,-0.2058484944384886,-0.18880935305441268,-0.18970972641886322,-0.15238453176663136,-0.15953035707751936,-0.19043854762087223,-0.1653123226803742,-0.1638979064524447,-0.16549069261435323,-0.1996135697396355,-0.1953385949908279,-0.19400915528390802,-0.16901690201721817,-0.16170769191069206,-0.15138473143561593,-0.16757873291061534,-0.16300546241521366,-0.14356263935133015,-0.15355757515832477,-0.17525505829822324,-0.220466086019144,-0.22123211314820787,-0.23368372732444087,-0.21940935972929013,-0.2197693558139794,-0.23180801980036547,-0.255525242165141,-0.2850130089557304,-0.320273190525224,-0.3494905331119751,-0.35789591302947615,-0.37799229669409146,-0.4245562083324048,-0.44441152338485646,-0.4375627857269051,-0.43946799925814356,-0.45604042003297474,-0.48728436137663583,-0.46524980283416506,-0.44902489279323105,-0.4326970478001985,-0.4192164146831191,-0.3790339399232827,-0.3830528944201497,-0.3692254048130681,-0.3670926724863729,-0.3323343402121922,-0.29449234432718197,-0.3185628897307885,-0.3040922146374473,-0.26880624592895813,-0.23929502878818554,-0.19192336652367303,-0.1621466108454035,-0.1647400243060502,-0.1612996840518792,-0.14296782010300366,-0.13043283255508464,-0.12370327712420606,-0.09915345099155064,-0.05679505573536113,-0.03800418106163928,-0.01916035070670942,0.02335489334265582,0.11315789663008369,0.1852283747455371,0.28976786559833945,0.6631068129910598,0.4927327288727612,0.023830306620697548,-0.5397831079465365,-0.7756612109938834,-0.6542937948715255,-0.4977216640714337,-0.3354722161348979,-0.24433915148502278,-0.1977100123960341,-0.16601885088749255,-0.16106361432391103,-0.1591899062837641,-0.17810740892246893,-0.18530111060281973,-0.19848342353636494,-0.20582327339783882,-0.2338990005096106,-0.2531550645740685,-0.25176382505152006,-0.24744335220091884,-0.2431402815821392,-0.2506656503004328,-0.24637776606785905,-0.2509530439935018,-0.25847858409661495,-0.2807693008841546,-0.297141779608634,-0.307594747759246,-0.31803660904816167,-0.3225585301641211,-0.34184258735652634,-0.3522542998995595,-0.3597044544284347,-0.38192219189926596,-0.3923199105633266,-0.3997640292954218,-0.40425778315137306,-0.41171357029873207,-0.41918054539670374,-0.42075353597773385,-0.4134819587731562,-0.44759591796268466,-0.48173687684948796,-0.48931811843155243,-0.47624836299215856,-0.4720676173911452,-0.47972231057723175,0.0,0.0,0.0,0.0,0.0,0.0,0.0,0.0,0.0,0.0,0.0,0.0,0.0,0.0,0.0,0.0,0.0,0.0,0.0,0.0,0.0,0.0,0.0,0.0,0.0,0.0,0.0,0.0,0.0,0.0,0.0,0.0,0.0,0.0,0.0,0.0,0.0,0.0,0.0,0.0,0.0,0.0,0.0,0.0,0.0,0.0,0.0,0.0,0.0,0.0,0.0,0.0,0.0,0.0,0.0,0.0,0.0,0.0,0.0,0.0,0.0,0.0,0.0,0.0,0.0,0.0,0.0,0.0,0.0,0.0,0.0,0.0,0.0,0.0,0.0,0.0,0.0,0.0,0.0,0.0,0.0,0.0,0.0,0.0,0.0,0.0,0.0,0.0,0.0,0.0,0.0,0.0,0.0,0.0,0.0,0.0,0.0,0.0,0.0,0.0,0.0,0.0,0.0,0.0,0.0,0.0,0.0,0.0,0.0,0.0,0.0,0.0,0.0,0.0,0.0,0.0,0.0,0.0,0.0,0.0,0.0,0.0,0.0,0.0,0.0,0.0,0.0,0.0,0.0,0.0,0.0,0.0,0.0,0.0,0.0,0.0,0.0,0.0,0.0,0.0,0.0,0.0,0.0,0.0,0.0,0.0,0.0,0.0,0.0,0.0,0.0,0.0,0.0,0.0,0.0,0.0,0.0,0.0,0.0,0.0,0.0,0.0,0.0,0.0,0.0,0.0,0.0,0.0
0.6766610997986183,0.2671720479562033,-0.3573328070151966,-0.7526946877770694,-0.8413193797612825,-0.4554768242072697,-0.25061839398457214,-0.09311410716508284,-0.023300875772939766,0.04585205509990076,0.08953840949295855,0.10158963412232791,0.09758122993247262,0.09929994192227411,0.09746517938426608,0.08590105713029515,0.07396260459959644,0.07100307376157701,0.06773469890668439,0.07661386123041423,0.060390455553175404,0.03773054536570868,0.033511644209065425,0.026011479253544013,0.04942416185085965,0.06649167570878056,0.0648068093182477,0.05681307061580548,0.03320644565445001,-0.0059990615920214405,0.0013400385247287203,-0.013109181625950294,-0.021377954848911855,-0.020351196236168396,-0.03798056179015636,-0.06804690390265214,-0.0950125830764692,-0.12198026744583755,-0.1240945481945241,-0.1448448542079439,-0.1562706922413052,-0.18011699252713692,-0.21017030205695936,-0.2402176152018726,-0.24851347352818157,-0.2568042652485751,-0.24955788417013056,-0.28890603763228107,-0.28475958395486795,-0.3023550458887435,-0.31062445586005943,-0.3188818836782676,-0.3209047512379929,-0.3042526980140869,-0.2782263387413,-0.26765574539220655,-0.25698501997715567,-0.21823207425804947,-0.18554588270754407,-0.15890362678324574,-0.09789775839153703,-0.06774398232643865,-0.07152786218641045,-0.07505737101175623,-0.05346112211870813,-0.05642590110675941,-0.028016874793105887,-0.008603325320512936,-0.02302299279408675,0.009507777174379966,0.02687010687949967,0.02907472278376779,0.009917769067471735,0.00047249637552915767,-0.0023612920197513296,0.023167256695439006,0.002504609686293897,-0.01153568035663065,-0.03448552086881211,-0.053919159719778655,-0.04187927039816861,-0.05117990433406927,-0.041439752018791125,-0.03440959567997719,-0.030095508426093723,-0.03471783924930249,-0.035858834727372176,-0.021101915813417745,-0.021523371900841103,-0.021602485084524,-0.024459077708424846,-0.008361812200094472,0.01735392350810653,0.027818685410508297,0.03233364458650209,0.043305035041075086,0.04828518127792488,0.05967724317955531,0.05260419143523483,0.04567905015339142,0.05130013248982204,0.06011832535557145,0.044143611295085955,0.04994152390221632,0.0681581283840339,0.10497064219327577,0.10442359435618298,0.1037561405882104,0.12156626662090461,0.14849114158847682,0.18759217876352466,0.31959245058753494,0.544442444003853,0.7129753008178811,0.7816427920994891,0.7814489756830734,0.5849586040626827,0.05541152457224889,-0.4872938406277207,-0.8102440939387203,-0.671185506222995,-0.4832950330125088,-0.2558599806789175,-0.07891765346475313,0.022732125377690468,0.08641957889115537,0.1153014186739929,0.11874567622924809,0.0,0.0,0.0,0.0,0.0,0.0,0.0,0.0,0.0,0.0,0.0,0.0,0.0,0.0,0.0,0.0,0.0,0.0,0.0,0.0,0.0,0.0,0.0,0.0,0.0,0.0,0.0,0.0,0.0,0.0,0.0,0.0,0.0,0.0,0.0,0.0,0.0,0.0,0.0,0.0,0.0,0.0,0.0,0.0,0.0,0.0,0.0,0.0,0.0,0.0,0.0,0.0,0.0,0.0,0.0,0.0,0.0,0.0,0.0,0.0,0.0,0.0,0.0,0.0,0.0,0.0,0.0,0.0,0.0,0.0,0.0,0.0,0.0,0.0,0.0,0.0,0.0,0.0,0.0,0.0,0.0,0.0,0.0,0.0,0.0,0.0,0.0,0.0,0.0,0.0,0.0,0.0,0.0,0.0,0.0,0.0,0.0,0.0,0.0,0.0,0.0,0.0,0.0,0.0,0.0,0.0,0.0,0.0,0.0,0.0,0.0,0.0,0.0,0.0,0.0,0.0,0.0,0.0,0.0,0.0,0.0,0.0,0.0,0.0,0.0,0.0,0.0,0.0,0.0,0.0,0.0,0.0,0.0,0.0,0.0,0.0,0.0,0.0,0.0,0.0,0.0,0.0,0.0,0.0,0.0,0.0,0.0,0.0,0.0,0.0,0.0,0.0,0.0,0.0,0.0,0.0,0.0,0.0,0.0,0.0,0.0,0.0,0.0,0.0,0.0,0.0,0.0,0.0,0.0,0.0,0.0,0.0,0.0
0.549096553168282,0.3298829245467873,-0.3323228059612024,-0.8868819791654508,-0.507817821715826,-0.3892561495456231,-0.31869354551537976,-0.28115222657192857,-0.24070524211431485,-0.22427535107736152,-0.24382215545940425,-0.257435648118153,-0.2591204250834248,-0.2668243761501132,-0.27156090076114214,-0.2583585418319536,-0.23918187575169486,-0.27088844040436344,-0.2906242626330876,-0.2804282681263536,-0.2851890447482449,-0.2959252904576342,-0.30365637553235264,-0.2844382372135024,-0.2921404614316782,-0.32376991382752585,-0.34640599425464874,-0.30318609930212853,-0.3078381808820925,-0.32744306683065433,-0.3470390060665564,-0.36962157056674094,-0.42212917805643646,-0.42675213469598733,-0.4313785454587436,-0.4270324445217779,-0.4286792347989438,-0.44529799747154547,-0.45893166319901896,-0.43067105400626204,-0.42335881181595497,-0.4190306527780324,-0.4535925270028238,-0.42827392264144476,-0.41788410299813583,-0.39547596098762866,-0.3520592603776735,-0.30557917883442454,-0.26200999065234953,-0.2392977818337717,-0.19553321989740685,-0.127714408490838,-0.08970396822267596,-0.08448820370051058,-0.07016291425289543,-0.04672491972003385,-0.04410089074065782,-0.032363155895247415,-0.03844931788695535,-0.017471467829933956,0.0006361387717761288,-0.032019626502060305,-0.04062876978598962,-0.007246631743552758,-0.00970037887516311,-0.00610682631658428,-0.008455424993920794,0.00418322012048207,0.022808344718303206,0.08929484100409937,0.1587238891646583,0.30887934837894576,0.5068082035513015,0.7165609865902491,0.8692626834153018,1.0097593916027467,0.237162698325454,-0.45198120398342767,-0.7434901633237614,-0.7302011620457844,-0.6575537450331652,-0.5435043696268641,-0.4029940822466346,-0.262923404756148,-0.20705633867579132,-0.1695171524285189,-0.15326581512228638,-0.14629949486901034,-0.13960950205060638,-0.1481309964948325,-0.16285805556698468,-0.16580768323688336,-0.14797659845292885,-0.16919742709180022,-0.18754860202504414,-0.18505229108038887,-0.16767430528586996,-0.20123783537008624,-0.17499152219567465,-0.1697249601333545,-0.17943746714855402,-0.19513680051119106,-0.22878159091227337,-0.24444662626471947,-0.27803509687507927,-0.28464519003887473,-0.3121529215219725,-0.30967224107704094,-0.3041307046635107,-0.32544922847868113,-0.35566434097224153,-0.34688493826300293,-0.3529757877985761,-0.3589673831635511,-0.3798186546766793,-0.3826038707257102,-0.40622494690670563,-0.44469182903717885,-0.4261727027064711,-0.425481081209329,-0.45158803108558615,-0.4386438068195301,-0.41955837010338987,-0.4032973958080767,-0.377876886932591,-0.38219070394629806,0.0,0.0,0.0,0.0,0.0,0.0,0.0,0.0,0.0,0.0,0.0,0.0,0.0,0.0,0.0,0.0,0.0,0.0,0.0,0.0,0.0,0.0,0.0,0.0,0.0,0.0,0.0,0.0,0.0,0.0,0.0,0.0,0.0,0.0,0.0,0.0,0.0,0.0,0.0,0.0,0.0,0.0,0.0,0.0,0.0,0.0,0.0,0.0,0.0,0.0,0.0,0.0,0.0,0.0,0.0,0.0,0.0,0.0,0.0,0.0,0.0,0.0,0.0,0.0,0.0,0.0,0.0,0.0,0.0,0.0,0.0,0.0,0.0,0.0,0.0,0.0,0.0,0.0,0.0,0.0,0.0,0.0,0.0,0.0,0.0,0.0,0.0,0.0,0.0,0.0,0.0,0.0,0.0,0.0,0.0,0.0,0.0,0.0,0.0,0.0,0.0,0.0,0.0,0.0,0.0,0.0,0.0,0.0,0.0,0.0,0.0,0.0,0.0,0.0,0.0,0.0,0.0,0.0,0.0,0.0,0.0,0.0,0.0,0.0,0.0,0.0,0.0,0.0,0.0,0.0,0.0,0.0,0.0,0.0,0.0,0.0,0.0,0.0,0.0,0.0,0.0,0.0,0.0,0.0,0.0,0.0,0.0,0.0,0.0,0.0,0.0,0.0,0.0,0.0,0.0,0.0,0.0,0.0,0.0,0.0,0.0,0.0,0.0,0.0,0.0,0.0,0.0,0.0,0.0,0.0,0.0,0.0,0.0,0.0,0.0
0.8592862435107405,0.6582914484805595,0.06868695563908159,-0.48200851191939476,-0.7504679245308336,-0.8025212948484287,-0.26979221894669175,-0.11923195746995383,-0.0745097695339092,-0.04019656209325855,-0.0261156756288032,-0.02564613383598944,-0.032168244012785355,-0.022618069423944925,0.0030433313492743397,-0.0077720973119615845,-0.0024024485299957202,0.0027415833219465295,0.0044043256887387515,-0.010538639863629485,-0.009165684018050962,-0.011182234892142909,-0.033005982959313854,-0.05487581099911862,-0.037297214961963365,-0.039450010500769093,-0.021842061062612262,-0.014053672955885744,-0.012775397492686863,0.011613718075863923,0.019662050264264572,0.014674881294479917,-0.016489549086121533,-0.06723985270534344,-0.11454044314069892,-0.14522412994140443,-0.13954635214198297,-0.13367803878092055,-0.13418888137564172,-0.16080574122103303,-0.17076320891138277,-0.2035241351103983,-0.19987875094597213,-0.21902549998702542,-0.26753754464260016,-0.30265177642480323,-0.2848942693356073,-0.28661881878274675,-0.2815058447547957,-0.2728373618598409,-0.2671844973543345,-0.2711184284888192,-0.2648975627987389,-0.27811695635862954,-0.2910351649857787,-0.3102236160671034,-0.2929163681356084,-0.2785725278350935,-0.2606027602378359,-0.23899596372775153,-0.20058472386909904,-0.12891273943052944,-0.09632998234857709,-0.08638133226637582,-0.06945617737129153,-0.05870326608188573,-0.07056151971342212,-0.0523997543152649,-0.030526391230615582,-0.034540109981492866,-0.05128247368190217,-0.06101807493282103,-0.04401266410375826,-0.05289343258190614,-0.05148290396143307,-0.059519553493957496,-0.08687569520741086,-0.10724459374927786,-0.140367977523113,-0.17638649892020083,-0.18899599268939324,-0.1716274618080814,-0.17033807440161675,-0.1719816466985397,-0.15354523942785156,-0.17753322350513395,-0.19462101241324525,-0.19166471211340524,-0.19170103560625046,-0.17829787978948902,-0.17449286919681847,-0.18687862106999273,-0.18915723440042895,-0.19121145393091837,-0.18647896281553494,-0.19471075030549462,-0.19947812147452026,-0.18106371602679408,-0.1888218163872598,-0.18330135193257793,-0.16781010006818423,-0.1522345478670323,-0.15303996952585358,-0.1505121262859609,-0.18085223031343253,-0.181588975493945,-0.13958815558325832,-0.14696746246720283,-0.13139000443728072,-0.09616900705242876,-0.0676421950792847,-0.04583537864683885,-0.020908125863939316,0.023557022149937542,0.04148320069795313,0.09533251100799556,0.2508545387077384,0.5080148586476201,0.7352121373569259,0.8666232070435272,0.9153583535942459,0.6873084378075606,0.18570468931062234,-0.2869178672938081,-0.5859036379483878,-0.655402502746081,-0.5809671082289695,-0.45469291913184856,0.0,0.0,0.0,0.0,0.0,0.0,0.0,0.0,0.0,0.0,0.0,0.0,0.0,0.0,0.0,0.0,0.0,0.0,0.0,0.0,0.0,0.0,0.0,0.0,0.0,0.0,0.0,0.0,0.0,0.0,0.0,0.0,0.0,0.0,0.0,0.0,0.0,0.0,0.0,0.0,0.0,0.0,0.0,0.0,0.0,0.0,0.0,0.0,0.0,0.0,0.0,0.0,0.0,0.0,0.0,0.0,0.0,0.0,0.0,0.0,0.0,0.0,0.0,0.0,0.0,0.0,0.0,0.0,0.0,0.0,0.0,0.0,0.0,0.0,0.0,0.0,0.0,0.0,0.0,0.0,0.0,0.0,0.0,0.0,0.0,0.0,0.0,0.0,0.0,0.0,0.0,0.0,0.0,0.0,0.0,0.0,0.0,0.0,0.0,0.0,0.0,0.0,0.0,0.0,0.0,0.0,0.0,0.0,0.0,0.0,0.0,0.0,0.0,0.0,0.0,0.0,0.0,0.0,0.0,0.0,0.0,0.0,0.0,0.0,0.0,0.0,0.0,0.0,0.0,0.0,0.0,0.0,0.0,0.0,0.0,0.0,0.0,0.0,0.0,0.0,0.0,0.0,0.0,0.0,0.0,0.0,0.0,0.0,0.0,0.0,0.0,0.0,0.0,0.0,0.0,0.0,0.0,0.0,0.0,0.0,0.0,0.0,0.0,0.0,0.0,0.0,0.0,0.0,0.0,0.0,0.0,0.0,0.0
0.8060156569365187,0.634382950930243,0.1498785375891674,-0.7659624957553727,-0.6166561809713285,-0.40210410441360456,-0.2538521564111125,-0.15871423298562437,-0.11008258707240837,-0.09148277422640022,-0.10288674375394592,-0.10479812976815209,-0.10047984408626336,-0.10635211270253259,-0.10923411942269041,-0.12225877844631605,-0.1092232820329562,-0.12930969923314709,-0.12987136327448784,-0.11746628295738365,-0.12167697388314659,-0.10630465856879437,-0.1173790152445997,-0.10554653089446164,-0.10697127570201713,-0.11505982834219146,-0.11664143482105357,-0.11170260401318653,-0.11009799375696663,-0.10852669357189351,-0.08724312668495346,-0.11201934378447911,-0.14008787563333255,-0.1517058490553799,-0.1600221645829,-0.18147548439651523,-0.20290313077672356,-0.17825187284061128,-0.1601420592711814,-0.16501439570939333,-0.16984092930654227,-0.17132893230297902,-0.16947534791199698,-0.20703605484008464,-0.22480521270053225,-0.19317931407745656,-0.1910956396005483,-0.21197516226991384,-0.2163482538214707,-0.20750401825318307,-0.21833384597284658,-0.24226023208879777,-0.2957297361978665,-0.27678130489581815,-0.27093170170184827,-0.2584463285154805,-0.2459034947321419,-0.226725207709761,-0.2107791894531374,-0.18162059454842006,-0.1721415278170458,-0.1560306922179768,-0.14315751014701467,-0.12365740204726582,-0.11069022873200934,-0.10097111692496925,-0.09779426607300434,-0.08143104297146549,-0.08149032957560863,-0.06508900092928362,-0.04868152875592788,-0.03885615552480653,-0.002733022518173945,0.02678438914781371,0.09901884775843717,0.18106392357890627,0.27290233756618204,0.41069465714028636,0.6075749290518309,0.7812896584932608,0.8989174885518102,1.0097593916027465,0.8638017855542942,0.2800958512672899,-0.639449847872003,-0.6746335242632161,-0.4471188701533723,-0.27264549934970755,-0.14789413712505642,-0.06954555970565722,-0.0178356880445172,0.0171311724621882,0.022225649439000586,0.03694256662072291,0.031703996502542,0.009821472652801429,0.014074227899230378,0.008301487860758168,-0.020635264418902108,-0.03325030563735216,-0.04926313143717416,-0.04892521343005383,-0.04866935705649916,-0.045194901331716615,-0.051647886088472435,-0.061440903385791806,-0.11403518517781532,-0.1469307844977075,-0.14696518833394198,-0.15360225914899367,-0.17999369078678382,-0.18008791532043564,-0.17690510496598744,-0.18688773368742306,-0.20016595713058902,-0.20358130468687488,-0.20699946107560754,-0.21699740129380146,-0.22370694953862086,-0.24028400117794646,-0.2667283232390552,-0.28330525952998414,-0.2965930823715656,-0.3131700195220732,-0.31658924985722825,-0.3068466005214386,-0.31024754009098393,-0.2971804542084774,0.0,0.0,0.0,0.0,0.0,0.0,0.0,0.0,0.0,0.0,0.0,0.0,0.0,0.0,0.0,0.0,0.0,0.0,0.0,0.0,0.0,0.0,0.0,0.0,0.0,0.0,0.0,0.0,0.0,0.0,0.0,0.0,0.0,0.0,0.0,0.0,0.0,0.0,0.0,0.0,0.0,0.0,0.0,0.0,0.0,0.0,0.0,0.0,0.0,0.0,0.0,0.0,0.0,0.0,0.0,0.0,0.0,0.0,0.0,0.0,0.0,0.0,0.0,0.0,0.0,0.0,0.0,0.0,0.0,0.0,0.0,0.0,0.0,0.0,0.0,0.0,0.0,0.0,0.0,0.0,0.0,0.0,0.0,0.0,0.0,0.0,0.0,0.0,0.0,0.0,0.0,0.0,0.0,0.0,0.0,0.0,0.0,0.0,0.0,0.0,0.0,0.0,0.0,0.0,0.0,0.0,0.0,0.0,0.0,0.0,0.0,0.0,0.0,0.0,0.0,0.0,0.0,0.0,0.0,0.0,0.0,0.0,0.0,0.0,0.0,0.0,0.0,0.0,0.0,0.0,0.0,0.0,0.0,0.0,0.0,0.0,0.0,0.0,0.0,0.0,0.0,0.0,0.0,0.0,0.0,0.0,0.0,0.0,0.0,0.0,0.0,0.0,0.0,0.0,0.0,0.0,0.0,0.0,0.0,0.0,0.0,0.0,0.0,0.0,0.0,0.0,0.0,0.0,0.0,0.0,0.0,0.0,0.0
0.3169116536526467,0.10276520938747907,-0.4100100114786774,-0.8935133295113848,-0.6918972953384774,-0.47287715293434573,-0.31620348396400644,-0.21594407584108258,-0.16321286640286947,-0.1550338756981602,-0.15002431718936993,-0.05066777766592109,-0.08739623022602741,-0.22474068817683532,-0.3622354458499409,-0.3964614053145914,-0.3214976011327876,-0.2761926585136694,-0.23394510095508234,-0.19769904756554763,-0.1881265169810043,-0.2052194098016767,-0.2341985101152507,-0.22483206222057903,-0.23029603675446922,-0.2387689981990186,-0.2916111507722013,-0.3356404545499865,-0.30290323567263616,-0.2879425760138743,-0.28485003897370964,-0.3083992943224555,-0.320184212906877,-0.3290709611328051,-0.3439263127563598,-0.34111835931733303,-0.356105217600536,-0.34752910948353877,-0.3478946053457141,-0.3690254083804105,-0.3784285381253818,-0.38201957605609216,-0.3886688966069309,-0.40133821872523767,-0.4495798177575761,-0.46840291206240253,-0.47849579514878704,-0.4769084047627802,-0.48727747017796375,-0.46823788125943344,-0.4552365912551335,-0.40099267672268535,-0.37640299710971786,-0.4405467078507841,-0.45750781983954786,-0.45386657517186896,-0.4591561866867015,-0.4201833558067544,-0.4226135322950089,-0.3984794780954238,-0.3802662625845402,-0.36795992587998666,-0.3674557686999553,-0.33146887728965607,-0.31907587477622246,-0.33617335226904815,-0.2911607783708783,-0.2667522820744777,-0.2570284399322291,-0.25311622617619695,-0.24023458450707652,-0.23905712327892317,-0.25844055062317756,-0.2983791571662336,-0.2968241361675944,-0.2803617021701752,-0.28739670118861016,-0.33269897105828394,-0.3069510940314475,-0.2840137606130612,-0.3288849043331848,-0.3440670212600473,-0.33842433719812276,-0.3149126122276098,-0.3355776591836043,-0.3679226660411274,-0.3617244901766891,-0.3819849540050203,-0.42870778932400244,-0.43098958235182516,-0.39178890479562206,-0.3642904878004136,-0.36918006670517384,-0.35919079657177766,-0.35500916192913395,-0.3566407218116921,-0.3404556538373539,-0.32418723631542645,-0.27534314743385657,-0.2589293881143914,-0.25131848592655065,-0.25547417353662,-0.24186189015693293,-0.19276591322135483,-0.14956105573088346,-0.09157936169281332,-0.024744627052867164,0.10410713847391655,0.27132144303748196,0.44437763548994264,0.5671156851627518,0.6276882836817531,0.4665192373099371,0.04516055563824286,-0.89347157804928,-0.6535542297398769,-0.3430200546947385,-0.3075265554714869,-0.29297293125574425,-0.2697992909715817,-0.2468546857431668,-0.2891240857445346,-0.27250691801091004,-0.19994587592968704,-0.23392624745914278,-0.30648533633913366,-0.30238985566544874,-0.3073116188363294,-0.3212433074945102,-0.3323603676749385,-0.34065675478842417,-0.3165822024126774,-0.2837675320576955,0.0,0.0,0.0,0.0,0.0,0.0,0.0,0.0,0.0,0.0,0.0,0.0,0.0,0.0,0.0,0.0,0.0,0.0,0.0,0.0,0.0,0.0,0.0,0.0,0.0,0.0,0.0,0.0,0.0,0.0,0.0,0.0,0.0,0.0,0.0,0.0,0.0,0.0,0.0,0.0,0.0,0.0,0.0,0.0,0.0,0.0,0.0,0.0,0.0,0.0,0.0,0.0,0.0,0.0,0.0,0.0,0.0,0.0,0.0,0.0,0.0,0.0,0.0,0.0,0.0,0.0,0.0,0.0,0.0,0.0,0.0,0.0,0.0,0.0,0.0,0.0,0.0,0.0,0.0,0.0,0.0,0.0,0.0,0.0,0.0,0.0,0.0,0.0,0.0,0.0,0.0,0.0,0.0,0.0,0.0,0.0,0.0,0.0,0.0,0.0,0.0,0.0,0.0,0.0,0.0,0.0,0.0,0.0,0.0,0.0,0.0,0.0,0.0,0.0,0.0,0.0,0.0,0.0,0.0,0.0,0.0,0.0,0.0,0.0,0.0,0.0,0.0,0.0,0.0,0.0,0.0,0.0,0.0,0.0,0.0,0.0,0.0,0.0,0.0,0.0,0.0,0.0,0.0,0.0,0.0,0.0,0.0,0.0,0.0,0.0,0.0,0.0,0.0,0.0,0.0,0.0,0.0,0.0,0.0,0.0,0.0,0.0,0.0,0.0,0.0,0.0,0.0,0.0
0.5373595248983172,0.29181390875375407,-0.2448909533222556,-0.6805777200781514,-0.8206438964589261,-0.7116122876547656,-0.3418506912540059,-0.19072267558474834,-0.11290829229954925,-0.06187554452531671,-0.03177067854488031,-0.01093036104845241,-0.010936878353131974,0.00020837139440782064,-0.01232430679115385,-0.019445241331753443,-0.015310477508072061,-0.002794217507276805,-0.01963838492249537,-0.03966552177052697,-0.03379430653086846,-0.04848808548699927,-0.051763143998038205,-0.06684185702764645,-0.05593247798804134,-0.05969329708326344,-0.05195745238020474,-0.05595310578520661,-0.07457136485486753,-0.07874424333970596,-0.10332622878693838,-0.12796856202587528,-0.15266224086544475,-0.17158835305687023,-0.1934564869118977,-0.2066385782380266,-0.21112935456253148,-0.2388848033086269,-0.26375149838654777,-0.28863160750182615,-0.3106167093876079,-0.3267986791431409,-0.3313640734387496,-0.35046010804019306,-0.3608404986352086,-0.34797523276848324,-0.34382114700827193,-0.35418552740872167,-0.34710411713865935,-0.35162766496033293,-0.361940865205337,-0.3664170487967211,-0.3563337181035187,-0.3723601996155834,-0.3767163876012417,-0.36067490176369116,-0.3445606734031416,-0.2993038378810018,-0.24813363493076543,-0.22880707163846392,-0.20934953707767764,-0.1984640839840121,-0.1728939043048363,-0.17330404432062146,-0.16481729875900664,-0.17357293761141382,-0.19084508787270338,-0.17304268976297948,-0.157929605147533,-0.15131001663765523,-0.176422085937856,-0.1780563262497339,-0.17364172992653157,-0.17770263369448305,-0.17570919690013928,-0.16475444937909237,-0.1651763209012286,-0.182786132640741,-0.18853006098015002,-0.17950465172110924,-0.17314578162572883,-0.1636461305008616,-0.19168732986087011,-0.19916476695001464,-0.22385627079411877,-0.21928077290330858,-0.21450095163794713,-0.23858012847867321,-0.26247219453516085,-0.268753607018651,-0.29520584282438167,-0.31568966747431443,-0.3273101489414755,-0.3387945357527633,-0.3443426550608849,-0.3294378649614572,-0.326051619273239,-0.33419491058511375,-0.3277292969263523,-0.3328154925271254,-0.3407482540610508,-0.3544444331264933,-0.3710099073656526,-0.358494884463069,-0.3488684842501258,-0.36538230589429155,-0.35574473040824073,-0.35192211966025216,-0.3510140322936689,-0.3675526745262311,-0.3782983938975468,-0.38034820548842674,-0.37951275159947423,-0.34673353397622414,-0.3372086928274737,-0.327687742741522,-0.33269181509106976,-0.3522146179866573,-0.3310453430830601,-0.32728746251618224,0.0,0.0,0.0,0.0,0.0,0.0,0.0,0.0,0.0,0.0,0.0,0.0,0.0,0.0,0.0,0.0,0.0,0.0,0.0,0.0,0.0,0.0,0.0,0.0,0.0,0.0,0.0,0.0,0.0,0.0,0.0,0.0,0.0,0.0,0.0,0.0,0.0,0.0,0.0,0.0,0.0,0.0,0.0,0.0,0.0,0.0,0.0,0.0,0.0,0.0,0.0,0.0,0.0,0.0,0.0,0.0,0.0,0.0,0.0,0.0,0.0,0.0,0.0,0.0,0.0,0.0,0.0,0.0,0.0,0.0,0.0,0.0,0.0,0.0,0.0,0.0,0.0,0.0,0.0,0.0,0.0,0.0,0.0,0.0,0.0,0.0,0.0,0.0,0.0,0.0,0.0,0.0,0.0,0.0,0.0,0.0,0.0,0.0,0.0,0.0,0.0,0.0,0.0,0.0,0.0,0.0,0.0,0.0,0.0,0.0,0.0,0.0,0.0,0.0,0.0,0.0,0.0,0.0,0.0,0.0,0.0,0.0,0.0,0.0,0.0,0.0,0.0,0.0,0.0,0.0,0.0,0.0,0.0,0.0,0.0,0.0,0.0,0.0,0.0,0.0,0.0,0.0,0.0,0.0,0.0,0.0,0.0,0.0,0.0,0.0,0.0,0.0,0.0,0.0,0.0,0.0,0.0,0.0,0.0,0.0,0.0,0.0,0.0,0.0,0.0,0.0,0.0,0.0,0.0,0.0,0.0,0.0,0.0,0.0,0.0,0.0,0.0,0.0,0.0,0.0,0.0
0.7910053519055503,0.6053905275688694,-0.1238056104259571,-0.8416843367281849,-0.8190177543121165,-0.22142655691006882,-0.14134273590239171,-0.10513179039094302,-0.07789148758515999,-0.05958686699387662,-0.0472788133231117,-0.05836818695531049,-0.04343073940409342,-0.037303311082288945,-0.019619672252339303,-0.022314233835583428,-0.01921295078879266,-0.019009464455917134,-0.021682545031741034,-0.012685082840280094,-0.041392706446346336,-0.05549005008037051,-0.03171832922856504,-0.06013491136220814,-0.06809047219210114,-0.08753530158125333,-0.09231099107410633,-0.10855952171404644,-0.1130305697318499,-0.11734106651903287,-0.14473113731647233,-0.16904847740205772,-0.19029134174778845,-0.19974236499886477,-0.22064552343260938,-0.2210409416178306,-0.2590400313748975,-0.27072363432388297,-0.2793381824943633,-0.29941397921333135,-0.30480460246776503,-0.2984189213940594,-0.300599049846842,-0.33168734911027337,-0.34229430012898854,-0.3614790964119861,-0.3834349010866958,-0.3645820244213236,-0.3514080522821712,-0.3264778790724993,-0.30722212482347067,-0.2849219728753373,-0.25085880998186716,-0.18469231833303476,-0.1532478114344249,-0.11875324355154683,-0.09864213475582241,-0.06967208270335304,-0.060901019015018786,-0.0665222080412182,-0.025525756630565576,-0.016367412281607065,-0.0041898444770700335,0.03714610500468736,0.07566777842004238,0.07649508790118988,0.0773834494552255,0.10446413761159656,0.11413418358994586,0.12380395902495273,0.14216501074768573,0.17209551730624392,0.2571482750727749,0.3217477807674885,0.4384962541904631,0.6015439354017661,0.7730765788913613,0.8775036286016709,0.9612601280878098,1.0097593916027465,0.7643457785352109,0.08838806447256348,-0.7712238934745789,-0.8063601438465181,-0.6911378393228791,-0.477852537251571,-0.24782223653960123,-0.12012415436532524,-0.07437177458322321,-0.03206962256079674,-0.01932176663343956,-0.015745776400295394,-0.035826922810022456,-0.05046956456377766,-0.05963466944741686,-0.06328469242311367,-0.06138352980383408,-0.05099099613370511,-0.05822338725851802,-0.05980490081142857,-0.055705221788935555,-0.06332850490427852,-0.059403297695485094,-0.07876966797254525,-0.08653700918468443,-0.09139863349968896,-0.13110420861961275,-0.13299549973582314,-0.1202970167368569,-0.12204535379692695,-0.1324121846950946,-0.13394829302972278,-0.1498826080356339,-0.15405154594853082,-0.19002462998363234,-0.24326225523222098,-0.2382100039267052,-0.2329672055101553,-0.24786217459603635,-0.2799797615297875,0.0,0.0,0.0,0.0,0.0,0.0,0.0,0.0,0.0,0.0,0.0,0.0,0.0,0.0,0.0,0.0,0.0,0.0,0.0,0.0,0.0,0.0,0.0,0.0,0.0,0.0,0.0,0.0,0.0,0.0,0.0,0.0,0.0,0.0,0.0,0.0,0.0,0.0,0.0,0.0,0.0,0.0,0.0,0.0,0.0,0.0,0.0,0.0,0.0,0.0,0.0,0.0,0.0,0.0,0.0,0.0,0.0,0.0,0.0,0.0,0.0,0.0,0.0,0.0,0.0,0.0,0.0,0.0,0.0,0.0,0.0,0.0,0.0,0.0,0.0,0.0,0.0,0.0,0.0,0.0,0.0,0.0,0.0,0.0,0.0,0.0,0.0,0.0,0.0,0.0,0.0,0.0,0.0,0.0,0.0,0.0,0.0,0.0,0.0,0.0,0.0,0.0,0.0,0.0,0.0,0.0,0.0,0.0,0.0,0.0,0.0,0.0,0.0,0.0,0.0,0.0,0.0,0.0,0.0,0.0,0.0,0.0,0.0,0.0,0.0,0.0,0.0,0.0,0.0,0.0,0.0,0.0,0.0,0.0,0.0,0.0,0.0,0.0,0.0,0.0,0.0,0.0,0.0,0.0,0.0,0.0,0.0,0.0,0.0,0.0,0.0,0.0,0.0,0.0,0.0,0.0,0.0,0.0,0.0,0.0,0.0,0.0,0.0,0.0,0.0,0.0,0.0,0.0,0.0,0.0,0.0,0.0,0.0,0.0,0.0,0.0,0.0,0.0,0.0,0.0,0.0
0.8528720592730106,0.6153039669555969,-0.002086209526559156,-0.5749602053782964,-0.8896807495547967,-0.7897793643769186,-0.3836157125985129,-0.23401639916406786,-0.14829795242747396,-0.07825697540117262,-0.032880891449093536,-0.0362084475746397,-0.03703026933631944,-0.035308384960668224,-0.0430463633817315,-0.06020941032654422,-0.0777343186907312,-0.04742949206834316,-0.026454332270975274,-0.02380994851176172,-0.05451906546004661,-0.06738629889147289,-0.05937758663112901,-0.0876600804793527,-0.1070627767186744,-0.1446557404999381,-0.15226054461966665,-0.12383965510946691,-0.13462625106341716,-0.16654500094392524,-0.18647172435156434,-0.2124529918721684,-0.21437638628194816,-0.23737992432636362,-0.25737257195949204,-0.2803637684876037,-0.30634345782000905,-0.3292819735130757,-0.33411991980628897,-0.3479378710430529,-0.35567665364715745,-0.3753870036703445,-0.3498697635857598,-0.3332933318652603,-0.34069626937736325,-0.34196740413841775,-0.33709552093524114,-0.3230594752490224,-0.3480080207936112,-0.3637704154865933,-0.3582958155882504,-0.31652245244472343,-0.2926178901468315,-0.2685101421981874,-0.2441874630027964,-0.21662854494534506,-0.19184259626656963,-0.16078956633390237,-0.12647017116065148,-0.10091605960565761,-0.1051899849702698,-0.11520612959003095,-0.11891987570941652,-0.10428779913913963,-0.09237753040784222,-0.0982379700710704,-0.10079945760768888,-0.06695365464162562,-0.059913138492180155,-0.07065218373543432,-0.09315652404415604,-0.08228345157567223,-0.06513129987340524,-0.08685969505336269,-0.10835001333813635,-0.11155488970717886,-0.11755804483816976,-0.10229457524883159,-0.10491052963889956,-0.08027352099831656,-0.06452211212957162,-0.07272631060598388,-0.06878775687381772,0.0044604261137805275,0.08679411619133937,0.1872171478007083,0.33881106434021363,0.5234848894121776,0.8585936909138968,0.8865802382121863,0.5532197728845742,-0.14454885187611013,-0.692073199308004,-0.6770415077286309,-0.49378696039450426,-0.3349427765717009,-0.23058947856926534,-0.19274774918628693,-0.14313921590655979,-0.13592583095370664,-0.1409909066183541,-0.13724881235533862,-0.11565493852382085,-0.13639550734212233,-0.12420842440357628,-0.13326221273706035,-0.15150678448537144,-0.17592312227360685,-0.17941330826588395,-0.1860501287209735,-0.18077738457658304,-0.17863960677159055,-0.191672202889344,-0.19278159906063524,-0.1729349670450848,-0.17728008747007576,-0.21183578803363373,-0.21640202018938834,-0.23010908497018062,-0.24693813501324255,-0.2699009092037454,-0.2719097906781417,-0.2619974514511389,-0.2582269407818555,-0.2967217019319954,-0.3202959955951641,0.0,0.0,0.0,0.0,0.0,0.0,0.0,0.0,0.0,0.0,0.0,0.0,0.0,0.0,0.0,0.0,0.0,0.0,0.0,0.0,0.0,0.0,0.0,0.0,0.0,0.0,0.0,0.0,0.0,0.0,0.0,0.0,0.0,0.0,0.0,0.0,0.0,0.0,0.0,0.0,0.0,0.0,0.0,0.0,0.0,0.0,0.0,0.0,0.0,0.0,0.0,0.0,0.0,0.0,0.0,0.0,0.0,0.0,0.0,0.0,0.0,0.0,0.0,0.0,0.0,0.0,0.0,0.0,0.0,0.0,0.0,0.0,0.0,0.0,0.0,0.0,0.0,0.0,0.0,0.0,0.0,0.0,0.0,0.0,0.0,0.0,0.0,0.0,0.0,0.0,0.0,0.0,0.0,0.0,0.0,0.0,0.0,0.0,0.0,0.0,0.0,0.0,0.0,0.0,0.0,0.0,0.0,0.0,0.0,0.0,0.0,0.0,0.0,0.0,0.0,0.0,0.0,0.0,0.0,0.0,0.0,0.0,0.0,0.0,0.0,0.0,0.0,0.0,0.0,0.0,0.0,0.0,0.0,0.0,0.0,0.0,0.0,0.0,0.0,0.0,0.0,0.0,0.0,0.0,0.0,0.0,0.0,0.0,0.0,0.0,0.0,0.0,0.0,0.0,0.0,0.0,0.0,0.0,0.0,0.0,0.0,0.0,0.0,0.0,0.0,0.0,0.0,0.0,0.0,0.0,0.0,0.0,0.0,0.0,0.0
0.23718934525384316,0.44183076045509306,0.6402197340207564,0.333017421647689,-0.22259638341975024,-0.6907668719912157,-0.5661786072524543,-0.4237999699465346,-0.3301954061033449,-0.3125835933227581,-0.27411346039007417,-0.24805620943998857,-0.23439640781124677,-0.2482496295909759,-0.2653928237483565,-0.24042081159029235,-0.2459465459124115,-0.2880094741877077,-0.3091016053914995,-0.30315888892472137,-0.30345673133874795,-0.2978793813473422,-0.28641572295640966,-0.2781332088971182,-0.3093344846659693,-0.3497485018748438,-0.3206869289664024,-0.3189749387126053,-0.30828971925233645,-0.36124803894173907,-0.35982294887096206,-0.34636990807315216,-0.3299568738757023,-0.35596497996130266,-0.35478389575162106,-0.329429461346662,-0.31317846222452894,-0.25155107232203444,-0.2292680193119309,-0.3280244534192592,-0.32388061347363245,-0.2894541293993983,-0.3215715421081556,-0.3173374860625685,-0.28884835186680347,-0.29661822945695326,-0.31945698904062664,-0.2968355645983774,-0.2862427512786568,-0.31188059582344485,-0.31019474936698077,-0.3417009510006267,-0.3549496688189748,-0.34388285397758944,-0.3599382522639372,-0.34561426448182136,-0.31300899019888323,-0.322638086930798,-0.3079214548571181,-0.2870098004298759,-0.3052889153377776,-0.3022316251047636,-0.29296336491222313,-0.27142717236929087,-0.2618273395658549,-0.2762641984027025,-0.25723837397171684,-0.24711200177485332,-0.24588238353266,-0.26262564352784495,-0.2973401680315896,-0.2501636879783537,-0.24819130638527256,-0.2611617386235716,-0.24973595050833466,-0.22299288806530962,-0.21119468457718016,-0.2476302275770997,-0.2052061173436984,-0.15957781915894612,-0.2196885860254335,-0.25239509152755046,-0.24862455816685927,-0.235617854674302,-0.2043032479757522,-0.23336634082435462,-0.2834758055267313,-0.2759616944218928,-0.24714600646903467,-0.24848160784830983,-0.2557695424303734,-0.26902014206815955,-0.2368006288164637,-0.18030492127776596,-0.22058864578246656,-0.32740357921614804,-0.3343279198691032,-0.30189708779724433,-0.2997248895390539,-0.27940771321729274,-0.28029896224681855,-0.3266219454970538,-0.3548436059486253,-0.34984853949178907,-0.33888666491086905,-0.31289479306521406,-0.2960968541320561,-0.3702127831949088,-0.3930318200456883,-0.38877694967586474,-0.40890238960098874,-0.3656587991237373,-0.4254836463889969,-0.4098386147062557,0.0,0.0,0.0,0.0,0.0,0.0,0.0,0.0,0.0,0.0,0.0,0.0,0.0,0.0,0.0,0.0,0.0,0.0,0.0,0.0,0.0,0.0,0.0,0.0,0.0,0.0,0.0,0.0,0.0,0.0,0.0,0.0,0.0,0.0,0.0,0.0,0.0,0.0,0.0,0.0,0.0,0.0,0.0,0.0,0.0,0.0,0.0,0.0,0.0,0.0,0.0,0.0,0.0,0.0,0.0,0.0,0.0,0.0,0.0,0.0,0.0,0.0,0.0,0.0,0.0,0.0,0.0,0.0,0.0,0.0,0.0,0.0,0.0,0.0,0.0,0.0,0.0,0.0,0.0,0.0,0.0,0.0,0.0,0.0,0.0,0.0,0.0,0.0,0.0,0.0,0.0,0.0,0.0,0.0,0.0,0.0,0.0,0.0,0.0,0.0,0.0,0.0,0.0,0.0,0.0,0.0,0.0,0.0,0.0,0.0,0.0,0.0,0.0,0.0,0.0,0.0,0.0,0.0,0.0,0.0,0.0,0.0,0.0,0.0,0.0,0.0,0.0,0.0,0.0,0.0,0.0,0.0,0.0,0.0,0.0,0.0,0.0,0.0,0.0,0.0,0.0,0.0,0.0,0.0,0.0,0.0,0.0,0.0,0.0,0.0,0.0,0.0,0.0,0.0,0.0,0.0,0.0,0.0,0.0,0.0,0.0,0.0,0.0,0.0,0.0,0.0,0.0,0.0,0.0,0.0,0.0,0.0,0.0,0.0,0.0,0.0,0.0,0.0,0.0,0.0,0.0,0.0,0.0,0.0,0.0,0.0,0.0
0.8892106627854761,0.7507477964118441,0.24100540460809006,-0.866165685709258,-0.6988396063620839,-0.4598066050895592,-0.26962160616387965,-0.13728934201088247,-0.06277129685681036,-0.018899490933380895,0.0154638715955268,0.016237948786297574,0.02867331298835994,0.025671406899830343,0.0374071031604947,0.0488364137759134,0.056971543383736716,0.04375051592277473,0.04838464378235431,0.02266357425744559,0.0027806022124107904,-0.020289823083449586,-0.02844448871603123,-0.021668496414927664,-0.04516553796447975,-0.047677389009766556,-0.0533091274057878,-0.05300785592069916,-0.05279434729379068,-0.05869064786163528,-0.06767663989750541,-0.08577688958612267,-0.09188684718119362,-0.11012026632916769,-0.11334582708610777,-0.12266487075997756,-0.13807835353387427,-0.13848679987080978,-0.12690741908692607,-0.13047410330926273,-0.16426373046015844,-0.17100655490299138,-0.18085345602426492,-0.21189807851010242,-0.2370175077752804,-0.2260748288047027,-0.2423823469895961,-0.25278942955026396,-0.2512760866162141,-0.28005427622303924,-0.28487289222911966,-0.307944313291358,-0.32817696124187723,-0.3365371556018819,-0.33906167105614377,-0.3628859023866223,-0.3597802782101548,-0.35385749690253354,-0.351138434351546,-0.33955270662119824,-0.3220982035991187,-0.2987553121844406,-0.27251753361767356,-0.25542185272745377,-0.23237511420693424,-0.20637130173281815,-0.18341925531884112,-0.18158624006295981,-0.16769398981070407,-0.15378206275359335,-0.130789360217467,-0.11377138986274793,-0.11477006446357807,-0.09156763420495787,-0.08635274218730069,-0.09609791866878227,-0.1087333620523036,-0.11520480846377616,-0.12756034603115654,-0.14880558676679528,-0.16687464563766513,-0.17874587094749295,-0.19044175399146482,-0.19291303309176458,-0.1921834308785776,-0.19427724405348593,-0.1901469491572696,-0.1858179878612597,-0.19635982846672945,-0.18861087560490408,-0.2047720801454762,-0.22374091744344224,-0.21838641847787593,-0.20980970737649643,-0.1889675592110732,-0.19203443228202946,-0.1948957871677159,-0.17946662206296782,-0.2030244887212943,-0.20829735631006335,-0.2043322681836835,-0.20922020357446924,-0.2229657812337049,-0.24255963287217638,-0.26197833443228385,-0.26012638981461544,-0.2641402048813195,-0.2710116277387385,-0.2717037652766684,-0.2722523058435378,-0.2636207200253018,-0.2789753698475345,-0.26406293016355653,-0.2580790864437005,-0.2640459875677071,-0.2849860306564468,-0.2937770354769949,-0.29042725168721273,-0.2900173965765554,-0.3046137943587398,-0.3161380620366428,-0.309526311756773,-0.30890209113296685,-0.3233163789939106,-0.319617328499722,-0.31589776464190333,-0.32723490328438365,-0.3234879904574982,-0.31973161261107547,-0.3250098997784424,-0.333293443704195,-0.3264932759829584,-0.3136483156112596,-0.29776673966699957,-0.2939140810369398,-0.2809821674982025,0.0,0.0,0.0,0.0,0.0,0.0,0.0,0.0,0.0,0.0,0.0,0.0,0.0,0.0,0.0,0.0,0.0,0.0,0.0,0.0,0.0,0.0,0.0,0.0,0.0,0.0,0.0,0.0,0.0,0.0,0.0,0.0,0.0,0.0,0.0,0.0,0.0,0.0,0.0,0.0,0.0,0.0,0.0,0.0,0.0,0.0,0.0,0.0,0.0,0.0,0.0,0.0,0.0,0.0,0.0,0.0,0.0,0.0,0.0,0.0,0.0,0.0,0.0,0.0,0.0,0.0,0.0,0.0,0.0,0.0,0.0,0.0,0.0,0.0,0.0,0.0,0.0,0.0,0.0,0.0,0.0,0.0,0.0,0.0,0.0,0.0,0.0,0.0,0.0,0.0,0.0,0.0,0.0,0.0,0.0,0.0,0.0,0.0,0.0,0.0,0.0,0.0,0.0,0.0,0.0,0.0,0.0,0.0,0.0,0.0,0.0,0.0,0.0,0.0,0.0,0.0,0.0,0.0,0.0,0.0,0.0,0.0,0.0,0.0,0.0,0.0,0.0,0.0,0.0,0.0,0.0,0.0,0.0,0.0,0.0,0.0,0.0,0.0,0.0,0.0,0.0,0.0,0.0,0.0,0.0,0.0,0.0,0.0,0.0,0.0,0.0,0.0,0.0,0.0,0.0,0.0,0.0,0.0,0.0,0.0,0.0,0.0,0.0,0.0,0.0
0.7907918985248399,0.27756661059863186,-0.3597945499477602,-0.7421090636080726,-0.8062427046113756,-0.6906936365545453,-0.5579969648422859,-0.3719965230021191,-0.2078863526139672,-0.07764900755353898,-0.01734768438560889,0.02123273280700278,0.029115884838646727,0.0484933508765037,0.046305068274121966,0.03764878736929666,0.037620257377596035,0.05830328060827304,0.0756598328864932,0.059629850793147615,0.0523908605849077,0.050968484789911485,0.05539630345060181,0.035605981515182614,0.00968696240134219,0.016796665358426045,0.011810997770280694,0.012813783815891589,-0.022312762287488432,-0.03635862082714461,-0.050375145826252105,-0.06434535565331706,-0.11136366611842376,-0.11315634547852577,-0.1118504373888482,-0.16161414558174594,-0.21427725590751298,-0.2276904938735865,-0.24398497703181157,-0.2601426180960555,-0.29722579197612886,-0.3040576048938074,-0.313741140372594,-0.302189939000487,-0.3416373923524416,-0.3207078176555356,-0.3176549046728239,-0.3595626951117792,-0.38020575097195564,-0.36452791225107434,-0.354660313985702,-0.3445732583536782,-0.3011470755544001,-0.2815618144826461,-0.2195882362094927,-0.1784269934100245,-0.14301969471221493,-0.10432880433694154,-0.03525790661053586,-0.02008142923543162,-0.007625885274233216,0.008130707038321756,0.05126853239299423,0.09469615111674536,0.09928014133501661,0.08608461940546744,0.13336122793253044,0.1748799343569958,0.1775181494370505,0.18039037750615472,0.1624086844002775,0.1265623769305582,0.1270079943812087,0.13361997979386886,0.11627037157332128,0.10502855173742283,0.11491160602782224,0.1157844894641306,0.10459971450047964,0.10539734666110481,0.11813524635083998,0.20597874776625172,0.4260708466998042,0.27870376233714605,-0.3866754544900137,-0.6821766884706054,-0.6740732462274618,-0.5399768453620715,-0.4093089638104683,-0.2820438742330025,-0.17019054354125818,-0.1098382105482766,-0.0919271967288727,-0.06224920798130065,-0.05087695399851788,-0.04875474497291946,-0.03779843911253715,-0.03303530016898523,-0.025414259974624775,-0.01491582197867983,-0.0015221321559601177,-0.03036686748144474,-0.017155937100141738,-0.0160563649322816,-0.012007110208957445,-0.02907867932773128,-0.010073583479190197,0.00889438091230886,0.006759643520905877,-0.031525201917063365,-0.030709693095578538,-0.05400447669216933,-0.059272198140533354,-0.11273660880661518,-0.13614345814859402,-0.14755935163426379,-0.19214188520044936,-0.23076999275030108,-0.2423833514673861,-0.23301215587162952,-0.24179703788350662,-0.295839277697627,-0.30485114256607243,-0.2989447527611382,-0.3142524520272781,-0.34777700113065946,0.0,0.0,0.0,0.0,0.0,0.0,0.0,0.0,0.0,0.0,0.0,0.0,0.0,0.0,0.0,0.0,0.0,0.0,0.0,0.0,0.0,0.0,0.0,0.0,0.0,0.0,0.0,0.0,0.0,0.0,0.0,0.0,0.0,0.0,0.0,0.0,0.0,0.0,0.0,0.0,0.0,0.0,0.0,0.0,0.0,0.0,0.0,0.0,0.0,0.0,0.0,0.0,0.0,0.0,0.0,0.0,0.0,0.0,0.0,0.0,0.0,0.0,0.0,0.0,0.0,0.0,0.0,0.0,0.0,0.0,0.0,0.0,0.0,0.0,0.0,0.0,0.0,0.0,0.0,0.0,0.0,0.0,0.0,0.0,0.0,0.0,0.0,0.0,0.0,0.0,0.0,0.0,0.0,0.0,0.0,0.0,0.0,0.0,0.0,0.0,0.0,0.0,0.0,0.0,0.0,0.0,0.0,0.0,0.0,0.0,0.0,0.0,0.0,0.0,0.0,0.0,0.0,0.0,0.0,0.0,0.0,0.0,0.0,0.0,0.0,0.0,0.0,0.0,0.0,0.0,0.0,0.0,0.0,0.0,0.0,0.0,0.0,0.0,0.0,0.0,0.0,0.0,0.0,0.0,0.0,0.0,0.0,0.0,0.0,0.0,0.0,0.0,0.0,0.0,0.0,0.0,0.0,0.0,0.0,0.0,0.0,0.0,0.0,0.0,0.0,0.0,0.0,0.0,0.0,0.0,0.0,0.0,0.0,0.0,0.0
0.7643457785352109,0.08838806447256348,-0.7712238934745789,-0.8063601438465181,-0.6911378393228791,-0.477852537251571,-0.24782223653960123,-0.12012415436532524,-0.07437177458322321,-0.03206962256079674,-0.01932176663343956,-0.015745776400295394,-0.035826922810022456,-0.05046956456377766,-0.05963466944741686,-0.06328469242311367,-0.06138352980383408,-0.05099099613370511,-0.05822338725851802,-0.05980490081142857,-0.055705221788935555,-0.06332850490427852,-0.059403297695485094,-0.07876966797254525,-0.08653700918468443,-0.09139863349968896,-0.13110420861961275,-0.13299549973582314,-0.1202970167368569,-0.12204535379692695,-0.1324121846950946,-0.13394829302972278,-0.1498826080356339,-0.15405154594853082,-0.19002462998363234,-0.24326225523222098,-0.2382100039267052,-0.2329672055101553,-0.24786217459603635,-0.2799797615297875,-0.2915392584359068,-0.2854373652374675,-0.2907206075110471,-0.2986642598668115,-0.30054388283602945,-0.29635179776136217,-0.30641909687681895,-0.28715602305217813,-0.30828771649705067,-0.2971698825587227,-0.2886621048421793,-0.2595141232367862,-0.23586955662731993,-0.21481741715690733,-0.20797480149261902,-0.18047139382630273,-0.17588620947690717,-0.162255974323101,-0.16572837172699262,-0.1688694402521989,-0.18330117803979146,-0.16253638101743384,-0.16178133856414684,-0.1897551889889083,-0.19416239895827944,-0.18953483788591574,-0.1904051438976177,-0.19968472749106744,-0.21156927205381543,-0.21734969720439787,-0.21122310910864772,-0.23678084948984712,-0.2359222730467658,-0.24352344592262112,-0.23344539191354133,-0.2173212200262906,-0.20097360182577934,-0.1960368715339923,-0.20252407855097576,-0.20592150726897177,-0.2004326835925217,-0.19769487255987495,-0.191913047352899,-0.20344247602889484,-0.2061511286917893,-0.2029627464524425,-0.21423480840731518,-0.21964845019003376,-0.19597997091480568,-0.1781164083680742,-0.16898500639587735,-0.17151385778635178,-0.15086038662301676,-0.14772602555169378,-0.13017557070247762,-0.06046380936044148,0.10786989715160678,0.3195920798726588,0.41486881566545647,0.4721142432086234,0.386691880532973,-0.021581981033489107,-0.9851938107976121,-0.458715891978883,-0.3190915391918373,-0.2263533245582007,-0.19500555834725905,-0.16110452710884723,-0.13334490362708223,-0.12913880929613772,-0.12522237013656679,-0.11286033034660276,-0.13561763518808084,-0.13536773471221752,-0.11500074266605809,-0.12099040852487448,-0.14170154889401831,-0.14516158086431746,-0.14879253532479012,-0.14677341792455162,0.0,0.0,0.0,0.0,0.0,0.0,0.0,0.0,0.0,0.0,0.0,0.0,0.0,0.0,0.0,0.0,0.0,0.0,0.0,0.0,0.0,0.0,0.0,0.0,0.0,0.0,0.0,0.0,0.0,0.0,0.0,0.0,0.0,0.0,0.0,0.0,0.0,0.0,0.0,0.0,0.0,0.0,0.0,0.0,0.0,0.0,0.0,0.0,0.0,0.0,0.0,0.0,0.0,0.0,0.0,0.0,0.0,0.0,0.0,0.0,0.0,0.0,0.0,0.0,0.0,0.0,0.0,0.0,0.0,0.0,0.0,0.0,0.0,0.0,0.0,0.0,0.0,0.0,0.0,0.0,0.0,0.0,0.0,0.0,0.0,0.0,0.0,0.0,0.0,0.0,0.0,0.0,0.0,0.0,0.0,0.0,0.0,0.0,0.0,0.0,0.0,0.0,0.0,0.0,0.0,0.0,0.0,0.0,0.0,0.0,0.0,0.0,0.0,0.0,0.0,0.0,0.0,0.0,0.0,0.0,0.0,0.0,0.0,0.0,0.0,0.0,0.0,0.0,0.0,0.0,0.0,0.0,0.0,0.0,0.0,0.0,0.0,0.0,0.0,0.0,0.0,0.0,0.0,0.0,0.0,0.0,0.0,0.0,0.0,0.0,0.0,0.0,0.0,0.0,0.0,0.0,0.0,0.0,0.0,0.0,0.0,0.0,0.0,0.0,0.0,0.0,0.0,0.0,0.0,0.0,0.0,0.0,0.0,0.0,0.0,0.0,0.0,0.0,0.0,0.0,0.0
0.7361043374310206,0.3305625854107668,-0.3491808116553026,-0.8847988819761978,-0.6773653335241816,-0.4553086186009288,-0.2938588349302894,-0.22308661227577425,-0.1827632087388183,-0.15179039443608788,-0.13917068592002046,-0.12079773066754552,-0.11169610775045571,-0.09980166025933956,-0.07907142053211841,-0.09764349467417059,-0.08626778947643352,-0.0780351213360159,-0.05486783079458489,-0.06490939725593076,-0.05998514528580197,-0.05513161487519736,-0.06839680475176775,-0.0817103387960602,-0.08302324663246946,-0.09640778771649644,-0.10981770719837923,-0.13227796124475394,-0.1397048468101836,-0.14413563784222597,-0.15760867936109027,-0.18915337624018874,-0.21168024612050745,-0.24325046645543025,-0.2898859696320243,-0.29138948194106573,-0.2959236561981132,-0.31252160001679297,-0.3321567765963791,-0.3458028561250309,-0.3323936613419385,-0.34611278220622005,-0.3508442443407847,-0.3766918718423607,-0.39957970100446755,-0.40445957193010085,-0.4063788776464129,-0.4173702207965523,-0.4073213734542135,-0.3762139705178668,-0.34810448622027085,-0.31092740802189284,-0.29776708844004773,-0.2694683573800663,-0.24707610681858036,-0.2185257712668987,-0.1837932757146532,-0.15790516744696953,-0.14083889905201563,-0.1054830015995715,-0.08492685287166561,-0.07313121498079633,-0.0459982606091255,-0.024581402362019063,-0.011875658057468222,0.025242176582577148,0.03561390178377004,0.0403191595358254,0.012275819114176661,0.0026594943043905016,0.0024441866061937602,0.014642070886927802,-0.005896284851771313,-0.026062439712691385,-0.012749692914081361,-0.01111269866169285,-0.006108035699839542,-0.0007539311991855096,-0.01312029671456615,-0.025158940842131352,-0.036883310566390215,-0.04228851854304737,-0.05343119700109753,-0.06731959099636399,-0.06892349176359876,-0.06428404699493472,-0.059443829361931856,-0.05743687064730738,-0.03119878435658837,-0.03192638211064986,-0.014498439037557445,-1.5099671195963693e-05,0.002461750611831389,-0.010111564955480136,0.004369330936619674,-0.0022925754059671664,0.01802356097489476,0.04119708933150203,0.07019540079089734,0.126043845290749,0.2719054991117362,0.48365135581913166,0.6829694766749539,0.8276636038734728,0.8454324045097591,0.6007588673886269,0.006279809603870482,-0.5558144309250448,-0.7996549673703597,-0.8216223441918008,-0.6999948265750596,-0.27220712268451897,-0.07999850484220246,0.009128896739008097,0.07349177906299688,0.10411534099298393,0.11610255686035154,0.10649417642993471,0.0964085118808409,0.09793160612793114,0.09304735979169222,0.06975739236868046,0.049170968242189764,0.03433529901870935,0.02829558085300169,0.03710505769194104,0.0,0.0,0.0,0.0,0.0,0.0,0.0,0.0,0.0,0.0,0.0,0.0,0.0,0.0,0.0,0.0,0.0,0.0,0.0,0.0,0.0,0.0,0.0,0.0,0.0,0.0,0.0,0.0,0.0,0.0,0.0,0.0,0.0,0.0,0.0,0.0,0.0,0.0,0.0,0.0,0.0,0.0,0.0,0.0,0.0,0.0,0.0,0.0,0.0,0.0,0.0,0.0,0.0,0.0,0.0,0.0,0.0,0.0,0.0,0.0,0.0,0.0,0.0,0.0,0.0,0.0,0.0,0.0,0.0,0.0,0.0,0.0,0.0,0.0,0.0,0.0,0.0,0.0,0.0,0.0,0.0,0.0,0.0,0.0,0.0,0.0,0.0,0.0,0.0,0.0,0.0,0.0,0.0,0.0,0.0,0.0,0.0,0.0,0.0,0.0,0.0,0.0,0.0,0.0,0.0,0.0,0.0,0.0,0.0,0.0,0.0,0.0,0.0,0.0,0.0,0.0,0.0,0.0,0.0,0.0,0.0,0.0,0.0,0.0,0.0,0.0,0.0,0.0,0.0,0.0,0.0,0.0,0.0,0.0,0.0,0.0,0.0,0.0,0.0,0.0,0.0,0.0,0.0,0.0,0.0,0.0,0.0,0.0,0.0,0.0,0.0,0.0,0.0,0.0,0.0,0.0,0.0,0.0,0.0,0.0,0.0,0.0,0.0,0.0,0.0,0.0,0.0,0.0,0.0,0.0,0.0,0.0,0.0,0.0,0.0
0.740319015970286,0.3860784251950735,-0.23515069224410642,-0.8953788388548157,-0.7177857898382682,-0.531094346065692,-0.36741039790089086,-0.2556137949781886,-0.1892520615308395,-0.14581317725479015,-0.1059981309980952,-0.1019016926572077,-0.10137928096772338,-0.10119605641018724,-0.11417877590165348,-0.11461116504968955,-0.11532274076176954,-0.1227202913615837,-0.13036379907091056,-0.12539047698211334,-0.13348324856234578,-0.1385698480170476,-0.12457926056770637,-0.13968243662135266,-0.1710229194986372,-0.1639889917986982,-0.1731792567626046,-0.19216471349638875,-0.19845722874146682,-0.20811407060947387,-0.23076935939794277,-0.24072568648497278,-0.23477066669502944,-0.2450250364378078,-0.2425815740795919,-0.22744208411489625,-0.24778963126452486,-0.26508306300778683,-0.2761143130894964,-0.3033722041124404,-0.3372257267388848,-0.36483223622224065,-0.3701372831394514,-0.41096336288143714,-0.41665155938000714,-0.4385977705057543,-0.4414697639812866,-0.44132268263652935,-0.4477821059271013,-0.4254996201455471,-0.4065734990804871,-0.387765637488778,-0.39153205169938193,-0.36645151997635445,-0.3574631846560997,-0.3356294237068462,-0.3041331160144359,-0.2661573807498829,-0.2280977718310366,-0.189926356860884,-0.1708882032665915,-0.16132101445471,-0.16119966876343897,-0.1801362672985703,-0.18919957983834687,-0.18836772673308735,-0.1744077637873772,-0.18263216716095448,-0.1809016828244115,-0.17883454276141572,-0.16998980797888796,-0.16077571166382418,-0.14475340756597263,-0.13796942284968636,-0.14041129444394798,-0.16170389880329045,-0.1761409219766939,-0.1869254927470571,-0.17798955574421144,-0.17502252014443576,-0.14911019494640168,-0.13879220905108836,-0.15048899443954428,-0.13922961588206917,-0.14034522863939697,-0.1409876555546035,-0.15079419503778413,-0.1761913220129228,-0.18827426908394765,-0.20631986103233696,-0.19178923405827084,-0.19286940965827998,-0.1870835552522734,-0.18086412516652411,-0.17743251976169475,-0.17679911652998823,-0.15970310235255133,-0.13579303136836068,-0.14041487347416887,-0.1607352833319926,-0.1582258361207749,-0.1585999613778254,-0.14581573520194344,-0.1552249508064064,-0.16436392511586279,-0.1507701173624976,-0.13373856413278132,-0.11650528169426481,-0.11836772095459229,-0.11044411402542038,-0.09597438941333773,-0.09747206371740168,-0.10854375927589122,-0.13243364043943143,-0.12099465559014745,-0.09995785991711972,-0.08863154810819181,-0.06778098973270295,-0.06314144735628738,-0.029784949509179398,0.0450945027520865,0.11648447322118892,0.20361112138949528,0.35460643871483755,0.5822670733857789,0.7998128357425341,0.9814874089800295,0.45590912579166787,-0.1988281217299978,-0.6551735239200561,-0.7975716360935043,-0.7545560327835608,-0.622500599630289,0.0,0.0,0.0,0.0,0.0,0.0,0.0,0.0,0.0,0.0,0.0,0.0,0.0,0.0,0.0,0.0,0.0,0.0,0.0,0.0,0.0,0.0,0.0,0.0,0.0,0.0,0.0,0.0,0.0,0.0,0.0,0.0,0.0,0.0,0.0,0.0,0.0,0.0,0.0,0.0,0.0,0.0,0.0,0.0,0.0,0.0,0.0,0.0,0.0,0.0,0.0,0.0,0.0,0.0,0.0,0.0,0.0,0.0,0.0,0.0,0.0,0.0,0.0,0.0,0.0,0.0,0.0,0.0,0.0,0.0,0.0,0.0,0.0,0.0,0.0,0.0,0.0,0.0,0.0,0.0,0.0,0.0,0.0,0.0,0.0,0.0,0.0,0.0,0.0,0.0,0.0,0.0,0.0,0.0,0.0,0.0,0.0,0.0,0.0,0.0,0.0,0.0,0.0,0.0,0.0,0.0,0.0,0.0,0.0,0.0,0.0,0.0,0.0,0.0,0.0,0.0,0.0,0.0,0.0,0.0,0.0,0.0,0.0,0.0,0.0,0.0,0.0,0.0,0.0,0.0,0.0,0.0,0.0,0.0,0.0,0.0,0.0,0.0,0.0,0.0,0.0,0.0,0.0,0.0,0.0,0.0,0.0,0.0,0.0,0.0,0.0,0.0,0.0,0.0,0.0,0.0,0.0,0.0,0.0,0.0,0.0,0.0,0.0,0.0,0.0,0.0,0.0,0.0
1.0097593916027465,0.7863925138609741,0.19915760036847943,-0.6612442785838424,-0.7599733537218761,-0.7083561408039777,-0.6335055660034445,-0.4930396927212467,-0.26270668851567913,-0.057441947505517225,0.05018399731344376,0.07838195900276011,0.07562166947902012,0.10247507180225583,0.10452036692493878,0.11206411336453598,0.08581039984191416,0.07119162469772794,0.06824656565490543,0.06490749190245222,0.04607846218163586,0.011791908203133661,-0.004634704486039759,-0.015277160864138032,-0.017082525229022913,-0.04028659924395987,-0.05763107930190216,-0.05698970739223518,-0.0958378845437144,-0.12876529017442404,-0.13759774935697386,-0.14955363490325052,-0.15251317850048637,-0.16159248891168743,-0.1737521203734684,-0.18897968837490925,-0.21634199776665766,-0.25280230544767973,-0.28927237246097304,-0.31061228169202876,-0.32589120005479416,-0.3381263272558282,-0.36546548057511874,-0.3594824834424413,-0.3474025218719792,-0.35645035150630566,-0.34727668775680876,-0.35921055951017555,-0.35895476714381874,-0.34649874548624315,-0.37630124929272796,-0.35756854181187453,-0.3084442584685915,-0.35601118647130586,-0.35197775028811945,-0.33264403546015514,-0.3161535756792853,-0.272232504920408,-0.24323341803893814,-0.2230918122309689,-0.19969155437952374,-0.2093346819279217,-0.22174993064313397,-0.2217972366481513,-0.22157205216025944,-0.18475298391376385,-0.14764557243110474,-0.1526083981383419,-0.15424433883968866,-0.17373136203850265,-0.19593530533417008,-0.2026968179769171,-0.209144383291651,-0.23343334033409932,-0.23622396258038647,-0.16607275328669593,-0.19546779891928448,-0.25481057405153723,-0.31081648412268237,-0.357436285363026,-0.3462556323309161,-0.3014862104890239,-0.27457459886580704,-0.29881107709817195,-0.3136773986487862,-0.3100992033979189,-0.324393754404573,-0.3202522721058985,-0.3612272467013373,-0.3686449025696496,-0.3697441738425195,-0.3675539382211655,-0.3499711959064595,-0.35330926119753636,-0.32612473414356685,-0.33196581224662874,-0.3435980035375142,-0.35496959215464285,-0.3448984467395478,-0.3012807176477137,-0.2997693446589361,-0.2798432854973607,-0.2505819462351754,-0.22711729739668043,-0.22760792581135444,-0.22179554622539197,-0.20060517128204738,-0.1912756128516816,-0.1635506599211126,-0.16887947010837914,-0.17398151333786552,-0.14860328435151518,-0.14117063853935996,-0.1093276294273956,0.0,0.0,0.0,0.0,0.0,0.0,0.0,0.0,0.0,0.0,0.0,0.0,0.0,0.0,0.0,0.0,0.0,0.0,0.0,0.0,0.0,0.0,0.0,0.0,0.0,0.0,0.0,0.0,0.0,0.0,0.0,0.0,0.0,0.0,0.0,0.0,0.0,0.0,0.0,0.0,0.0,0.0,0.0,0.0,0.0,0.0,0.0,0.0,0.0,0.0,0.0,0.0,0.0,0.0,0.0,0.0,0.0,0.0,0.0,0.0,0.0,0.0,0.0,0.0,0.0,0.0,0.0,0.0,0.0,0.0,0.0,0.0,0.0,0.0,0.0,0.0,0.0,0.0,0.0,0.0,0.0,0.0,0.0,0.0,0.0,0.0,0.0,0.0,0.0,0.0,0.0,0.0,0.0,0.0,0.0,0.0,0.0,0.0,0.0,0.0,0.0,0.0,0.0,0.0,0.0,0.0,0.0,0.0,0.0,0.0,0.0,0.0,0.0,0.0,0.0,0.0,0.0,0.0,0.0,0.0,0.0,0.0,0.0,0.0,0.0,0.0,0.0,0.0,0.0,0.0,0.0,0.0,0.0,0.0,0.0,0.0,0.0,0.0,0.0,0.0,0.0,0.0,0.0,0.0,0.0,0.0,0.0,0.0,0.0,0.0,0.0,0.0,0.0,0.0,0.0,0.0,0.0,0.0,0.0,0.0,0.0,0.0,0.0,0.0,0.0,0.0,0.0,0.0,0.0,0.0,0.0,0.0,0.0,0.0,0.0,0.0,0.0,0.0,0.0,0.0,0.0,0.0,0.0,0.0,0.0,0.0,0.0
0.5967131593606323,0.04865913698522522,-0.5568934863104316,-0.9027779657516256,-0.857368759465203,-0.579297031175234,-0.40971379202150593,-0.2737542503953448,-0.21028045710918813,-0.17734931342632493,-0.13900438814172444,-0.10717542692624055,-0.1057648200325362,-0.11677717541183652,-0.12820429112523254,-0.1400107209516878,-0.14318404490821734,-0.1466701032317647,-0.14744487716366383,-0.14847133352869873,-0.1796490932054763,-0.18408763326825514,-0.17073945817763073,-0.1695079225644568,-0.18336233261245238,-0.2062948142252304,-0.2053633817448969,-0.1925192713270464,-0.1827076009094393,-0.19386743443255328,-0.2110181068792343,-0.2012232201499872,-0.18841081568190968,-0.2114740787346401,-0.23149428207073347,-0.23648903236055982,-0.24141217008128768,-0.2791753135384571,-0.31086352420353625,-0.318512238279851,-0.3290495909406655,-0.38137546440180276,-0.4036562115043153,-0.41982830719265496,-0.41492177204080444,-0.42484438564618837,-0.4436046065730683,-0.4442607278442909,-0.4178256290738935,-0.4031948174845019,-0.4213069474254281,-0.41229487649399954,-0.37614751184483913,-0.3517603317759634,-0.34211530809331014,-0.3082954073768551,-0.28321143193161985,-0.2698466375008528,-0.2562209103603664,-0.22736207548207596,-0.2012196886813373,-0.17479459488306853,-0.18698807586641236,-0.21385362066899102,-0.19553215763352796,-0.17691400582003947,-0.17296250154301768,-0.1896637638064328,-0.1761417487029845,-0.1683130619825993,-0.1691746132668321,-0.17274613787143522,-0.14012770981946668,-0.11621932704444887,-0.11599428175661888,-0.11552084898016754,-0.11481130471119372,-0.09292977326149085,-0.07981967884367247,-0.1114116999554517,-0.10691861119954878,-0.08731027977068852,-0.04363003318580399,0.01811308765092912,0.16373560975872256,0.38423161295487157,0.5269373640396326,0.5738615754611477,0.6027781574330935,0.6256142252294682,0.34902512781033324,-0.22105797871037577,-0.7554842654402274,-0.7844418107211627,-0.5832965622974354,-0.4333654336305284,-0.3705393445668411,-0.349902033213963,-0.29960219023291657,-0.2585228374297382,-0.28350445887304637,-0.29371906887643096,-0.2652027588583145,-0.2607837496178204,-0.26248515516238125,-0.2702877458542147,-0.2632234055497023,-0.25324567861448866,-0.2523088915613731,-0.23944728925513414,-0.21165281528962582,-0.22577452098427472,-0.2518709979467502,-0.2689802381809752,-0.24416983126049732,-0.23129961983371905,-0.2483165999453667,-0.265283744047981,-0.2462792606055013,-0.22122395729494956,-0.2439819913403615,-0.29359825373787324,-0.2922551174749016,-0.31177610255636873,-0.35215791793838747,-0.36850565693736315,0.0,0.0,0.0,0.0,0.0,0.0,0.0,0.0,0.0,0.0,0.0,0.0,0.0,0.0,0.0,0.0,0.0,0.0,0.0,0.0,0.0,0.0,0.0,0.0,0.0,0.0,0.0,0.0,0.0,0.0,0.0,0.0,0.0,0.0,0.0,0.0,0.0,0.0,0.0,0.0,0.0,0.0,0.0,0.0,0.0,0.0,0.0,0.0,0.0,0.0,0.0,0.0,0.0,0.0,0.0,0.0,0.0,0.0,0.0,0.0,0.0,0.0,0.0,0.0,0.0,0.0,0.0,0.0,0.0,0.0,0.0,0.0,0.0,0.0,0.0,0.0,0.0,0.0,0.0,0.0,0.0,0.0,0.0,0.0,0.0,0.0,0.0,0.0,0.0,0.0,0.0,0.0,0.0,0.0,0.0,0.0,0.0,0.0,0.0,0.0,0.0,0.0,0.0,0.0,0.0,0.0,0.0,0.0,0.0,0.0,0.0,0.0,0.0,0.0,0.0,0.0,0.0,0.0,0.0,0.0,0.0,0.0,0.0,0.0,0.0,0.0,0.0,0.0,0.0,0.0,0.0,0.0,0.0,0.0,0.0,0.0,0.0,0.0,0.0,0.0,0.0,0.0,0.0,0.0,0.0,0.0,0.0,0.0,0.0,0.0,0.0,0.0,0.0,0.0,0.0,0.0,0.0,0.0,0.0,0.0,0.0,0.0,0.0,0.0,0.0,0.0,0.0,0.0,0.0,0.0,0.0,0.0,0.0,0.0,0.0
1.0031809305560937,0.7514146959099619,0.10438316174996412,-0.4797801325953465,-0.6876387279997996,-0.6488683179974657,-0.5684704939389795,-0.2504886551658675,-0.12595318223412602,-0.05917258159715794,-0.025992012892567192,0.0037710806204717673,0.024124092093783755,0.05017421421952197,0.03975186848802039,0.023033196706986225,0.01813468498405437,0.0039829311357691315,-0.004323341418810067,-0.01881728399621846,0.005741547011949745,-0.005987032377718213,-0.02685246790750664,-0.05080707105339322,-0.03563080275307531,-0.03255377540275628,-0.038546829512433614,-0.06264009976395732,-0.07769131182908899,-0.1017766104562821,-0.10172713778128051,-0.13179497339855314,-0.15579883962218488,-0.15865969546024902,-0.18257437150797942,-0.2094508521778563,-0.21516878849498028,-0.20575311862717266,-0.2143595597192515,-0.2198837064182491,-0.2494532934266318,-0.28497930102426694,-0.2782282051006981,-0.29853129875116025,-0.29162635994870617,-0.29368559992771515,-0.3137509942429513,-0.33071979289732206,-0.317459714491874,-0.3101403644388847,-0.2997132299318024,-0.29521644638038136,-0.28157235265645264,-0.2678191867945132,-0.25696635845177423,-0.24900899725003361,-0.23791352746377506,-0.2116177078069744,-0.15504516648649022,-0.11642408335408426,-0.07465037142328382,-0.05685257344043186,-0.023841846863654398,-0.008778113349777928,-0.014677918222537358,-0.008385546639160394,-0.00799290179655793,-0.01350650614421847,-0.01890542165159961,0.0029311756401032094,0.030890992363570173,0.0890773754996702,0.15938926487316127,0.21166569798119442,0.3212501618995011,0.4308464453929166,0.5585171817399524,0.6439448423732417,0.7021695569039945,0.630661993117012,0.18520722923877955,-0.45940168738091924,-0.8058248594285243,-0.38383829670922753,-0.27562767142283784,-0.21288457515887466,-0.1624301669363318,-0.1272598349003922,-0.11338417325800813,-0.11777123982539386,-0.12231766625424981,-0.11796447270476487,-0.1137404838416105,-0.10661755483948879,-0.10562642911141225,-0.11075541689105556,-0.10692144103629998,-0.1182306437530494,-0.1296019367880199,-0.12595517937127088,-0.13139935584828477,-0.13989956366479017,-0.13939282275421475,-0.1509762675251907,-0.14751620084212813,-0.14408242338924868,-0.15876001648237312,-0.16140320644509704,-0.1670841580781242,-0.17580336992247858,-0.19057652331099773,-0.20537652046810584,-0.20814789022008884,-0.24712526466803053,-0.28312386610490997,-0.2829881789860292,-0.28289584103288506,-0.288879817902223,-0.3069731994081447,-0.3100498942657638,-0.3131865290253455,-0.33145950959187614,-0.3347275296041326,-0.33806422178278456,-0.332424817219531,-0.3328775016080126,-0.3544881143789101,-0.3490160345980478,-0.34659266803214933,-0.3170559064984902,-0.2845005819743127,-0.2549337627641667,-0.2223047150020863,-0.21070776455027332,-0.20203495031932928,-0.17817879631759515,0.0,0.0,0.0,0.0,0.0,0.0,0.0,0.0,0.0,0.0,0.0,0.0,0.0,0.0,0.0,0.0,0.0,0.0,0.0,0.0,0.0,0.0,0.0,0.0,0.0,0.0,0.0,0.0,0.0,0.0,0.0,0.0,0.0,0.0,0.0,0.0,0.0,0.0,0.0,0.0,0.0,0.0,0.0,0.0,0.0,0.0,0.0,0.0,0.0,0.0,0.0,0.0,0.0,0.0,0.0,0.0,0.0,0.0,0.0,0.0,0.0,0.0,0.0,0.0,0.0,0.0,0.0,0.0,0.0,0.0,0.0,0.0,0.0,0.0,0.0,0.0,0.0,0.0,0.0,0.0,0.0,0.0,0.0,0.0,0.0,0.0,0.0,0.0,0.0,0.0,0.0,0.0,0.0,0.0,0.0,0.0,0.0,0.0,0.0,0.0,0.0,0.0,0.0,0.0,0.0,0.0,0.0,0.0,0.0,0.0,0.0,0.0,0.0,0.0,0.0,0.0,0.0,0.0,0.0,0.0,0.0,0.0,0.0,0.0,0.0,0.0,0.0,0.0,0.0,0.0,0.0,0.0,0.0,0.0,0.0,0.0,0.0,0.0,0.0,0.0,0.0,0.0,0.0,0.0,0.0,0.0,0.0,0.0,0.0,0.0,0.0,0.0,0.0,0.0,0.0,0.0,0.0,0.0,0.0,0.0,0.0,0.0,0.0,0.0,0.0
0.506417253881737,0.10033637093155875,-0.5184712366871216,-0.7963834076433075,-0.5897836087381618,-0.4373802737239218,-0.3002532792953365,-0.25320761076650405,-0.24834362671874477,-0.2796618626479926,-0.2753218832286105,-0.23830421146212655,-0.2404247297073478,-0.2547374860147761,-0.23334775223120474,-0.21515312449204263,-0.2091240271092017,-0.20627504488380338,-0.20061462559590795,-0.1921379045843174,-0.1987979743882395,-0.22358501344708234,-0.2605118734698888,-0.270671472821007,-0.2780065426023285,-0.2944893174829958,-0.29318620601002726,-0.301034828576089,-0.30905971388829717,-0.32624284575315876,-0.3406170885985511,-0.3851079289256828,-0.42380661071199016,-0.42679017132923047,-0.4299770809082283,-0.4632995108632114,-0.48486120376778247,-0.4826898591103945,-0.46874946426374114,-0.4849261214322835,-0.4593744759149521,-0.43396976477449495,-0.3787560034805084,-0.3475745367713717,-0.3254322761671152,-0.2973364935792698,-0.26625179403151816,-0.23215058379436593,-0.1979988464784229,-0.19369879621958908,-0.18031911772120232,-0.16082897014528744,-0.14717714032713883,-0.15131370922138246,-0.1373051548028562,-0.12907550343987084,-0.10266522788087606,-0.09995808112860714,-0.13291129777492436,-0.14464907318295278,-0.13815324312134786,-0.15232074239628304,-0.18415056862341325,-0.19173652172527042,-0.20799383750802128,-0.22693235700581246,-0.2425629795477859,-0.24291194739569735,-0.2249848192652626,-0.23666581326980413,-0.25999829349511044,-0.24410562527827606,-0.2608171959596754,-0.25925804688517395,-0.2723527029558113,-0.2582062326742793,-0.2587231304209081,-0.27690216345545426,-0.28880761067217714,-0.2854685163931612,-0.269885820506187,-0.2300970821461765,-0.2289608676554275,-0.22458832943379547,-0.23195496970392465,-0.2480804040016432,-0.26998518635211416,-0.28271948730309504,-0.2833054670801616,-0.2747515912454193,-0.25108857609314517,-0.21831910376341016,-0.2063891818967219,-0.21232491111844093,-0.19424692401860763,-0.18210433786429273,-0.1549696212589683,-0.13680858557197723,-0.10071058989557743,-0.07064418323644266,0.0670897660925442,0.24662002464172425,0.43798664926712744,0.5603485897673173,0.6525729211391007,0.6158525429671302,0.28852597667453994,-0.36238258944208296,-0.8491035097090407,-0.8634360448973802,-0.3575131570997795,-0.23813214583460718,-0.2059880563572239,-0.213172909657357,-0.21477260538352613,-0.195802178932804,-0.18018422445701265,-0.18585683469147904,-0.20382400670056333,-0.20114842384950055,-0.18978600367105225,-0.20563623889917762,-0.23970761657862316,-0.22913910780907035,-0.2158189451375146,-0.23265788267491921,0.0,0.0,0.0,0.0,0.0,0.0,0.0,0.0,0.0,0.0,0.0,0.0,0.0,0.0,0.0,0.0,0.0,0.0,0.0,0.0,0.0,0.0,0.0,0.0,0.0,0.0,0.0,0.0,0.0,0.0,0.0,0.0,0.0,0.0,0.0,0.0,0.0,0.0,0.0,0.0,0.0,0.0,0.0,0.0,0.0,0.0,0.0,0.0,0.0,0.0,0.0,0.0,0.0,0.0,0.0,0.0,0.0,0.0,0.0,0.0,0.0,0.0,0.0,0.0,0.0,0.0,0.0,0.0,0.0,0.0,0.0,0.0,0.0,0.0,0.0,0.0,0.0,0.0,0.0,0.0,0.0,0.0,0.0,0.0,0.0,0.0,0.0,0.0,0.0,0.0,0.0,0.0,0.0,0.0,0.0,0.0,0.0,0.0,0.0,0.0,0.0,0.0,0.0,0.0,0.0,0.0,0.0,0.0,0.0,0.0,0.0,0.0,0.0,0.0,0.0,0.0,0.0,0.0,0.0,0.0,0.0,0.0,0.0,0.0,0.0,0.0,0.0,0.0,0.0,0.0,0.0,0.0,0.0,0.0,0.0,0.0,0.0,0.0,0.0,0.0,0.0,0.0,0.0,0.0,0.0,0.0,0.0,0.0,0.0,0.0,0.0,0.0,0.0,0.0,0.0,0.0,0.0,0.0,0.0,0.0,0.0,0.0,0.0,0.0,0.0,0.0,0.0,0.0,0.0,0.0,0.0,0.0,0.0,0.0,0.0
0.7348068406464403,0.0010933771364868864,-0.5966556601917092,-0.8870851768069524,-0.6813834176318853,-0.5286856423134205,-0.3476008733471935,-0.1845631733102436,-0.0918176160384186,-0.025728431381767464,0.007945287591806075,0.04411990510565796,0.06541091848125388,0.07477039900301512,0.05480981729000936,0.05205963771455046,0.022977660120688134,0.01409033548518112,-0.01524288571317294,-0.030121236363943,-0.04213369057868698,-0.022193743213678396,0.006484494367809842,-0.011275271317609827,-0.0289584352668299,-0.02620161945018282,-0.037847633090793954,-0.05806382575458867,-0.06649157294588062,-0.04277369937399447,-0.04209756342198128,-0.061541951738188556,-0.1039981897463213,-0.13749297625025783,-0.13586523932610262,-0.10782101754342685,-0.10855548758202278,-0.10609988045521475,-0.14112424566096282,-0.14970166641934055,-0.16669342541692292,-0.18337922331333273,-0.17651214247761904,-0.14609012686299325,-0.16184409425451063,-0.15694724264341717,-0.17788839023580386,-0.18980317367920319,-0.17526110892044058,-0.14588755110978657,-0.127836242963694,-0.1182068885898265,-0.13443882652539477,-0.12133492205937274,-0.09633672954867553,-0.05945390698264405,-0.016508379930146165,0.003432444829206069,0.03522061066294217,0.03525777277525882,0.032581292481092865,0.03298257632623864,0.05096764303443983,0.03711949976303695,0.04371182974012218,0.06490629368180185,0.07452406013427221,0.0638172628052248,0.038563447605497285,0.06264819922581995,0.11860103366905932,0.17151638495584176,0.24459645196783183,0.340702302394008,0.40167643915708406,0.4681450877077122,0.6185022888939332,0.7568077111431692,0.604069384067665,0.09629717406125284,-0.5138037815759048,-0.7759562354264768,-0.7396140172295267,-0.6168985645333843,-0.4368472957338115,-0.2575271235167742,-0.12537449155573485,-0.04905473210895348,0.006348282956387383,0.023450099871313728,0.0052030276879176645,0.0010455965959295307,-0.000601031014062863,-0.002600922895043114,-0.004914378449462358,-0.01621993820784932,-0.024859323566359347,-0.04532545817125273,-0.05724682246210441,-0.080930477948581,-0.0843858517790651,-0.09373380336403633,-0.10023045127464758,-0.10094419467620974,-0.11909421493157335,-0.11688532594689156,-0.13497211715835106,-0.13556170162268083,-0.13606684958099363,-0.15390139299003408,-0.20357471812692174,-0.22695955954801758,-0.2240394708505793,-0.2441921931400015,-0.24381993102390973,-0.22871899045489877,-0.23664675137473906,-0.24434558739452475,-0.24889696250235457,-0.2619103828301171,0.0,0.0,0.0,0.0,0.0,0.0,0.0,0.0,0.0,0.0,0.0,0.0,0.0,0.0,0.0,0.0,0.0,0.0,0.0,0.0,0.0,0.0,0.0,0.0,0.0,0.0,0.0,0.0,0.0,0.0,0.0,0.0,0.0,0.0,0.0,0.0,0.0,0.0,0.0,0.0,0.0,0.0,0.0,0.0,0.0,0.0,0.0,0.0,0.0,0.0,0.0,0.0,0.0,0.0,0.0,0.0,0.0,0.0,0.0,0.0,0.0,0.0,0.0,0.0,0.0,0.0,0.0,0.0,0.0,0.0,0.0,0.0,0.0,0.0,0.0,0.0,0.0,0.0,0.0,0.0,0.0,0.0,0.0,0.0,0.0,0.0,0.0,0.0,0.0,0.0,0.0,0.0,0.0,0.0,0.0,0.0,0.0,0.0,0.0,0.0,0.0,0.0,0.0,0.0,0.0,0.0,0.0,0.0,0.0,0.0,0.0,0.0,0.0,0.0,0.0,0.0,0.0,0.0,0.0,0.0,0.0,0.0,0.0,0.0,0.0,0.0,0.0,0.0,0.0,0.0,0.0,0.0,0.0,0.0,0.0,0.0,0.0,0.0,0.0,0.0,0.0,0.0,0.0,0.0,0.0,0.0,0.0,0.0,0.0,0.0,0.0,0.0,0.0,0.0,0.0,0.0,0.0,0.0,0.0,0.0,0.0,0.0,0.0,0.0,0.0,0.0,0.0,0.0,0.0,0.0,0.0,0.0,0.0,0.0,0.0,0.0,0.0,0.0,0.0,0.0,0.0
0.9509305899396686,0.662345606931626,-0.0807312619124503,-0.8607781671676381,-0.8547779737275909,-0.704295208581228,-0.23682750724786122,-0.1543806147653202,-0.08772343021022458,-0.05799204003564599,-0.04698463894159809,-0.04255309533643355,-0.020446439652071335,-0.004832775574310003,-0.0017253125962516935,0.025226311542416724,0.024613953812026777,-0.009581012905480576,-0.0198311300329875,-0.02123693273670719,-0.0379789151493721,-0.045821728722254075,-0.06894912103140645,-0.06799840177929262,-0.10044333320020488,-0.10876752305977372,-0.09597774074084003,-0.14073434789065448,-0.179472561708443,-0.20915055955556844,-0.2479100573672738,-0.22613676093201973,-0.24973038955978874,-0.2944692451319563,-0.30587121110293264,-0.30208074022929765,-0.2982164362192257,-0.3003188837775807,-0.29324629011291664,-0.3102746468587257,-0.3241583651057329,-0.32883474050811806,-0.3636326394939622,-0.352889469840991,-0.3722465373719862,-0.37932747453209714,-0.3862239709750769,-0.36568617281172744,-0.32980048323711275,-0.3148610413532348,-0.32387507303103225,-0.32051077670032824,-0.2986974507131595,-0.2674950378971079,-0.25412032907556104,-0.2434252300071792,-0.2202621506102576,-0.17856234179911074,-0.10317944457769011,-0.1060639489519709,-0.09944536985241736,-0.10449386698170185,-0.09396336631885085,-0.07086999067113364,-0.08967477350197484,-0.08077029608730316,-0.05020282743120523,-0.052437518705644025,-0.08141915575712902,-0.0796504312941496,-0.09554871156773938,-0.11701085026545922,-0.083517486834515,-0.07375079529611263,-0.10587241777270757,-0.09515819097064536,-0.0839811640479147,-0.10261130731831007,-0.12987634023937858,-0.16881399960244964,-0.1679934474130942,-0.1697937044306896,-0.14094236486791092,-0.1389507823390852,-0.1335746413527304,-0.13996212322918009,-0.13694938273328314,-0.1003475551269227,-0.11188217156339134,-0.13526235252792368,-0.10393748931987813,-0.10871498327688064,-0.10725533485067912,-0.10866388139109134,-0.06757749856720453,-0.07178244944969085,-0.07591827802329786,-0.061860794204474226,-0.05385252543037611,-0.03679823669828083,-0.019812954133157326,-0.008987200176441544,-0.06790896758504482,-0.09373278399151802,-0.08650182366826777,-0.05836494479958004,0.054180013518842635,0.2571379346357756,0.5686160340531657,0.7888396661606603,0.9419605570750623,1.0097593916027465,0.7863925138609741,0.19915760036847943,0.0,0.0,0.0,0.0,0.0,0.0,0.0,0.0,0.0,0.0,0.0,0.0,0.0,0.0,0.0,0.0,0.0,0.0,0.0,0.0,0.0,0.0,0.0,0.0,0.0,0.0,0.0,0.0,0.0,0.0,0.0,0.0,0.0,0.0,0.0,0.0,0.0,0.0,0.0,0.0,0.0,0.0,0.0,0.0,0.0,0.0,0.0,0.0,0.0,0.0,0.0,0.0,0.0,0.0,0.0,0.0,0.0,0.0,0.0,0.0,0.0,0.0,0.0,0.0,0.0,0.0,0.0,0.0,0.0,0.0,0.0,0.0,0.0,0.0,0.0,0.0,0.0,0.0,0.0,0.0,0.0,0.0,0.0,0.0,0.0,0.0,0.0,0.0,0.0,0.0,0.0,0.0,0.0,0.0,0.0,0.0,0.0,0.0,0.0,0.0,0.0,0.0,0.0,0.0,0.0,0.0,0.0,0.0,0.0,0.0,0.0,0.0,0.0,0.0,0.0,0.0,0.0,0.0,0.0,0.0,0.0,0.0,0.0,0.0,0.0,0.0,0.0,0.0,0.0,0.0,0.0,0.0,0.0,0.0,0.0,0.0,0.0,0.0,0.0,0.0,0.0,0.0,0.0,0.0,0.0,0.0,0.0,0.0,0.0,0.0,0.0,0.0,0.0,0.0,0.0,0.0,0.0,0.0,0.0,0.0,0.0,0.0,0.0,0.0,0.0,0.0,0.0,0.0,0.0,0.0,0.0,0.0,0.0,0.0,0.0,0.0,0.0,0.0,0.0,0.0,0.0,0.0,0.0,0.0,0.0,0.0,0.0
0.8592862435107405,0.6582914484805595,0.06868695563908159,-0.48200851191939476,-0.7504679245308336,-0.8025212948484287,-0.26979221894669175,-0.11923195746995383,-0.0745097695339092,-0.04019656209325855,-0.0261156756288032,-0.02564613383598944,-0.032168244012785355,-0.022618069423944925,0.0030433313492743397,-0.0077720973119615845,-0.0024024485299957202,0.0027415833219465295,0.0044043256887387515,-0.010538639863629485,-0.009165684018050962,-0.011182234892142909,-0.033005982959313854,-0.05487581099911862,-0.037297214961963365,-0.039450010500769093,-0.021842061062612262,-0.014053672955885744,-0.012775397492686863,0.011613718075863923,0.019662050264264572,0.014674881294479917,-0.016489549086121533,-0.06723985270534344,-0.11454044314069892,-0.14522412994140443,-0.13954635214198297,-0.13367803878092055,-0.13418888137564172,-0.16080574122103303,-0.17076320891138277,-0.2035241351103983,-0.19987875094597213,-0.21902549998702542,-0.26753754464260016,-0.30265177642480323,-0.2848942693356073,-0.28661881878274675,-0.2815058447547957,-0.2728373618598409,-0.2671844973543345,-0.2711184284888192,-0.2648975627987389,-0.27811695635862954,-0.2910351649857787,-0.3102236160671034,-0.2929163681356084,-0.2785725278350935,-0.2606027602378359,-0.23899596372775153,-0.20058472386909904,-0.12891273943052944,-0.09632998234857709,-0.08638133226637582,-0.06945617737129153,-0.05870326608188573,-0.07056151971342212,-0.0523997543152649,-0.030526391230615582,-0.034540109981492866,-0.05128247368190217,-0.06101807493282103,-0.04401266410375826,-0.05289343258190614,-0.05148290396143307,-0.059519553493957496,-0.08687569520741086,-0.10724459374927786,-0.140367977523113,-0.17638649892020083,-0.18899599268939324,-0.1716274618080814,-0.17033807440161675,-0.1719816466985397,-0.15354523942785156,-0.17753322350513395,-0.19462101241324525,-0.19166471211340524,-0.19170103560625046,-0.17829787978948902,-0.17449286919681847,-0.18687862106999273,-0.18915723440042895,-0.19121145393091837,-0.18647896281553494,-0.19471075030549462,-0.19947812147452026,-0.18106371602679408,-0.1888218163872598,-0.18330135193257793,-0.16781010006818423,-0.1522345478670323,-0.15303996952585358,-0.1505121262859609,-0.18085223031343253,-0.181588975493945,-0.13958815558325832,-0.14696746246720283,-0.13139000443728072,-0.09616900705242876,-0.0676421950792847,-0.04583537864683885,-0.020908125863939316,0.023557022149937542,0.04148320069795313,0.09533251100799556,0.2508545387077384,0.5080148586476201,0.7352121373569259,0.8666232070435272,0.9153583535942459,0.6873084378075606,0.18570468931062234,-0.2869178672938081,-0.5859036379483878,-0.655402502746081,-0.5809671082289695,-0.45469291913184856,0.0,0.0,0.0,0.0,0.0,0.0,0.0,0.0,0.0,0.0,0.0,0.0,0.0,0.0,0.0,0.0,0.0,0.0,0.0,0.0,0.0,0.0,0.0,0.0,0.0,0.0,0.0,0.0,0.0,0.0,0.0,0.0,0.0,0.0,0.0,0.0,0.0,0.0,0.0,0.0,0.0,0.0,0.0,0.0,0.0,0.0,0.0,0.0,0.0,0.0,0.0,0.0,0.0,0.0,0.0,0.0,0.0,0.0,0.0,0.0,0.0,0.0,0.0,0.0,0.0,0.0,0.0,0.0,0.0,0.0,0.0,0.0,0.0,0.0,0.0,0.0,0.0,0.0,0.0,0.0,0.0,0.0,0.0,0.0,0.0,0.0,0.0,0.0,0.0,0.0,0.0,0.0,0.0,0.0,0.0,0.0,0.0,0.0,0.0,0.0,0.0,0.0,0.0,0.0,0.0,0.0,0.0,0.0,0.0,0.0,0.0,0.0,0.0,0.0,0.0,0.0,0.0,0.0,0.0,0.0,0.0,0.0,0.0,0.0,0.0,0.0,0.0,0.0,0.0,0.0,0.0,0.0,0.0,0.0,0.0,0.0,0.0,0.0,0.0,0.0,0.0,0.0,0.0,0.0,0.0,0.0,0.0,0.0,0.0,0.0,0.0,0.0,0.0,0.0,0.0,0.0,0.0,0.0,0.0,0.0,0.0,0.0,0.0,0.0,0.0,0.0,0.0,0.0,0.0,0.0,0.0,0.0,0.0
0.6251138820277843,0.18238150926852667,-0.4144909938405276,-0.7814804232238058,-0.8241024399877446,-0.6901075218357335,-0.5153919065740354,-0.35605735453299614,-0.2445628063254637,-0.18973181590677476,-0.16788967755671222,-0.13763608418576392,-0.15506983292601229,-0.19061141292288997,-0.18809245477166486,-0.16520776503843096,-0.15147132541940805,-0.14389925471046797,-0.157235983603778,-0.16486475594292443,-0.16676052913528253,-0.17176307502658567,-0.19166801676153697,-0.21168203546846487,-0.21405858537670588,-0.19582465472808044,-0.21900686000858785,-0.2924524639076012,-0.2920583849897803,-0.3005356659471225,-0.30605283888268703,-0.3499597244372628,-0.3908814700114772,-0.38744368147868885,-0.39576995397488873,-0.4128946170837842,-0.3974440310172678,-0.39667900469334366,-0.4105889387970315,-0.43916345888968106,-0.42921176291459473,-0.4575400418006392,-0.45027623034588504,-0.4162721054474706,-0.40278682370976887,-0.3920811783822262,-0.38709749486335476,-0.396687300077651,-0.38833971810983015,-0.3443164820307679,-0.4005123866576997,-0.45646456707588656,-0.41171036408000944,-0.3903259505864673,-0.43661677481413236,-0.45011917694066544,-0.3983224894272203,-0.3816666979306261,-0.34991368642328335,-0.2764614534575476,-0.32674945025569246,-0.32940759535426917,-0.3080618526111885,-0.25679397881512367,-0.22877593532206777,-0.22990897850528935,-0.22473275350607394,-0.1984693020039976,-0.19543128689145256,-0.1890251430593986,-0.1762943511558068,-0.17201051595585523,-0.13185703242908994,-0.13856114746507475,-0.21871659716459624,-0.22755897693889163,-0.15623093107959413,-0.11405524756526443,-0.17785689635828564,-0.28264759756360547,-0.2984419000072909,-0.24593346589211,-0.19308830276686784,-0.19014653580282506,-0.21348761224454485,-0.2719914820081413,-0.32135865289831417,-0.2522919907679544,-0.23026130816235904,-0.1991516021686148,-0.18852875491620322,-0.1865971854242884,-0.1904260088303977,-0.16163189359434715,-0.10614991677118454,-0.109687429944903,-0.11613857436871468,-0.08417153528134277,-0.04927252308679071,-0.03215715145143184,-0.01513479715697823,0.019483115529261515,0.021430062646597164,0.002481227982898256,0.030544539679335382,0.10852721493383327,0.08865579160692935,0.04769429575160482,0.1392204994573275,0.28931501214059946,0.6485957779439439,0.3011109504390764,-0.2598113200178062,-0.6442532859557643,-0.8138808519197276,-0.801248119474454,-0.7393260408883757,-0.5778738435380829,-0.3641202113806267,-0.25164205340305346,-0.16356747350231082,-0.07029715492061676,-0.027912999411758347,-0.059999520382225016,-0.05719184258309687,-0.016488164928618376,-0.053067681855634104,-0.11666101113687478,-0.15404623664775388,-0.15632021968390497,-0.12639916690217803,-0.11742681774412346,-0.13232238181236564,0.0,0.0,0.0,0.0,0.0,0.0,0.0,0.0,0.0,0.0,0.0,0.0,0.0,0.0,0.0,0.0,0.0,0.0,0.0,0.0,0.0,0.0,0.0,0.0,0.0,0.0,0.0,0.0,0.0,0.0,0.0,0.0,0.0,0.0,0.0,0.0,0.0,0.0,0.0,0.0,0.0,0.0,0.0,0.0,0.0,0.0,0.0,0.0,0.0,0.0,0.0,0.0,0.0,0.0,0.0,0.0,0.0,0.0,0.0,0.0,0.0,0.0,0.0,0.0,0.0,0.0,0.0,0.0,0.0,0.0,0.0,0.0,0.0,0.0,0.0,0.0,0.0,0.0,0.0,0.0,0.0,0.0,0.0,0.0,0.0,0.0,0.0,0.0,0.0,0.0,0.0,0.0,0.0,0.0,0.0,0.0,0.0,0.0,0.0,0.0,0.0,0.0,0.0,0.0,0.0,0.0,0.0,0.0,0.0,0.0,0.0,0.0,0.0,0.0,0.0,0.0,0.0,0.0,0.0,0.0,0.0,0.0,0.0,0.0,0.0,0.0,0.0,0.0,0.0,0.0,0.0,0.0,0.0,0.0,0.0,0.0,0.0,0.0,0.0,0.0,0.0,0.0,0.0,0.0,0.0,0.0,0.0,0.0,0.0,0.0,0.0,0.0,0.0,0.0,0.0,0.0,0.0,0.0,0.0,0.0,0.0,0.0,0.0,0.0,0.0,0.0,0.0,0.0
0.9061597910112603,0.5390721048065482,-0.09881579532328075,-0.5856887483701378,-0.7334431761050914,-0.6635394226978112,-0.5520307515596091,-0.3564018078218073,-0.17676824751512354,-0.07074800141854261,-0.014009187202021075,0.011708502994861312,0.0459103367066514,0.0431143431842692,0.057998463286622795,0.057218040577812664,0.046884230149693375,0.04828238666814652,0.03413287442055193,0.022682321766386366,0.01699965224518425,-0.013235070062579684,-0.04674495662670135,-0.04707856707739667,-0.0779474169711101,-0.0816562314379189,-0.10674293948578768,-0.12283133455571268,-0.12686301845748338,-0.13095651299978708,-0.14723122992188875,-0.14227942069645746,-0.14339816452528406,-0.15663893958486563,-0.16984281941466647,-0.17388682058710322,-0.17785984659804593,-0.16960504188107173,-0.17945901356391578,-0.17098460139121305,-0.19273092755364216,-0.21129733005108375,-0.23577653522217185,-0.2540153232907,-0.2629664257893962,-0.2595828284200421,-0.28938095800964136,-0.2886101963654441,-0.3058224759688422,-0.3015489530184946,-0.3091655388130954,-0.30437932349462293,-0.28717860300243975,-0.27879808949882146,-0.2640501597149377,-0.23078252261916132,-0.2214767268503774,-0.21487544975894737,-0.19579218952122848,-0.16118170210991975,-0.1383513086022429,-0.12729223057475916,-0.10978531020127605,-0.08278828735001881,-0.05236548315427205,-0.03368793499749388,-0.035857538717436535,-0.031555122174086944,-0.020779676023229072,-0.030848375228526886,-0.04658698735321341,-0.025505832126495397,-0.019207782029694212,-0.042874682476880394,-0.04188016150334316,-0.004091984764350293,0.006740717690466584,0.014888169503150937,-0.006979397327173697,-0.013348501920380375,-0.013340788420667231,-0.006973752529453053,0.01787446043803574,0.0247609840779841,0.050086185936125925,0.060439139922063796,0.09828719481830162,0.11503981350657172,0.15012530066438343,0.16708981197500705,0.1628644500513199,0.1768707855591896,0.19085921293894234,0.24121135370694716,0.3096727151621975,0.4144084980850086,0.5492992147906092,0.6323417317565665,0.7302535418357252,0.8065505845392805,0.8520604417028673,0.5844369597853235,-0.011574024888147,-0.5809364806212436,-0.8991295273183538,-0.7021484308201953,-0.43920446609543495,-0.2347045526076762,-0.10681077669467332,-0.04940395956124682,0.004338127035596732,0.054461990509417545,0.046378956661829424,0.04690663401802507,0.02573441153938248,0.013253959048040496,0.0034328696646491294,-0.003692450041646628,-0.041474356713501095,-0.033999441425706385,-0.03283409537010402,-0.03794763029333774,-0.05841632396318474,-0.06082496090722036,-0.09674521331251199,-0.08420108627987034,-0.08690732056475238,-0.11698132646919257,0.0,0.0,0.0,0.0,0.0,0.0,0.0,0.0,0.0,0.0,0.0,0.0,0.0,0.0,0.0,0.0,0.0,0.0,0.0,0.0,0.0,0.0,0.0,0.0,0.0,0.0,0.0,0.0,0.0,0.0,0.0,0.0,0.0,0.0,0.0,0.0,0.0,0.0,0.0,0.0,0.0,0.0,0.0,0.0,0.0,0.0,0.0,0.0,0.0,0.0,0.0,0.0,0.0,0.0,0.0,0.0,0.0,0.0,0.0,0.0,0.0,0.0,0.0,0.0,0.0,0.0,0.0,0.0,0.0,0.0,0.0,0.0,0.0,0.0,0.0,0.0,0.0,0.0,0.0,0.0,0.0,0.0,0.0,0.0,0.0,0.0,0.0,0.0,0.0,0.0,0.0,0.0,0.0,0.0,0.0,0.0,0.0,0.0,0.0,0.0,0.0,0.0,0.0,0.0,0.0,0.0,0.0,0.0,0.0,0.0,0.0,0.0,0.0,0.0,0.0,0.0,0.0,0.0,0.0,0.0,0.0,0.0,0.0,0.0,0.0,0.0,0.0,0.0,0.0,0.0,0.0,0.0,0.0,0.0,0.0,0.0,0.0,0.0,0.0,0.0,0.0,0.0,0.0,0.0,0.0,0.0,0.0,0.0,0.0,0.0,0.0,0.0,0.0,0.0,0.0,0.0,0.0,0.0,0.0,0.0,0.0,0.0,0.0,0.0,0.0,0.0,0.0,0.0,0.0,0.0,0.0,0.0,0.0
0.3767568731598487,0.1049821505352541,-0.4782767010854816,-0.49535745354684074,-0.3741097560747555,-0.26553073580858777,-0.1884856370732259,-0.1492565208705192,-0.11008414559589536,-0.07096027490702196,-0.06962787358568323,-0.055747285121623566,-0.054480461820716815,-0.07840722158305183,-0.08662919837550812,-0.08543693702636529,-0.09999719805742913,-0.10829010417669535,-0.11031777739657564,-0.09035409215871379,-0.09244507601692509,-0.09142914096922557,-0.09675013788220771,-0.09897790390562514,-0.11070429172894816,-0.14137635483543154,-0.13752513030330865,-0.1683706620478522,-0.16786228310470214,-0.18634649747322643,-0.21125350695781409,-0.20799317460834413,-0.20174701190821995,-0.23342628876360189,-0.24956729895315033,-0.2627695747269159,-0.2856329466326464,-0.29300727209375454,-0.3226595355208664,-0.34314809250290873,-0.3450509756787862,-0.3598390510297944,-0.3655003235790864,-0.35889309289493276,-0.3525995648189404,-0.35919722689853,-0.3503633904105621,-0.3355208248556324,-0.33981764401632525,-0.3569409592376245,-0.3208038171711029,-0.2911487496623542,-0.23963337611912275,-0.1976865649064627,-0.16527902784786225,-0.12036108131196259,-0.07548811636622212,-0.02434136570155792,0.011084115239513524,0.0402503510959897,0.09149286765742697,0.10191578025168975,0.14703862044717328,0.1702531451618942,0.18730339035699364,0.20449344324103202,0.2092498056660994,0.22045491539175627,0.2192384123836895,0.22762334406035856,0.21100480739798894,0.1756712709834354,0.16251295720508915,0.14635480449215205,0.13976959798550148,0.13016104131069894,0.14582664897266473,0.1427071781665035,0.13965811983763732,0.13665760255608,0.13997321136882968,0.1338493487444664,0.16859103061996428,0.2158547962791685,0.22841969321125286,0.26287520837651374,0.27828677652506983,0.32494663497255066,0.3902270744487566,0.467788915717897,0.5324143795692908,0.34496397105312027,-0.29910165802675714,-1.0097593916027465,-0.6860239623325244,-0.293667298514452,-0.15038033983723245,-0.09883068570321772,-0.10122904688098701,-0.08832868161100466,-0.08525940164932481,-0.06996436647946924,-0.07701316353812247,-0.09064296936012442,-0.09194627109780103,-0.08403760197903751,-0.0763242825363306,-0.07821475924835848,-0.07395183949947666,-0.0918213920468642,-0.09719345300493935,-0.11521030408221895,-0.1427026330961568,-0.16077284569243913,-0.15052418013777843,-0.11193571967417681,-0.06386244376225367,-0.07234807508153755,-0.07131184419624458,-0.07961212823837611,-0.11610849391490419,-0.13359879653770876,-0.15094471647903446,-0.18386296180044726,-0.19459157430902962,-0.2303071848052164,-0.24695733419001736,-0.24767771472602587,-0.25447943272868295,-0.2610612482010569,-0.2642680453341327,-0.25465324824506963,-0.2636665617065334,-0.2724243561449356,-0.24631397753363213,-0.27341112344301216,-0.24989492850361583,-0.21979967761628189,-0.20199314873429636,-0.18388506243787112,-0.1591773763774415,-0.13101022626498549,-0.11196204941245397,-0.11146632376397027,-0.10749900907872482,-0.11264140887824589,-0.13947583532320795,-0.13766857448367756,-0.13867887290781772,-0.1488000313280084,-0.1554511005111304,-0.17436458741608876,-0.17723186156804938,-0.1829327235667486,0.0,0.0,0.0,0.0,0.0,0.0,0.0,0.0,0.0,0.0,0.0,0.0,0.0,0.0,0.0,0.0,0.0,0.0,0.0,0.0,0.0,0.0,0.0,0.0,0.0,0.0,0.0,0.0,0.0,0.0,0.0,0.0,0.0,0.0,0.0,0.0,0.0,0.0,0.0,0.0,0.0,0.0,0.0,0.0,0.0,0.0,0.0,0.0,0.0,0.0,0.0,0.0,0.0,0.0,0.0,0.0,0.0,0.0,0.0,0.0,0.0,0.0,0.0,0.0,0.0,0.0,0.0,0.0,0.0,0.0,0.0,0.0,0.0,0.0,0.0,0.0,0.0,0.0,0.0,0.0,0.0,0.0,0.0,0.0,0.0,0.0,0.0,0.0,0.0,0.0,0.0,0.0,0.0,0.0,0.0,0.0,0.0,0.0,0.0,0.0,0.0,0.0,0.0,0.0,0.0,0.0,0.0,0.0,0.0,0.0,0.0,0.0,0.0,0.0,0.0,0.0,0.0,0.0,0.0,0.0,0.0,0.0,0.0,0.0,0.0,0.0,0.0,0.0,0.0,0.0,0.0,0.0,0.0,0.0,0.0,0.0,0.0,0.0,0.0,0.0,0.0,0.0,0.0,0.0,0.0,0.0,0.0
0.6578879823528941,0.15638493350983,-0.4422709398973138,-0.829807667409886,-0.9035180797714433,-0.8304637325411296,-0.35045587891745456,-0.19578275511637072,-0.09978926268796431,-0.03351197923005966,0.003102765352419747,0.013318927262280294,0.03251889855745718,0.05432660552733809,0.06272778249415348,0.05134208465518891,0.02984712003715005,0.014342395484277792,-0.011195019628324247,-0.021033565328200537,-0.008715765980835413,-0.02239058787829665,-0.026695910682872054,-0.018391790337447207,-0.023148400558766737,-0.021669223815169527,-0.023567878086404127,-0.044883865398640206,-0.0759621925299507,-0.06860511650987665,-0.08703772729364953,-0.1119737287599684,-0.13376441897156047,-0.14918652851504885,-0.1742902594680008,-0.21549087546725726,-0.25672042826978003,-0.26263958872969667,-0.27821058703439977,-0.30342774088388413,-0.3190136734767521,-0.3313877051461897,-0.34375744260918145,-0.3529066801162277,-0.38452774438402826,-0.41292052434617865,-0.44450519881532574,-0.4182463927852073,-0.4112205436145543,-0.41056377002481464,-0.39377346405894026,-0.3833129821369968,-0.35346416771161604,-0.3074171989239312,-0.28369481180789874,-0.2886997539425247,-0.2774426811830522,-0.25953935298036435,-0.23175791208373037,-0.21977545479906688,-0.20751335633340082,-0.21422621823014654,-0.19171674631560992,-0.14960515935953994,-0.12963300578149095,-0.13499856064601548,-0.16568933230480326,-0.17351351784716176,-0.1970054028113928,-0.2200956949383809,-0.21386788745378837,-0.21364703113958686,-0.21942661908922953,-0.22477692063305588,-0.2039968045198523,-0.16350630384733914,-0.1579069048633744,-0.17434841813396992,-0.18070956124215598,-0.18020250524253378,-0.21779691681580937,-0.24210237065871382,-0.23384964071693118,-0.234798911478951,-0.2449546358757294,-0.24504978939520847,-0.24151433702543829,-0.24720301089806207,-0.2621231060848298,-0.26379834121385526,-0.25223730159088503,-0.256357504783372,-0.2729567558033052,-0.3084696072478145,-0.3179385736805473,-0.3013750634711499,-0.29091118352993783,-0.27049889762233026,-0.2529989662112409,-0.24163660475701249,-0.2332136081971976,-0.22774451869874077,-0.21882055683258633,-0.2032457598595006,-0.19709721125050453,-0.20039271177948714,-0.17460655140507622,-0.15509078709749807,-0.14829018840539113,-0.15743863087562443,-0.1664989451556677,-0.13052676031100532,-0.10093990074842588,-0.09382504989183592,-0.08351382415630883,-0.04433928926395905,-0.008452677442314408,0.017689378186250382,0.043688553231079834,0.07914451642233732,0.14007887357537815,0.2585711012513084,0.47312213114482454,0.7001722784180896,0.8529455372101956,0.8992651110286706,0.7780396873999438,0.3575067255298565,-0.24677527653688003,-0.6944089381127488,-0.805599412072372,-0.7249380676473621,-0.6130363772393277,0.0,0.0,0.0,0.0,0.0,0.0,0.0,0.0,0.0,0.0,0.0,0.0,0.0,0.0,0.0,0.0,0.0,0.0,0.0,0.0,0.0,0.0,0.0,0.0,0.0,0.0,0.0,0.0,0.0,0.0,0.0,0.0,0.0,0.0,0.0,0.0,0.0,0.0,0.0,0.0,0.0,0.0,0.0,0.0,0.0,0.0,0.0,0.0,0.0,0.0,0.0,0.0,0.0,0.0,0.0,0.0,0.0,0.0,0.0,0.0,0.0,0.0,0.0,0.0,0.0,0.0,0.0,0.0,0.0,0.0,0.0,0.0,0.0,0.0,0.0,0.0,0.0,0.0,0.0,0.0,0.0,0.0,0.0,0.0,0.0,0.0,0.0,0.0,0.0,0.0,0.0,0.0,0.0,0.0,0.0,0.0,0.0,0.0,0.0,0.0,0.0,0.0,0.0,0.0,0.0,0.0,0.0,0.0,0.0,0.0,0.0,0.0,0.0,0.0,0.0,0.0,0.0,0.0,0.0,0.0,0.0,0.0,0.0,0.0,0.0,0.0,0.0,0.0,0.0,0.0,0.0,0.0,0.0,0.0,0.0,0.0,0.0,0.0,0.0,0.0,0.0,0.0,0.0,0.0,0.0,0.0,0.0,0.0,0.0,0.0,0.0,0.0,0.0,0.0,0.0,0.0,0.0,0.0,0.0,0.0,0.0,0.0,0.0,0.0,0.0,0.0,0.0,0.0
0.7664501848239927,0.5366521761041654,0.009627974336043786,-0.46669955547727465,-0.7380794162661523,-0.7712937731126901,-0.6904453056075126,-0.6165710464434846,-0.3831971833789237,-0.20208685709077928,-0.10646095222373779,-0.00547124515065766,0.04647671152485278,0.10391501812480396,0.1971650121973308,0.2143192976335959,0.12214617353279622,0.1476552156485248,0.22432245224013542,0.22207341500339706,0.15910936748839874,0.0929679160140618,0.09026237995207957,0.13287319437165074,0.12400011247441915,0.07577984866544965,0.05784251720693169,0.030876678369857795,0.04332556760661956,0.10126516887411914,0.062490846512280096,-0.021534271193790356,-0.0025141206583433836,0.01970594941680109,0.005800717211742866,-0.12894832918889254,-0.2271739491749604,-0.1678231655995078,-0.17179231346728477,-0.18460406814818028,-0.15480811526542573,-0.17923362041105237,-0.20037993276267463,-0.21219088580279158,-0.263080786040855,-0.2562121200189366,-0.2611830285860974,-0.25378321822955385,-0.31571617015970344,-0.30778097631715523,-0.2904991587625155,-0.3667577977636061,-0.4064350229242393,-0.3520341092088725,-0.2792015966788142,-0.2726623233469964,-0.280967255566306,-0.2950330934901102,-0.2573593959387017,-0.2072810438443391,-0.18715950055721145,-0.15160022862830383,-0.10665313528408527,-0.04929086115027213,-0.018852610699001668,0.011894961270470452,0.10347055845059039,0.1681124220698568,0.1967349570370719,0.1348585361332,0.039966268487443724,0.030060703247641367,0.03249846439033048,-0.0011569935437090097,0.04406494722871101,0.13485450728660542,0.17435192859674692,0.2169997267735825,0.20224618167270333,0.15124126363779122,0.1638106128147155,0.14308119889580911,0.15861259270870065,0.17404856903670105,0.15605642929250713,0.18931851357625393,0.28891443451116394,0.33072073849964034,0.2238977916005617,0.22257729922163336,0.3236700439617879,0.4786925039677348,0.6815230866255014,0.4933045242282522,-0.04972880408768121,-0.6329460707359249,-0.8933004629892878,-0.8520327543191626,-0.6422980699015771,-0.38812602890432807,-0.2528581805400752,-0.11235394941821755,0.02135247896812682,-0.036261677722592325,-0.05514614320831545,0.03133866484411569,0.10221297361224706,0.15451276251058316,0.15198468613755253,0.15520787428264537,0.1672631274316744,0.1851765063625419,0.20899755522986235,0.19943388964725114,0.0,0.0,0.0,0.0,0.0,0.0,0.0,0.0,0.0,0.0,0.0,0.0,0.0,0.0,0.0,0.0,0.0,0.0,0.0,0.0,0.0,0.0,0.0,0.0,0.0,0.0,0.0,0.0,0.0,0.0,0.0,0.0,0.0,0.0,0.0,0.0,0.0,0.0,0.0,0.0,0.0,0.0,0.0,0.0,0.0,0.0,0.0,0.0,0.0,0.0,0.0,0.0,0.0,0.0,0.0,0.0,0.0,0.0,0.0,0.0,0.0,0.0,0.0,0.0,0.0,0.0,0.0,0.0,0.0,0.0,0.0,0.0,0.0,0.0,0.0,0.0,0.0,0.0,0.0,0.0,0.0,0.0,0.0,0.0,0.0,0.0,0.0,0.0,0.0,0.0,0.0,0.0,0.0,0.0,0.0,0.0,0.0,0.0,0.0,0.0,0.0,0.0,0.0,0.0,0.0,0.0,0.0,0.0,0.0,0.0,0.0,0.0,0.0,0.0,0.0,0.0,0.0,0.0,0.0,0.0,0.0,0.0,0.0,0.0,0.0,0.0,0.0,0.0,0.0,0.0,0.0,0.0,0.0,0.0,0.0,0.0,0.0,0.0,0.0,0.0,0.0,0.0,0.0,0.0,0.0,0.0,0.0,0.0,0.0,0.0,0.0,0.0,0.0,0.0,0.0,0.0,0.0,0.0,0.0,0.0,0.0,0.0,0.0,0.0,0.0,0.0,0.0,0.0,0.0,0.0,0.0,0.0,0.0,0.0,0.0,0.0,0.0,0.0,0.0,0.0,0.0,0.0,0.0,0.0,0.0,0.0,0.0
