0.18189694484502208,0.2579443912879417,0.3860875940649939,0.5467527040921337,0.7008080707088288,0.844971739911641,0.6337305087327323,0.3343175783524282,0.0444787647646975,-0.10544866906018828,-0.16113052279243348,-0.15192601919658427,-0.09414182621184336,-0.026885361800526187,0.04985664182557587,0.07417308129207227,0.10800645448530366,0.10574159716436103,0.10650491332296966,0.10705122411341543,0.0976161944505786,0.09125013698815526,0.09122494072961053,0.09755272657130504,0.1037265355720568,0.10323892102705083,0.0993598531680526,0.10839603345790054,0.0977639887138748,0.09680662904505843,0.09249532160713762,0.08809750880475056,0.07710223499666884,0.07907259890547584,0.06794094775270695,0.07304753495603422,0.07484259638209861,0.06355393822912478,0.05548348733371106,0.05715491719350636,0.062054376463044875,0.053889792453016484,0.048961900766423545,0.05053392013162803,0.0488315770418101,0.050376904602646634,0.05843237990550989,0.050185733305892925,0.04845476898726225,0.04346392164022278,0.05151187853289031,0.04652605548031912,0.05132328858446305,0.0561270627528036,0.057679229989218386,0.05923998537511003,0.05429130002647277,0.052611408141471215,0.04768171317967245,0.04927991482570023,0.041108979504256536,0.04598336951750285,0.03130904006357203,0.0199000179828804,0.011754990575707535,0.006872545642243095,-0.00452672336153469,-0.002888450634600423,-0.0142882063270822,-0.015911608340005313,-0.014276723902569403,0.00039645064091568377,0.005296156670716124,0.01020375214903967,0.002085385562374225,0.01679683222473927,0.031526243607675586,0.029980310911401895,0.03497730998195252,0.04000156005603192,0.04179651734021392,0.03710543803327217,0.045486552346329964,0.0408675389734475,0.039546903309376685,0.044785698985496544,0.04354822261657208,0.032576482458131786,0.028168140163107813,0.030324135219922613,0.02600801885061989,0.02825768550792307,0.020777092896685875,0.016603864141109842,0.02225689476709303,0.011661878717017935,0.017412012064343885,0.016692131014005438,0.01928010327507164,0.012138530101019923,0.005045099339747818,-0.005259809279175692,0.004038653599677607,0.006866159167325169,-3.6458583547137975e-05,0.006146094860306507,-0.0006605603705948469,0.002358842970085713,0.008685828174144917,0.005283283026325746,0.011707170446425006,0.008401684660790543,0.005144768067693322,0.008455009200561355,0.011813723443304386,0.015220807617625069,0.02193541133302826,0.009142113243624905,0.015952307598439415,0.016291105807540326,0.02319528179649188,0.026886345040392924,0.037141560176450136,0.03440425070236967,0.04474792039792943,0.05513415874462007,0.05578364334074968,0.05321333539592992,0.06371785277081413,0.06447980498234486,0.07179322523523457,0.059580770201717564,0.07672891028554994,0.04826996744269648,0.045904913523447256,0.04029581147925111,0.0249196777319256,0.009549886506328244,0.010478311141766837,-0.0016335887617561307,0.009061831132595713,0.003448197654943024,-0.005441917971037606,-0.011094585475496849,-0.003736045749958552,-0.00292529240810182,-0.005405781144323168,-0.017698625319498663,-0.007212682468261774,-0.009800677740649627,-0.002647037666314205,-0.0020469999875557822,-0.0014803679831599645,-0.0009453741797524137,0.0028192013874191613,-0.003221890788443222,-0.002770107602369215,0.0009175289917195796,-0.005193675369134644,-0.0048046129277592615,-0.004430865522757999,0.0057090007275910366,0.006063033929459114,-0.0033648752174693297,0.000244316666256805,-0.0026610815102189075,0.017256915786955963,0.01763168605314886,0.011504822058279471,0.01517714027025666,0.015615592925103578,0.016083615655239386,0.019844566015118536,0.0203837855718588,0.014445828526167234,0.011812394585501042,0.015746487515335705,0.026251740162754358,0.027035147360305014,0.018100131963932287,0.025524476505199803,0.0199775714558801,0.03405560493733336,0.03842773991109216,0.03635608762485917,0.05065843832615445,0.03896616335367016,0.04691180087723295,0.05494145710746297,0.05979756297807338,0.06800021028475015,0.07303194440968636,0.07815290630328213,0.09966011918189333,0.0919232902253742,0.1005723602927285,0.1093098853545385,0.11487516594526295,0.11726626790635325,0.11648068270343101,0.10599669175793903,0.11840373636494055,0.11784517885123087,0.11409415551479615,0.11366390157130853,0.1067705224835652,0.09992611467695284,0.1094201762935041,0.09613340428554697,0.09591012120217587,0.09896380293559118,0.09876675768380656,0.16375497152346905,0.2678438928612721,0.4273192054625049,0.6063162641702801,0.7591903516624251,1.0,0.9245693601216104,0.6762819748443332,0.3365898388664757,0.01953468404066504,-0.12173169845263185,-0.15895013319931298,-0.15733125656108407,-0.08429124894441238,-0.011529323691815372,0.041412303225550916,0.07454838226079832,0.10093070423120028,0.09775825679150467,0.09111920078923023,0.09080464899851433,0.09356801117181217,0.09942155489475342,0.1083770799129118,0.09763070586915,0.09978631208006236,0.10181692371884088,0.10047300259637566,0.08924518958251856,0.0844388061770446,0.08280285651526413,0.08434523439487583,0.07929548403003743,0.07743859904725148,0.07878124102634179,0.07355174878487858,0.06827462651632422,0.07273332251181662,0.07389576069442459,0.07828537245912133,0.056572789301462124,0.06742967141346587,0.06197010486136186,0.05649407569141195,0.057523324530095225,0.055282750251414665,0.053034211538428466,0.05403929066044358,0.05178136914645067,0.0625587413239234,0.060298388480036415,0.06129803324171095,0.059039913748989474,0.06330252093384565,0.06430817939016738,0.0587975209120767,0.050029479465637655,0.03800338317289005,0.03575555743415418,0.02372901906863977,0.011700412825544534,-0.0003316707602874513,0.0006685477696014648,-0.008115551038222937,-0.0038702239900611883,0.0,0.0,0.0,0.0,0.0,0.0,0.0,0.0,0.0,0.0,0.0,0.0,0.0,0.0,0.0,0.0,0.0,0.0,0.0,0.0,0.0,0.0,0.0,0
0.8535796663107927,0.6662374492897187,0.3734033080251663,0.08035013628627055,-0.11444505616473855,-0.16006378024886855,-0.1550450483948244,-0.10619343760225773,-0.03388682957195326,0.04490399086705929,0.08263838167791646,0.1065096631978168,0.10294664062985967,0.1025386970662018,0.0985076074187884,0.10105967638199212,0.10681268213141833,0.09879586356355996,0.10419903594887256,0.11284442713148575,0.10096570997961883,0.09914812906227656,0.10400633916808803,0.09856646536430662,0.09642718914313292,0.10778969066925834,0.10209056602923752,0.09972099978891047,0.09729260659500898,0.09821051947963086,0.10248237651665842,0.09652729074664633,0.09054292226454456,0.09132944003366683,0.08870151782680266,0.08266439825508917,0.08681091440280451,0.08755741807077509,0.08830486948116792,0.09585079956424232,0.10000725524999733,0.1143648636807122,0.10495563302983378,0.0955601440645943,0.08957640180296532,0.07681389948146787,0.08444877590162211,0.08190764137734714,0.0623957434449605,0.0496909965592158,0.04718895222505405,0.03450585402615535,0.021830786058081798,0.012558642896760171,0.006687201469004359,-0.002579841081951361,-0.011847795563332344,-0.007530702211913408,-0.010011560675716494,0.0010914467561373893,-0.014985064020494682,-0.020873287177790443,-0.009777069763488714,-0.008868360814872042,0.0022399383849605018,-0.00022534139018608594,0.010917746861539759,0.015293052616865753,0.02649445571561091,0.02074866608532296,0.025237388609009512,0.029775130979339568,0.04116131717795184,0.04241616284455228,0.047132754268904,0.0519189231840431,0.04998525716405177,0.048130118169126566,0.06334264371872587,0.061656603253978724,0.043075534454621214,0.04496976016438138,0.040166226440846234,0.028667722454262443,0.03425589601002249,0.02975712414716805,0.032158723062634106,0.031271792206274365,0.030495304215057494,0.023037049881443408,0.029280735482831482,0.01865482468363316,0.02173378765786868,0.02493089086806149,0.028247326088527005,0.02149313495357862,0.011463260336812069,0.0219375801220612,0.012152753468389359,0.00928549975061064,0.02352743510385894,0.024306027293578614,0.03200375387577696,0.0398269029148643,0.044378610951664114,0.052452840878032994,0.057255299712042525,0.05538844070274245,0.06723349028896188,0.06561327903477053,0.06751141177416001,0.05594108032290103,0.058076249377078885,0.05692949349000381,0.052498139309651935,0.054970254322079685,0.0473575755611864,0.04664165016142541,0.029039686527181436,0.035311821263057146,0.03148385888120609,0.03453655476241402,0.03427443890671175,0.03748691110726909,0.02378713182360076,0.030537218498769583,0.05093805920280582,0.040823295872638964,0.040951528134466696,0.044523032565451384,0.051531897975479864,0.05178096507372836,0.05545486788097869,0.06934097301800463,0.0628592763842324,0.07676660557305695,0.07708528698747483,0.07739538213001065,0.08787955858157148,0.09494103747987574,0.08498260056484894,0.07497963132787229,0.06831905436659381,0.12273955530342592,0.20765725729076245,0.3638248481820545,0.550465773660085,0.6996255923219358,0.8180812973298359,0.8378721968240372,0.6808424830527567,0.4013154902153475,0.08078721626020767,-0.1313081775380643,-0.18065317170606324,-0.15898913778636803,-0.09010011536659404,-0.0011520485614493633,0.05691861855903984,0.10790973826347727,0.1246637507996352,0.1343746927895157,0.130265892584541,0.1259420576337648,0.1248162185712301,0.13030077632069156,0.1356164822392634,0.1305864276849955,0.1424001193805349,0.14049726669828644,0.1384779774474314,0.14654464845563506,0.14772291619921468,0.1454197354023408,0.14304132217460275,0.13380214004136526,0.13809200528284254,0.12534493774081018,0.1227434112151208,0.09972012836283464,0.0936473480276071,0.07395666054880046,0.07122534094232302,0.07186918400340693,0.06230362840057944,0.042531787437178135,0.036335522364676534,0.036923405318967664,0.037503826758332734,0.03807900951439146,0.0318569719092646,0.02563357585075553,0.02620452396180809,0.016586331231208725,0.020559483567315046,0.01434626501427255,0.01832996725618229,0.0019386828180816985,0.00254058247882332,-0.0036423255894407146,0.003773064519902571,-0.005784922693341411,-0.0051388371765861965,-0.00787478125178025,-0.007196318080244772,0.003693737280917925,-0.005773840022185055,-0.005022140398846829,0.002556209304615886,0.003378033859676564,0.011036213218222669,0.00515352549014669,0.016307821032013517,0.017327780014656936,0.02520311150717893,0.046732412454233714,0.051347060337909686,0.052639309415606315,0.06080414871423881,0.07244827008344502,0.0773840443617541,0.08240852262225752,0.08073033503709476,0.07914573371652239,0.0810535586239393,0.08305823700371058,0.07836678233722562,0.08056784378578423,0.06927959372494882,0.07847193761398398,0.07757127310571682,0.07337069894029467,0.06586890901113415,0.06185824734852231,0.06813072863820112,0.06769899880839786,0.07075143109515712,0.0704910177636166,0.06691441431212368,0.05662091528875424,0.06338554863097323,0.0600279317439306,0.04654343306649368,0.039912163373783865,0.019746907276749014,0.020012385748441167,0.016924076609272382,0.00707940858882133,0.0006637597770139305,0.0044654643715506,0.0014937937850548833,0.00533107355947157,-0.001013454688866593,-0.003957499542351515,-0.00010969879072734858,-0.009857373727559649,-0.0026327077972903177,-0.012410109402325916,-0.012017583924546034,-0.008252042737262677,-0.014703272533680155,-0.0007991656255693549,-0.0073033959126443965,-0.0002453744798684729,-5.954512514156739e-06,0.003607110571364675,0.0038010254434800265,0.01756203620626898,0.004127225538937739,0.0008647836997105405,-0.005812247117054589,0.0010822474157249702,0.001167840341599717,-0.0021568412408389786,0.0013008409181636722,0.0013516789971849278,0.0,0.0,0.0,0.0,0.0,0.0,0.0,0.0,0.0,0.0,0.0,0.0,0.0,0.0,0.0,0.0,0.0,0.0,0.0,0.0,0.0,0.0,0.0,0.0,0
0.8395572532176744,0.6533164417026824,0.3461704583388284,0.04532974983081621,-0.13178512192387795,-0.18521166913576706,-0.1573902182335061,-0.061379038672372814,-0.008102987386278638,0.008976757158778256,0.032289684115369026,0.06511262193253227,0.06504418582118182,0.035360717218825916,0.034804438086684486,0.053600315897834906,0.0558714002233332,0.05468124240733886,0.036991370557179284,0.048491963103589504,0.07940680777581076,0.07754411603854351,0.0755423699319,0.09625150982047567,0.10052945664241757,0.07533539395815472,0.07288236238041022,0.06707779420544452,0.05793050119753701,0.04544895973199605,0.04921766444149722,0.06271913883408622,0.07617294234450771,0.06348473088691772,0.0507632672704224,0.038015253000642346,0.03503528972179856,0.032041481091973675,0.02577719156275941,0.039087369258172855,0.055664217596526684,0.036360718664435285,0.02359752585189673,0.027167930895527083,0.0242379276945242,0.044176862068093466,0.03478600902132985,0.03522252625442646,0.035702627762848146,0.029705069414407217,0.02049658251871378,0.02113190381496731,0.028352077634560286,0.035635324664387166,0.033197005845975375,0.043879483794017626,0.061160493273367526,0.08830570360639617,0.06006340062845195,0.058003737970414325,0.06581502939679344,0.08023617059332498,0.07190398429076672,0.08323468770855873,0.0979152148165998,0.10615751938130802,0.08512219365311166,0.0870118127493563,0.10529960244679924,0.10083117361334537,0.08339238039357026,0.09213303464099136,0.0944227355776889,0.09678323758031633,0.06984592507708161,0.046233340294603534,0.052042240259917605,0.05790294508871696,0.04097095065545121,0.037130387049464135,0.039849845700620834,0.026284142461956702,-0.003573080167869326,-0.020363849246100747,-0.027357032237153973,-0.02129412606980913,-0.018490336664657082,-0.012419821105459788,-0.0063431338489326325,0.0062685044861506434,-0.007208139941014409,-0.017404690599156246,0.005047913816291169,0.024266028355923397,0.01741685477068236,0.007345525271072428,0.013634366998345205,0.033026644471273785,0.03290109217198643,0.029577049224072036,0.03611097226067977,0.052508298089797116,0.06898612900961365,0.04639684291201868,0.04347401230762258,0.06022205399320143,0.04770439762078663,0.0418148393415902,0.04581975693504724,0.07277347306133278,0.07047572158225965,0.042192078236916175,0.043391254145444716,0.06428738976801884,0.07878081868364714,0.054246117064431484,0.04615085277280991,0.05775883468097307,0.08254548695191108,0.06830789316473625,0.0803005716303656,0.07284528763096848,0.06551776464543357,0.055054336031359175,0.061030033452372484,0.06712971546565294,0.07987696137306466,0.08295598893304232,0.08288964241406582,0.08620035130467027,0.08962197669024205,0.08662523066943212,0.08699396715590232,0.0874607349972456,0.0945458020261556,0.08866725489182004,0.08286988736420504,0.10324892181691793,0.1269583964994458,0.10831280752181464,0.08971940179649761,0.10705944870197227,0.12769669133515102,0.13530792742059686,0.12988290612431044,0.13098700798252866,0.15165952814699968,0.13968474713485438,0.14072772671494893,0.1613002144126572,0.2340149979945505,0.3555941608913605,0.5260213344438074,0.6996003202321032,0.8338950077147657,0.8832030703637332,0.8116061661308415,0.5799188189675959,0.2794602141938259,-0.011504234404649677,-0.18208333049329392,-0.1964272984898157,-0.15244050227966058,-0.09254243941027647,-0.023248227746627617,0.06524939630296044,0.1305564171521362,0.15964295483237628,0.14600391256302914,0.13859960109331007,0.16681329324299798,0.15888331129952138,0.0,0.0,0.0,0.0,0.0,0.0,0.0,0.0,0.0,0.0,0.0,0.0,0.0,0.0,0.0,0.0,0.0,0.0,0.0,0.0,0.0,0.0,0.0,0.0,0.0,0.0,0.0,0.0,0.0,0.0,0.0,0.0,0.0,0.0,0.0,0.0,0.0,0.0,0.0,0.0,0.0,0.0,0.0,0.0,0.0,0.0,0.0,0.0,0.0,0.0,0.0,0.0,0.0,0.0,0.0,0.0,0.0,0.0,0.0,0.0,0.0,0.0,0.0,0.0,0.0,0.0,0.0,0.0,0.0,0.0,0.0,0.0,0.0,0.0,0.0,0.0,0.0,0.0,0.0,0.0,0.0,0.0,0.0,0.0,0.0,0.0,0.0,0.0,0.0,0.0,0.0,0.0,0.0,0.0,0.0,0.0,0.0,0.0,0.0,0.0,0.0,0.0,0.0,0.0,0.0,0.0,0.0,0.0,0.0,0.0,0.0,0.0,0.0,0.0,0.0,0.0,0.0,0.0,0.0,0.0,0.0,0.0,0.0,0.0,0.0,0.0,0.0,0.0,0
0.305428658692609,0.4745046035270836,0.6794275494698367,0.8451401903937871,0.8639546431843161,0.6542805429056853,0.3400744379026082,0.02897601519219015,-0.12896140477592827,-0.15008326366610464,-0.11271439352384167,-0.05275003467986797,0.013501588312345695,0.05342367222772909,0.08007739812297457,0.08368465404156111,0.0675177995798926,0.08052682770080681,0.07377985422877711,0.0668616700386949,0.05325495322634933,0.04601835548905245,0.054947544264371324,0.0343717511534547,0.020187882644201755,0.022190929485924972,0.027336755593671498,0.032369267882777567,0.0014050567350127453,-0.003557909764826776,0.020749405713151675,0.022130172755627703,0.0038536629468928158,0.014867089010078903,0.03886328470042561,0.04974685548279074,0.03121036646054508,0.03220049370235935,0.04946026946541007,0.05363082112457382,0.03166661867827431,0.0292507877004492,0.04965096162721741,0.040668421896118384,0.021883997359418685,0.01614103151225408,0.0495454764147524,0.050321663872517665,0.005422601693391392,-0.016631004298632433,-0.006047399122188163,0.014339572299709504,0.005383049622068111,0.002978614456547765,0.016920077619729357,0.02111133720035386,0.01229523258162632,0.01331624146989662,0.050281498080330535,0.06446740243743564,0.03956543696295437,0.02778383942617318,0.058491623874341675,0.07948971581104032,0.07773136410147675,0.07279660001206817,0.09405322010734772,0.12192788719416545,0.12053320388837645,0.1094473689110406,0.1049852603322194,0.11041033704521436,0.08657019921229997,0.10850702441832596,0.11749112001301225,0.1167838925255554,0.0965952890896362,0.06997369881432491,0.06301789977216188,0.06267370434744676,0.05588660983498028,0.05570354404087235,0.0588575654132894,0.058818735897698725,0.02295507927190956,-0.00632316112543429,0.0003432713289990991,0.01358531022922888,0.03339834931772738,0.033675970530584826,0.02093876866193355,0.004969888111031985,-0.014235785371641515,-0.0073189290202394595,-0.0036477913989235843,-0.006488181893767749,-0.019105563350662828,-0.012137602388430995,-0.00516092037205905,0.005088040300545253,-0.01075385233087918,-0.023320831937175285,-0.013034264528151094,0.01032223750060955,0.02717814605371642,0.02122559940957067,0.04141095965542052,0.05837525111102423,0.05581016298125721,0.0369834005046125,0.04431500568851469,0.07780950181866046,0.05590324098124616,0.034066341584071666,0.0514550525938375,0.07870837496097995,0.0897277703456511,0.061677024851107,0.056550143551202636,0.07108646343509126,0.07266057687639844,0.0645366186512001,0.06302923217260313,0.08445273817062117,0.10270580842438164,0.0982121284192788,0.0938102039163901,0.08297358775134098,0.07222623564865273,0.05830353450997116,0.05751681801563713,0.08291441034334014,0.10186629629697533,0.09479291804830156,0.08452954224232155,0.08412280760451113,0.10335621222765597,0.09980934583084182,0.0963156410516708,0.1059198775260791,0.1188273274169456,0.11219186134784603,0.08926849968554994,0.08593888168730855,0.09566886646314944,0.0988730114887761,0.08901626783547513,0.0954529900442432,0.1573252415296744,0.2387320947868985,0.3429244515045841,0.4959910456057776,0.6685526906466274,0.8377531561980112,0.9122157913827972,0.7646698587233048,0.4799167286865234,0.1460166663751273,-0.0967689749321907,-0.15385762382977386,-0.12642059495807914,-0.09930099655840527,-0.05618566938118443,-0.00032832849204940276,0.04218362278710645,0.0485255303105753,0.03176242684930288,0.034323564411393045,0.052959984403111136,0.04526994079315391,0.047156654389788936,0.048845067861875535,0.0,0.0,0.0,0.0,0.0,0.0,0.0,0.0,0.0,0.0,0.0,0.0,0.0,0.0,0.0,0.0,0.0,0.0,0.0,0.0,0.0,0.0,0.0,0.0,0.0,0.0,0.0,0.0,0.0,0.0,0.0,0.0,0.0,0.0,0.0,0.0,0.0,0.0,0.0,0.0,0.0,0.0,0.0,0.0,0.0,0.0,0.0,0.0,0.0,0.0,0.0,0.0,0.0,0.0,0.0,0.0,0.0,0.0,0.0,0.0,0.0,0.0,0.0,0.0,0.0,0.0,0.0,0.0,0.0,0.0,0.0,0.0,0.0,0.0,0.0,0.0,0.0,0.0,0.0,0.0,0.0,0.0,0.0,0.0,0.0,0.0,0.0,0.0,0.0,0.0,0.0,0.0,0.0,0.0,0.0,0.0,0.0,0.0,0.0,0.0,0.0,0.0,0.0,0.0,0.0,0.0,0.0,0.0,0.0,0.0,0.0,0.0,0.0,0.0,0.0,0.0,0.0,0.0,0.0,0.0,0.0,0.0,0.0,0.0,0.0,0.0,0.0,0.0,0
0.18293577005513048,0.2596981744447196,0.3772307866833539,0.5540611793315746,0.723432987909185,0.8779137217252599,0.958156459340662,0.9270573812833344,0.7475078772989219,0.4268896849175404,0.06898660078456803,-0.13342974676028888,-0.17298383710772985,-0.15352493150095362,-0.09360380683182833,-0.02658831614752195,0.03641007140213506,0.07315866678950232,0.08367209047227052,0.0679645971147964,0.07054500609236063,0.06547140709424548,0.06017277438823504,0.05466192437318175,0.05265928784001401,0.050469191758142365,0.033271954032694,0.02332679278231766,0.02064526823020372,0.021530908709630252,0.011163393559690342,0.015509362280361563,0.027164161251121557,0.031307228792740234,0.039073274196817366,0.04676518919501639,0.06922524643237002,0.06196884063279615,0.054669325512941284,0.03992059238576843,0.05481124228898937,0.07710303256218545,0.06972578546493424,0.06976724286061117,0.06611189965633978,0.0773072239706135,0.0736974550351031,0.06270559810483968,0.06287803571542341,0.07051334533877557,0.06337021377689862,0.05628612782454875,0.052974511657569064,0.06085642327711153,0.061397249020133424,0.04718581670931976,0.04418188448464275,0.07092914404509493,0.0792285915731816,0.06537585167706435,0.07016113589332318,0.07504768478411115,0.06520630336184985,0.0628865739600173,0.06438234608893842,0.07711090059391253,0.07882587436092406,0.08435967128093487,0.07888097906795068,0.0920530467089973,0.09050416943508836,0.0853571652833805,0.08773439977018302,0.08651032009029068,0.07797476527839525,0.08437254860922441,0.07974519515635489,0.08633670645794486,0.09301944802264432,0.06641786213988259,0.04731423112080976,0.05424301365157685,0.057535533519854826,0.042354504322038536,0.023525674024439502,0.008458748308951556,0.008271230485046419,-0.010414401502922162,-0.014233236459688166,-0.010606441637271294,-0.014369662642123441,-0.010694215421156795,-0.029245033874708774,-0.01069606980989892,0.011583621845670435,0.00422600229102891,0.01543711043795377,0.03409631997304223,0.04537501214139117,0.03444439770649752,0.03467835888412199,0.034955622596660185,0.04269431865445368,0.0430649105540427,0.036069309344166384,0.051372532796595316,0.06302068949733286,0.059891292193510526,0.04940111480855256,0.04638246232131829,0.0545436469372489,0.04792942690188952,0.048787186069875116,0.060824492368965914,0.06550117825530348,0.05169260257446365,0.04906086448155948,0.046480736853262566,0.051366323541662366,0.05259191971542375,0.050155309479437984,0.03663818346710168,0.04540904935069241,0.05792541802829785,0.03710499707301871,0.049686831597410636,0.04746440825465457,0.0378496941029941,0.028254418878631414,0.03350595358119428,0.03135237537873566,0.029204915957124888,0.030766734984406307,0.0249091850802523,0.0264588718222966,0.031702699962507304,0.02951161144659735,0.023588050730571943,0.0287580604802232,0.02276841286160912,0.005613227786173529,-0.007881827652911963,0.00823263133922944,-0.0016673972997553635,-0.011631821164519364,-0.017957880982660195,-0.020649627714712904,-0.016001491066571075,-0.026261345821131613,-0.021764733036367487,-0.009923851501878831,0.0018511676423725297,0.002443220766369576,0.010398517031841279,0.0331395076165687,0.0410094391462673,0.030306799340750794,0.026993192920221374,0.03478258153519615,0.042557130846435434,0.057738408881531984,0.061792364090788025,0.06955589353599365,0.0736180937814303,0.0628597983559636,0.055824794745574585,0.05622489511346023,0.056647886730999575,0.06451293676888815,0.05015977659890746,0.065501950659012,0.07346278644552026,0.055504860224737586,0.045001194532309635,0.04566121233199653,0.038946620045897516,0.04339804834953058,0.0404767806258329,0.033891374803188226,0.042181847449869116,0.039393062605897734,0.02181716493774713,0.01911733945010949,0.02758542475832012,0.0323894181231728,0.029820924646181707,0.01987930273771835,0.03964291426301141,0.026076309780178747,0.012549638287415944,0.010185426865681356,0.03010613984774187,0.027815461800009347,0.025559401365261063,0.015920506061380922,0.017436602400882267,0.03381377626995597,0.013139297532560108,0.011029809406264609,0.02748316057293093,0.010586330982100996,0.004831959822162646,-0.0009060954893717859,0.004493489840899184,-0.0049270258740318155,-0.025462084741037123,-0.03486608451979085,-0.014598919327864585,0.0019720154119268547,0.00743611796574116,0.012922353019399138,0.025851732822183643,0.03510562873187209,0.04810485912731788,0.05743840583543866,0.05569501015885616,0.07254227876764327,0.08202881101760147,0.08045033508882657,0.06781008427330733,0.08860587268273347,0.0983452092356202,0.08590639712465188,0.09949389191163513,0.1094454992514821,0.11205393412128163,0.1221509405503665,0.11007271922702228,0.12031316520379247,0.1194994027947154,0.12987668358722426,0.11436301757656953,0.13228156202923258,0.13171744471816574,0.1349134371274719,0.13074041485049806,0.15627147724073007,0.17071284957467067,0.1925966198666048,0.2849490056379461,0.4255132105402037,0.5920310134798584,0.7325787437497538,0.865680160350679,0.9431128847826392,0.8869868880972533,0.6787340698768859,0.3405689625848881,0.02447973897244365,-0.12125504631002496,-0.14858438483198455,-0.1391090709810865,-0.09284164799756628,-0.006073528503967934,0.03592272869097109,0.05540468418621474,0.06350597319923912,0.0676520386681513,0.06785217548929595,0.0455757640190841,0.037910574192270105,0.05228082601720373,0.06273931264583155,0.04704648108191769,0.031165362959987637,0.0,0.0,0.0,0.0,0.0,0.0,0.0,0.0,0.0,0.0,0.0,0.0,0.0,0.0,0.0,0.0,0.0,0.0,0.0,0.0,0.0,0.0,0.0,0.0,0.0,0.0,0.0,0.0,0.0,0.0,0.0,0.0,0.0,0.0,0.0,0
0.10880138733902343,0.149305539584145,0.2536781105812768,0.3916416581166121,0.5799983897244055,0.7447496411775791,0.9060556845343348,1.0,0.7037164877390982,0.37364443820187976,0.06691950080353347,-0.12233239329688785,-0.1571553338490108,-0.14518746616512965,-0.10661601497196696,-0.021259339496718245,0.04363833872598729,0.08473034955832147,0.10539565011913576,0.11573861932390735,0.109048495488929,0.09879147458251727,0.11188489822725828,0.10798715960462987,0.10392577878279363,0.10643896772155252,0.1121756505792554,0.10769545114685206,0.11654958230309374,0.11857072303504787,0.11376850592699098,0.10887781615795776,0.11063297006445348,0.10895312597296876,0.11057150266607747,0.10876908326397684,0.11364091165028395,0.11174102879389228,0.11652628925263105,0.11791252980987785,0.12599254096268458,0.1105034509552128,0.11516605800102794,0.11307923058851865,0.11097048861765094,0.09202632752293063,0.08651360602503506,0.06752903640182888,0.06197566195013465,0.056401115631351875,0.05080441142531718,0.03509551313372861,0.026087512329721164,0.02714163421211709,0.02480435992124297,0.02243664851018825,0.00994764411349557,-0.005939007696601184,0.005040747983218509,-0.007558615118475823,-2.0812199625473314e-05,-0.002613140321844109,-0.011973667327718708,-0.01128852191475869,-0.010646077075571357,-0.013407787944808442,-0.009482407383052468,-0.015680796304525308,-0.008457842104506088,0.0021038302555073107,0.012648244757390544,0.00973064669130769,0.020261290796440158,0.024069465020121174,0.037976505969284376,0.03844855721329698,0.05239541330179788,0.046194067506278,0.0568426283290838,0.057443441542675534,0.06481656412079986,0.058789615853941185,0.05954496514000453,0.0637242273595082,0.06796872016814484,0.0655565198762836,0.06321705384743981,0.05759065348996908,0.052043179575331305,0.0600289730942792,0.05128411940723958,0.0459882445925752,0.05086902741130473,0.03566176671716935,0.033997038778321734,0.04251309158802657,0.03430754408504722,0.02955872078130375,0.028267238305875162,0.02370772004586301,0.02596926167311109,0.031689149424115916,0.04423038513743907,0.04677827586077449,0.04942128928338446,0.05888473647896515,0.048264454172898666,0.05791443915062003,0.06092999239155801,0.05730950709643984,0.040325226367657147,0.0570558703470544,0.0503293531005543,0.05040929424358382,0.037115220882002836,0.03398440348962793,0.014110086101369771,0.014480874589669996,0.01155269524117792,0.005321861007477307,-0.0008524501991376654,-0.0002481643514910523,-0.006320662784758603,0.0011039239833650137,0.0018449932079085388,-0.004100527030598663,-0.0032840269798462885,-0.002434043682576701,-0.008278802198969124,-0.0006429145615587456,0.003657643717273704,-0.012193041797969038,-0.007841217519827894,-0.0068275032814213675,-0.01587716037926974,-0.0013597288068403711,-0.0036275401594734508,0.0008627349012761015,0.0020255430883008873,-0.00013590502662069108,0.004470359173134607,0.00239585814586018,0.017184241964108057,0.015209462409964422,0.013289226207107076,0.01142655041096793,0.009624385630847776,-0.002203142829264889,-0.0005127305454422324,0.01469867713550509,0.019893724506860968,0.02516420961039113,0.010335526501557987,0.02249139789851115,0.024642426737098586,0.033605867083166915,0.039295467996934966,0.041713578681846435,0.044225274588191685,0.05355834532255451,0.05962574574421185,0.06242893109327422,0.06196905848112344,0.061609895598672526,0.07816659118828925,0.08809891325262208,0.08804377530648419,0.09817810943942977,0.10504918028026884,0.11538129791238468,0.1258094790006989,0.1296052405794566,0.14021700698062867,0.14755209544067546,0.15833173573195625,0.17927641986635287,0.17338785278264074,0.17428822024541782,0.1752437683897771,0.18297156280645716,0.18737317924642086,0.18507512405119045,0.1794288121447655,0.1737847330755253,0.16812955652360145,0.17253785141802047,0.19372042331583944,0.2383872150848583,0.3199730464391337,0.45191154515664705,0.6039167437357192,0.7591521060136927,0.8705117717265101,0.8976119302979575,0.8000644185929626,0.5610170444861079,0.2443237609103663,-0.04580921159627115,-0.19508810594205736,-0.2136429439550538,-0.16875490040443225,-0.10750731763456804,-0.0029832063421895948,0.07758279969392076,0.11740019096238465,0.15348483362481344,0.16568232053068846,0.1506520907262568,0.15213367298477745,0.1533332337836942,0.1374561789320856,0.1381509884356627,0.1318957687080669,0.13216008537405174,0.12550946278603298,0.13213799173786708,0.13860990823422878,0.13148878758983396,0.13769258476009852,0.13033183366951195,0.11950852974569433,0.10859817130872364,0.11106442730858927,0.10337827373836966,0.09900228123506097,0.09122096719917007,0.06995543129561098,0.08229600339563657,0.07780790459192719,0.0834031671534417,0.07218667072262755,0.06098087334052454,0.049793258493884864,0.0554456183860279,0.061130269012112874,0.060128017311767326,0.05244521002164732,0.048176661410882615,0.04732815534999235,0.03981646665362834,0.0390985925649729,0.031727949451380966,0.031161139980738762,0.02731414911187777,0.0201915741704899,0.01988664408408173,0.026403718649728708,0.026295367334538525,0.0,0.0,0.0,0.0,0.0,0.0,0.0,0.0,0.0,0.0,0.0,0.0,0.0,0.0,0.0,0.0,0.0,0.0,0.0,0.0,0.0,0.0,0.0,0.0,0.0,0.0,0.0,0.0,0.0,0.0,0.0,0.0,0.0,0.0,0.0,0.0,0.0,0.0,0.0,0.0,0.0,0.0,0.0,0.0,0.0,0.0,0.0,0.0,0.0,0.0,0.0,0.0,0
0.18189694484502208,0.2579443912879417,0.3860875940649939,0.5467527040921337,0.7008080707088288,0.844971739911641,0.6337305087327323,0.3343175783524282,0.0444787647646975,-0.10544866906018828,-0.16113052279243348,-0.15192601919658427,-0.09414182621184336,-0.026885361800526187,0.04985664182557587,0.07417308129207227,0.10800645448530366,0.10574159716436103,0.10650491332296966,0.10705122411341543,0.0976161944505786,0.09125013698815526,0.09122494072961053,0.09755272657130504,0.1037265355720568,0.10323892102705083,0.0993598531680526,0.10839603345790054,0.0977639887138748,0.09680662904505843,0.09249532160713762,0.08809750880475056,0.07710223499666884,0.07907259890547584,0.06794094775270695,0.07304753495603422,0.07484259638209861,0.06355393822912478,0.05548348733371106,0.05715491719350636,0.062054376463044875,0.053889792453016484,0.048961900766423545,0.05053392013162803,0.0488315770418101,0.050376904602646634,0.05843237990550989,0.050185733305892925,0.04845476898726225,0.04346392164022278,0.05151187853289031,0.04652605548031912,0.05132328858446305,0.0561270627528036,0.057679229989218386,0.05923998537511003,0.05429130002647277,0.052611408141471215,0.04768171317967245,0.04927991482570023,0.041108979504256536,0.04598336951750285,0.03130904006357203,0.0199000179828804,0.011754990575707535,0.006872545642243095,-0.00452672336153469,-0.002888450634600423,-0.0142882063270822,-0.015911608340005313,-0.014276723902569403,0.00039645064091568377,0.005296156670716124,0.01020375214903967,0.002085385562374225,0.01679683222473927,0.031526243607675586,0.029980310911401895,0.03497730998195252,0.04000156005603192,0.04179651734021392,0.03710543803327217,0.045486552346329964,0.0408675389734475,0.039546903309376685,0.044785698985496544,0.04354822261657208,0.032576482458131786,0.028168140163107813,0.030324135219922613,0.02600801885061989,0.02825768550792307,0.020777092896685875,0.016603864141109842,0.02225689476709303,0.011661878717017935,0.017412012064343885,0.016692131014005438,0.01928010327507164,0.012138530101019923,0.005045099339747818,-0.005259809279175692,0.004038653599677607,0.006866159167325169,-3.6458583547137975e-05,0.006146094860306507,-0.0006605603705948469,0.002358842970085713,0.008685828174144917,0.005283283026325746,0.011707170446425006,0.008401684660790543,0.005144768067693322,0.008455009200561355,0.011813723443304386,0.015220807617625069,0.02193541133302826,0.009142113243624905,0.015952307598439415,0.016291105807540326,0.02319528179649188,0.026886345040392924,0.037141560176450136,0.03440425070236967,0.04474792039792943,0.05513415874462007,0.05578364334074968,0.05321333539592992,0.06371785277081413,0.06447980498234486,0.07179322523523457,0.059580770201717564,0.07672891028554994,0.04826996744269648,0.045904913523447256,0.04029581147925111,0.0249196777319256,0.009549886506328244,0.010478311141766837,-0.0016335887617561307,0.009061831132595713,0.003448197654943024,-0.005441917971037606,-0.011094585475496849,-0.003736045749958552,-0.00292529240810182,-0.005405781144323168,-0.017698625319498663,-0.007212682468261774,-0.009800677740649627,-0.002647037666314205,-0.0020469999875557822,-0.0014803679831599645,-0.0009453741797524137,0.0028192013874191613,-0.003221890788443222,-0.002770107602369215,0.0009175289917195796,-0.005193675369134644,-0.0048046129277592615,-0.004430865522757999,0.0057090007275910366,0.006063033929459114,-0.0033648752174693297,0.000244316666256805,-0.0026610815102189075,0.017256915786955963,0.01763168605314886,0.011504822058279471,0.01517714027025666,0.015615592925103578,0.016083615655239386,0.019844566015118536,0.0203837855718588,0.014445828526167234,0.011812394585501042,0.015746487515335705,0.026251740162754358,0.027035147360305014,0.018100131963932287,0.025524476505199803,0.0199775714558801,0.03405560493733336,0.03842773991109216,0.03635608762485917,0.05065843832615445,0.03896616335367016,0.04691180087723295,0.05494145710746297,0.05979756297807338,0.06800021028475015,0.07303194440968636,0.07815290630328213,0.09966011918189333,0.0919232902253742,0.1005723602927285,0.1093098853545385,0.11487516594526295,0.11726626790635325,0.11648068270343101,0.10599669175793903,0.11840373636494055,0.11784517885123087,0.11409415551479615,0.11366390157130853,0.1067705224835652,0.09992611467695284,0.1094201762935041,0.09613340428554697,0.09591012120217587,0.09896380293559118,0.09876675768380656,0.16375497152346905,0.2678438928612721,0.4273192054625049,0.6063162641702801,0.7591903516624251,1.0,0.9245693601216104,0.6762819748443332,0.3365898388664757,0.01953468404066504,-0.12173169845263185,-0.15895013319931298,-0.15733125656108407,-0.08429124894441238,-0.011529323691815372,0.041412303225550916,0.07454838226079832,0.10093070423120028,0.09775825679150467,0.09111920078923023,0.09080464899851433,0.09356801117181217,0.09942155489475342,0.1083770799129118,0.09763070586915,0.09978631208006236,0.10181692371884088,0.10047300259637566,0.08924518958251856,0.0844388061770446,0.08280285651526413,0.08434523439487583,0.07929548403003743,0.07743859904725148,0.07878124102634179,0.07355174878487858,0.06827462651632422,0.07273332251181662,0.07389576069442459,0.07828537245912133,0.056572789301462124,0.06742967141346587,0.06197010486136186,0.05649407569141195,0.057523324530095225,0.055282750251414665,0.053034211538428466,0.05403929066044358,0.05178136914645067,0.0625587413239234,0.060298388480036415,0.06129803324171095,0.059039913748989474,0.06330252093384565,0.06430817939016738,0.0587975209120767,0.050029479465637655,0.03800338317289005,0.03575555743415418,0.02372901906863977,0.011700412825544534,-0.0003316707602874513,0.0006685477696014648,-0.008115551038222937,-0.0038702239900611883,0.0,0.0,0.0,0.0,0.0,0.0,0.0,0.0,0.0,0.0,0.0,0.0,0.0,0.0,0.0,0.0,0.0,0.0,0.0,0.0,0.0,0.0,0.0,0
0.370433275553846,0.5019126223652346,0.6612902772074523,0.8099927166631942,0.9444877113512256,0.9385828802206324,0.7186480205131275,0.3862712389933021,0.043037049185644695,-0.17092290620534972,-0.22761992122029104,-0.1901650134910848,-0.12515203680586656,-0.032572038350323435,0.05605568369464357,0.11622384558926825,0.1479561036565849,0.15477999314914515,0.1472312296364737,0.13934921483687476,0.14166815426375876,0.14369479639198846,0.14194410145314626,0.14344369135106932,0.13769817802535966,0.13173375644089008,0.13608039312038905,0.13673617557658346,0.12670743101772566,0.12353102331240905,0.11670750240210735,0.11325910081690532,0.11670300750062985,0.11653800490662147,0.10226229197318296,0.101922545484794,0.09450249023203612,0.09753440192896486,0.06897426294850942,0.07541582950270248,0.07130979137240309,0.08119566223423445,0.07354123843593338,0.06938081107810935,0.06521708321396047,0.06456133109012059,0.060411124721570585,0.06328601156036373,0.05216509656421932,0.05508960894323717,0.04052469625335893,0.04351997152864771,0.043053484399756016,0.028616447043715288,0.024744456857590767,0.027937287766247744,0.017172289728539198,0.023993573748063,0.027378264235784683,0.013312285732292085,0.023852786666781287,0.02045426778587109,0.031155851498413142,0.031429657210736275,0.035296709086113286,0.03925557389580301,0.03630018187877311,0.047459947386086464,0.06222396282918623,0.05956770317354184,0.06402431289850115,0.07209095825493134,0.08026448537213521,0.08153691987587859,0.09693556645946516,0.08440704125417843,0.07198667668838155,0.08770938315523122,0.07900712999335219,0.09143632935932984,0.08294149715545994,0.08155589307730304,0.0732588415279869,0.07556939956988408,0.06395273738621231,0.059431627946884225,0.0479839239706696,0.040118401359417515,0.0288212958516292,0.017592022740035868,0.013434313259634954,0.012838430539073428,0.00178119038919518,-0.005724975181343901,0.000827896881414559,-0.003096286983384732,-0.006989023988625568,-0.007350437297419549,-0.007688906213090482,-0.0009987316011821161,-0.004804704222367025,0.005422000627131245,0.001643763366806576,0.0013809179398424323,-0.0023774302706135878,-0.0026243425910211994,0.004142885459290004,0.0004004473810630709,-0.010348723746912885,-0.0035749365556121053,-0.007314417278436737,-0.004045071896123406,0.006233588236504729,-0.004513244343509908,-0.008249047487136792,0.0020363694203937945,0.019336140458380537,0.012112169183055865,0.01541100339611611,0.008207769558482177,0.008026577612259455,0.018373656265723185,0.021728433801786982,0.014588086830065437,0.01097198356173212,0.021394959218780787,0.01782273362708589,0.017778900271418416,0.014255743181662076,0.017767757736927115,0.01079368764764316,0.007352328224161478,0.010949040662158308,0.014575769249431875,0.028746703772305083,0.01841798050456185,0.01513033291263345,0.03290210212932065,0.03318465290457581,0.04050946635526122,0.05137217728500986,0.04474591770639495,0.03815262330730466,0.03509616585105633,0.03557576628910512,0.03959047009207689,0.02961684460803816,0.026680319768906356,0.027274957081156823,0.01738130450342919,0.025033294204524662,0.02219341066679253,0.012364153644821229,0.023579132267365133,0.013782692867498426,0.01100826485754578,0.008244608248911564,0.008993808157912477,-0.0007643917659038977,0.0034987676941707177,0.0007541377383696443,-0.001991767536947553,-0.00824581795234678,-0.0110013139642411,-0.0032507726763381065,0.0009875736400077688,-0.0052952783656624956,-0.004577116640457075,-0.0073709064700040435,0.0073509621248597015,-0.0024634815180086546,-0.005272583791905326,-0.0045790575468381755,-0.0073895747861003926,-0.0031880722587902463,0.001019915051870768,0.005238075127016974,0.005965630799461815,0.006710698809134157,0.0144858261165545,0.008267845738784451,0.005582578799956568,-0.0005754152562445155,0.0038151553934454296,-0.002268963250715925,0.009211396418190371,0.010224256778662705,0.004277734590927676,0.012402195737655851,0.013574464127897671,0.032329282293417506,0.03362550406498397,0.024475342211901147,0.022404221522189627,0.030919604212176464,0.025493160087116367,0.0,0.0,0.0,0.0,0.0,0.0,0.0,0.0,0.0,0.0,0.0,0.0,0.0,0.0,0.0,0.0,0.0,0.0,0.0,0.0,0.0,0.0,0.0,0.0,0.0,0.0,0.0,0.0,0.0,0.0,0.0,0.0,0.0,0.0,0.0,0.0,0.0,0.0,0.0,0.0,0.0,0.0,0.0,0.0,0.0,0.0,0.0,0.0,0.0,0.0,0.0,0.0,0.0,0.0,0.0,0.0,0.0,0.0,0.0,0.0,0.0,0.0,0.0,0.0,0.0,0.0,0.0,0.0,0.0,0.0,0.0,0.0,0.0,0.0,0.0,0.0,0.0,0.0,0.0,0.0,0.0,0.0,0.0,0.0,0.0,0.0,0.0,0.0,0.0,0.0,0.0,0.0,0.0,0.0,0.0,0.0,0.0,0.0,0.0,0.0,0.0,0.0,0.0,0.0,0
0.1891827901973348,0.2828064615060736,0.4309571316225991,0.5790955079846574,0.7417491446932909,0.8898201731410842,0.965125331154284,0.9022064862531196,0.6574119439466233,0.30341223799384626,-0.007150751649194942,-0.14344792570313333,-0.17095087810633067,-0.1369415222313237,-0.07050947810434623,-0.000731356307019904,0.05059335218460671,0.06893564707848733,0.06521274933385071,0.050341535231690285,0.05704981860471215,0.052631370731567685,0.04800220487273419,0.04317243932410545,0.041787162973127234,0.047491248845048836,0.031212465606115236,0.014771292902399376,0.009082422509916135,0.01051962993790968,0.015456645283511268,0.009361514237972891,0.021324732440239032,0.025908589683034486,0.01585132214830452,0.002067089487929107,0.006375603904907026,0.017879671843600432,0.025682067870351738,0.044331951371180164,0.05566145789857632,0.04513771194785028,0.038214876335364883,0.02399478216315729,0.027931175484648702,0.057301629366466676,0.04667936516782956,0.04696405702225938,0.039986144217497306,0.04756314784934166,0.0297138088390678,0.037336895356626085,0.03408597254108495,0.04541299909083761,0.038606393633189434,0.03911771737167561,0.036046232452097086,0.06938395386774013,0.055525555893125064,0.05627378998606592,0.04618607551475935,0.07252376252998366,0.08439728388257191,0.07453923703546339,0.0647634822857906,0.07324829663192435,0.07091389542132844,0.07593786559347906,0.06651012289003289,0.08988920481227351,0.08427699823357275,0.08966083745342253,0.098769897552828,0.0970624841034538,0.1063485148532427,0.0975444738016446,0.07428320862872441,0.09109002772824998,0.10433918180837844,0.07767488733228144,0.07652673593936568,0.07544366583018669,0.06715028558450317,0.06618209017920403,0.03981650100625478,0.042575663009007766,0.04173646758647248,0.02638685687480281,0.011061038545850685,0.0030226671320304193,0.0022649206554104287,-0.020300722795889282,-0.03196421621455018,-0.029095268845200764,-0.02260139574223548,-0.00884650549920208,-0.009638833795088866,-0.0031632486599425962,0.017855455155094156,0.024340677381735804,0.016297413295033522,0.03008264249241748,0.0438898934430259,0.050453386613091115,0.04977754422453128,0.04913695743748455,0.05944117912694456,0.06978825286765825,0.058370293220747174,0.0615424354472937,0.057496153315688935,0.06077471890791236,0.0677450638122941,0.0675033945384165,0.07095684248600223,0.05993051671718864,0.06350690934339623,0.05987526438738967,0.04903577195284636,0.06734042879288754,0.07116635322508995,0.06414806469838183,0.07900141165053799,0.06483207791974831,0.06526082800413541,0.051203890189900736,0.06264616790806077,0.052327254108343116,0.04932585116374391,0.03546266197749325,0.04345109125963744,0.0405705755605344,0.048628493213734456,0.045809492468991166,0.04301487385678116,0.03660486644981239,0.04111553725930637,0.034730664246386565,0.024715504615102732,0.029240773723913212,0.030124957327987336,0.020092026786355608,0.013677066448721171,0.01814463899950014,0.0189479751223168,0.016081057187906724,0.020443404634859663,0.017487982278443268,0.02174933753751469,-0.003131018045052585,-0.009901837813811432,-0.016745368512978826,-0.016396441994143415,-0.0233995629143445,-0.02321599344801924,-0.01948082582401079,-0.01582694675178473,-0.012250181659776791,-0.012380063019057795,0.012871935889748248,0.030796937648202405,0.04140289590137548,0.048332820912226564,0.04432388412150564,0.040289068318740816,0.0471411346740396,0.057616589899285024,0.07172212620583987,0.07855851591438759,0.07086138333755712,0.06681243421343387,0.07005217756288026,0.062409524729128085,0.062065142820287085,0.05811770207623074,0.057841615424001236,0.06851100520213042,0.0574123879127306,0.06090093895184302,0.06443859821749727,0.049851790500451576,0.046224356231968466,0.035382148750862555,0.042773317505086096,0.04658809719835207,0.03955735107809215,0.04712860487444119,0.02568018508182361,0.037011290026360236,0.022959039748219175,0.03078147670583925,0.02776189530577576,0.03207638448327251,0.021913577735754385,0.01908447540964282,0.01631828346285781,0.03179058664897829,0.02187830788636401,0.022932844397126114,0.024047746178340764,0.028857290973168418,0.022819583273155686,0.01320384689885382,0.014549612778050725,0.0159498716012638,0.0137679625160996,0.022543197933689592,0.013192294194433556,0.014795224563966794,0.009174158512958098,-0.010943176656316844,-0.016476993486609068,-0.011063360342076473,-0.00924241208022538,-0.0073771795264466426,-0.00546502607956001,0.003767806898823017,0.027595597224568443,0.026034866041012256,0.05725268278307185,0.059454036826307274,0.054453475142125805,0.07133566863690374,0.07738643570583974,0.0798785546941317,0.093354838219952,0.10327601468808698,0.08783192452397873,0.08701047201679789,0.10081180566774996,0.10378916470764447,0.09957696912887501,0.11362038359347115,0.11683591583996815,0.11649161153074886,0.11621972154604007,0.13419275671831762,0.13405448774280038,0.1339761733895725,0.13031713854081994,0.1230712488004384,0.13767819240466664,0.15958972560515705,0.15971607385229356,0.15985961308390398,0.19636276306775324,0.294661512465811,0.4183922878824299,0.5748125698453186,0.7130143772795217,0.8438854352910361,0.9128761130675932,0.8399860861517121,0.6070090459491486,0.2648034853841821,-0.0339892407919933,-0.16581078666622345,-0.1706840544634247,-0.11406266860181613,-0.05411361730928935,0.0055351061784295885,0.05762543881668303,0.06945281566724623,0.08465180631880842,0.06688199983929567,0.07431803770459347,0.0742539619161735,0.0703355489110847,0.0734786250617194,0.06551698024211268,0.05736572175378678,0.052669208108209735,0.03326024737278119,0.013688279692049443,0.008502578909325872,0.00680587620848726,-0.002299139739484337,-0.007898550677528406,0.004556990672267323,0.024171107732093584,0.014600926921151485,0.012207665854635116,0.024270784322490885,0.03625841746087627,0.03363857905202705,0.03823120761185735,0.028233546232467124,0.03637080588856671,0.044475107951063166,0.04528402374456395,0.0424405340258662,0.05776344614453136,0.05127277500364874,0.04478682693287878,0.04921802009027711,0.046396863879151984,0.0,0.0,0.0,0.0,0
0.24151213861417106,0.388851386435095,0.5607131321617339,0.7430651135528727,0.9008455045091618,0.9779620033132104,0.9148133439713594,0.6728201309724067,0.3465678765907625,0.03764764909767331,-0.12431553568503273,-0.16739755236732445,-0.15821152611948236,-0.10728331856438242,-0.01811484113242804,0.04973082588131172,0.07874584367662238,0.09698010543285293,0.104447430210169,0.10116115216820903,0.09764746337569703,0.09742312999810512,0.08998658976860596,0.0963759337434325,0.08506190231468487,0.08409057482346954,0.09347192491141644,0.08868428542606227,0.0907635024890117,0.08219591826424061,0.07700756153692277,0.08221513001514939,0.07679925597923913,0.07128030107257091,0.07267378289349806,0.0774814824926319,0.0681869773566869,0.0693269781499119,0.06688879406546748,0.05386830775911458,0.05830566793009979,0.05567385320494665,0.049481231071803904,0.03973143060080842,0.05095905379716086,0.023591462839014588,0.027720786912840738,0.028305235785428495,0.03936532130207068,0.0223545130506972,0.02283312496252574,0.019776618270042425,0.01669156038132771,0.0030665796263881022,-0.003574098732606851,-0.0032285650101140013,0.007609890067535333,0.0009081420489753435,-0.009313450981662984,-0.005530075432213414,-0.0017561733713767002,-0.008501201461942009,-0.008238769140263395,-0.007972898569775125,0.00281547101288493,-0.0003984426910128229,0.01042746467363077,0.0037595144852954616,0.021657637008794996,0.032588082687713286,0.033052674067413815,0.037075370996574486,0.03765320776802928,0.03128749334650265,0.035506108723153684,0.03279217796421887,0.04067324809284698,0.04163210168384098,0.046186998335727925,0.03682030909656192,0.031058774566861107,0.039420031148107014,0.05139479965543472,0.04946468370633237,0.0581645505292368,0.04595765924923679,0.047891719094834605,0.05696068892128911,0.04513152783279021,0.04745119100750374,0.03238166703979007,0.03496944819422074,0.03418950404710259,0.030043389619974974,0.02253248898685709,0.025675876199802244,0.02195237220970852,0.007858509783075335,0.02544869255823375,0.01865240351608928,0.008497119466487622,0.005496843811020091,0.006147697270698265,0.010450233131060272,0.014900513890412219,0.01599454979589464,0.02775057683580641,0.015124310343259104,0.013160527873391966,0.01835487082359095,0.030707374837348162,0.03620014358881925,0.034832967410267986,0.04763221592571374,0.05006610396064603,0.0386293684719483,0.04135663652469436,0.04422882145216864,0.0437400099507096,0.060915287913767574,0.057203701706068075,0.05012535389582648,0.053695600984003986,0.06440724860106438,0.06473499370448413,0.07570227175169819,0.07627867394022587,0.07346909334619245,0.07778250170109895,0.10323196343972524,0.0937409531094308,0.0948617705113798,0.09957934601078712,0.10788705576150606,0.10225547777693184,0.13173939156134726,0.12273696363555014,0.11729288343198516,0.13292000635705942,0.1380681606703247,0.15375341076248475,0.15893761009849286,0.16061752376621333,0.16929358221420526,0.19196095275466346,0.2075782758419068,0.2021121522229816,0.2246084256309754,0.2400048880683205,0.3008497097139604,0.4246452602349428,0.597352264611056,0.7663802640595856,0.9211893336214412,0.8444725735602225,0.529186081117596,0.16102703385336778,-0.11285909713926293,-0.2189213069259238,-0.20274951061536425,-0.12042620593841265,-0.017501249276151886,0.06749586357739039,0.11355959969059595,0.13122422909123888,0.1520502143015684,0.14101262079652194,0.1366794148236228,0.12855541688485192,0.123667064328844,0.12553569167840373,0.1236641749260316,0.12858152267824324,0.1192759847819692,0.11678868876147365,0.11062002532238642,0.111296561519367,0.11532647111196577,0.1122084512794342,0.1159718429098874,0.10560082536172798,0.09512359862159983,0.09506337462327448,0.09491612939005656,0.08067290357963211,0.090891164000224,0.08002093292564304,0.08661881934377404,0.07214291106543412,0.08566236402598368,0.0676077119351141,0.07405624179930133,0.06296002122158482,0.05184656835247017,0.05123416644486555,0.04010069908012712,0.0,0.0,0.0,0.0,0.0,0.0,0.0,0.0,0.0,0.0,0.0,0.0,0.0,0.0,0.0,0.0,0.0,0.0,0.0,0.0,0.0,0.0,0.0,0.0,0.0,0.0,0.0,0.0,0.0,0.0,0.0,0.0,0.0,0.0,0.0,0.0,0.0,0.0,0.0,0.0,0.0,0.0,0.0,0.0,0.0,0.0,0.0,0.0,0.0,0.0,0.0,0.0,0.0,0.0,0.0,0.0,0.0,0.0,0.0,0.0,0.0,0.0,0.0,0.0,0.0,0.0,0.0,0.0,0.0,0.0,0.0,0.0,0.0,0.0,0.0,0.0,0.0,0.0,0.0,0.0,0.0,0.0,0.0,0.0,0.0,0.0,0.0,0.0,0.0,0.0,0.0,0.0,0.0,0.0,0.0,0.0,0.0,0.0,0.0,0.0,0.0,0.0,0.0,0.0,0
0.1930584486078732,0.2800755999549909,0.3997971960183522,0.5485767120196845,0.6936839393741224,0.8423732432415826,0.9291913083107533,0.855963711980917,0.6226620719643823,0.2946875170012762,-0.02620983145286864,-0.15467148152084312,-0.17434203598211698,-0.1215936659919198,-0.03641719081463952,0.02666727927329897,0.060400831462093935,0.07206526201585302,0.07257727579710331,0.058312374931755374,0.05109217287737655,0.06183235972192992,0.06509626406674825,0.06452859017197814,0.045597663803562886,0.04102922591799037,0.0217502092396276,-0.0013253420249458127,0.004527771195262828,-0.007939759377945986,0.012173421607940023,0.01034831630785317,0.008405288663726031,0.009988597863026671,0.018742461066779917,0.023770203082714998,0.021445476211408642,0.03358828812045836,0.052936854429468085,0.0576883804062947,0.04785107024998228,0.04524410333313214,0.04623994555495814,0.05084604719673392,0.044528784929698896,0.056376808425775436,0.05367996446915908,0.054620766396075535,0.04102935311716219,0.03835811767014341,0.046612773727941655,0.036717158352278435,0.04866387698996154,0.04247071824532227,0.05449465005741503,0.06656426897305429,0.06414310966838062,0.06541126942137886,0.05946683997387282,0.06448927083195176,0.06230560814173927,0.06382426042361737,0.07268290346477416,0.07434284091821279,0.06153543422757207,0.056073357942899006,0.07613376833449266,0.0708245398569075,0.06922779955254094,0.06770842491790181,0.08080700032338389,0.09034687617406717,0.09269184125033628,0.08420523259819487,0.07942597681732333,0.09289257948123887,0.0955206218026556,0.08003648414684962,0.0973294389172132,0.08923204025742039,0.08118619952321197,0.055010854679208535,0.06159353920798801,0.06094124647344047,0.049412767897525696,0.03063701140112415,0.01551305904642998,0.0076694185054270595,-0.003806322525502349,-0.0152857722867623,-0.02314017741811673,-0.027374543013538918,-0.020721254644994084,-0.01772136091832061,-0.007467467702129459,-0.0044969715537804475,0.009370335801987786,0.015962983826968227,0.015285508144157746,0.01461278576678705,0.035760459690852474,0.03874551960461958,0.045383356637857065,0.048407483372122986,0.047821606677345314,0.05453482319376485,0.043103884427823216,0.05351906005822432,0.04943098159014173,0.06719422498498036,0.06318848579255222,0.06286212504049955,0.06258150299342287,0.06234787620787409,0.06216218833289015,0.06929549248327996,0.06920726734745147,0.06553269814923285,0.06190662407611565,0.07286918845983029,0.05843206606033818,0.047675568740613294,0.05150366319041639,0.04083276109332217,0.052012807460967696,0.05232454169222957,0.04903575975028949,0.042143574770467436,0.0461856971195909,0.03934752042084762,0.032531102792128834,0.03300309501114712,0.04075956399494779,0.03398514802964148,0.03448680883443773,0.031354442779616666,0.04275945862202687,0.03961537051280725,0.02191716362641636,0.022376520483649187,0.022812065583410552,0.019583153952309074,0.01631944776177856,0.0166505112674831,0.024205827127847787,0.020803531133281882,-0.000832730147211317,-0.007992097533941915,-0.00795094936619847,-0.0116201153365801,-0.015368827387189829,-0.01556521354917371,-0.02675199482795883,-0.01984788630276606,-0.02029722065195625,-0.006284707171195918,-0.010521285958838295,0.0033517013828994863,0.017165753735317896,0.0236579850289402,0.04464710818613343,0.0546939800058438,0.05017049766693603,0.03835391668610418,0.03742687353528381,0.054666181109097184,0.06826678034718624,0.07096418126859368,0.07730481617391978,0.06911786711966916,0.0645842356640313,0.052802792955247584,0.06285940384872303,0.06567629954467273,0.05762187116432847,0.0568754450628837,0.05980479587071645,0.04823657143067317,0.051254858395116384,0.04341534319490272,0.04653119382009232,0.04969846576084008,0.06745945606936765,0.05982805426691923,0.044981182218683836,0.03382504144442602,0.03363039795542255,0.029856585022283406,0.02977403137908828,0.03338259527183851,0.040681986076378567,0.033495693242693546,0.02999910883660385,0.022920983227427676,0.015895548596668592,0.016192133123490632,0.0165391430990085,0.020570535661401015,0.013744132240248563,0.01786975743821894,0.00386421870124656,0.008078024972856966,0.005063085631680299,-0.0015470455131655148,0.006422002442315574,0.0071574307431010184,0.026104146357651497,0.023273229620895532,0.024109421193408243,0.017705239343850817,0.004058713601508195,0.0013438379823512672,-0.012252730419559392,-0.025827445806163998,-0.0030291241519769052,-0.01656044590145802,-0.004621011436939459,-0.003559534167960053,0.0011686599280999134,0.005932530016723109,0.014371450625245847,0.004678292400318238,0.042290908593175185,0.05450912616567937,0.07768887870244788,0.07184640458835871,0.07333697641800438,0.0748929803230353,0.07288164635279644,0.08184588310461377,0.10178739235727513,0.1072609924421168,0.10917309877927878,0.1002535374710559,0.10958369478001516,0.1044458754572338,0.11392041657911728,0.11255897395404474,0.12217037162180805,0.1245755541989867,0.13067654027091472,0.13319867253227227,0.12850185089761468,0.1274861516984409,0.12651016634668907,0.12193184882353897,0.13919020537995092,0.1891827901973348,0.2828064615060736,0.4309571316225991,0.5790955079846574,0.7417491446932909,0.8898201731410842,0.965125331154284,0.9022064862531196,0.6574119439466233,0.30341223799384626,-0.007150751649194942,-0.14344792570313333,-0.17095087810633067,-0.1369415222313237,-0.07050947810434623,-0.000731356307019904,0.05059335218460671,0.06893564707848733,0.06521274933385071,0.050341535231690285,0.05704981860471215,0.052631370731567685,0.04800220487273419,0.04317243932410545,0.041787162973127234,0.047491248845048836,0.031212465606115236,0.014771292902399376,0.009082422509916135,0.01051962993790968,0.015456645283511268,0.009361514237972891,0.021324732440239032,0.025908589683034486,0.01585132214830452,0.002067089487929107,0.006375603904907026,0.017879671843600432,0.025682067870351738,0.044331951371180164,0.05566145789857632,0.04513771194785028,0.038214876335364883,0.02399478216315729,0.027931175484648702,0.057301629366466676,0.04667936516782956,0.04696405702225938,0.039986144217497306,0.0,0.0,0.0,0.0,0
0.5759414467692702,0.7480411293405249,0.9624505071101987,0.8541085472639762,0.59899517290064,0.2655287453143934,-0.009429820191615356,-0.1248733663785793,-0.14927805670858607,-0.13807094424823962,-0.058663480525429884,0.02050733212265233,0.07012180666650038,0.10649051952981944,0.11658988981950613,0.11998892275405412,0.1264781050332495,0.13606938784300604,0.12595890698377588,0.1254911076117837,0.13467599838094374,0.12418915378185692,0.13315102390994116,0.12245795336077794,0.12145116995963848,0.11384092325215407,0.0963741029537844,0.1049087718524064,0.1003383381677342,0.08266742785265631,0.06819672445046768,0.06670787445448502,0.05212975295378848,0.05053989120079753,0.04238519380929411,0.03418680754495994,0.04224360281676607,0.024186665684094992,0.02564829111164125,0.030333727858800674,0.021948096443513417,0.020048796135694626,0.011599997900582304,0.012899579167209076,0.017430176369681645,0.00889642587495228,0.01011461917612518,0.004789261007141237,0.0026993003802013647,0.003845726791942911,0.0017108925296623401,-0.0037042456351389945,-0.012398739485422422,-0.0015561059058776087,-0.010285609172913171,0.0005271188211910387,-0.011485373093460498,-0.0006891185990313321,-0.002931856677728149,-0.0019122711427789168,0.002374673436875338,0.006674882301632711,0.01099356067494358,0.018595192262266247,0.016447646519158098,0.0306304422022491,0.0122588431322885,0.02000525123965745,0.02128127518077597,0.02586947771926108,0.03703369149951483,0.0482596842492922,0.04977372667147112,0.05461703116544458,0.0725712494055527,0.08082464141678487,0.08263959921923929,0.07475948699696806,0.07674243873096354,0.0885903434662662,0.0940081472536255,0.10277484804342947,0.10511310260681286,0.10102298940992864,0.10680062063551417,0.11266710850000368,0.10558371936030896,0.098585651089155,0.09167032621499192,0.08483467433801453,0.0748158548503668,0.07464716225291858,0.06802771025948996,0.05821211048660663,0.05171394626866243,0.028972015028142895,0.025833157176933373,0.01621714299487394,0.01641466772947194,-0.002914020447353021,-0.002663206452210888,0.0008648000710996504,-0.002113433803768219,-0.005084786045064207,-0.008054557557665577,-0.004508942478936319,-0.004229929045369837,-0.000702517861826535,-0.00370786697200489,-0.0099898202547285,-0.009773245628619628,-0.0030599975486347306,0.003630374275765525,-0.005999324734370767,-0.005875253176413623,-0.0057754301324975145,-0.005699380966446684,0.0008725413366161946,-0.00561396961859558,-0.002342170456622169,0.0009120969609150687,-0.002367474864992342,0.007377296857518242,0.013852389409807328,0.004023055043170601,0.013744154593248846,0.01694360350843748,0.03317961450623157,0.0331206377398165,0.0200280760284999,0.016719037726917525,0.019936036197969177,0.019902877496527038,0.01336189171012118,0.01009255683757216,-0.0029408989266945487,0.006856068138835183,0.016669979581942225,0.016724570095744767,0.016799362161979862,0.020155170926695196,0.017015480113449572,0.010640920095625244,0.03036653102055965,0.04034106270260013,0.03730623168763356,0.044078047667589326,0.05087921523904332,0.054450842321172165,0.06131171800633459,0.05516517613774138,0.055566674420627606,0.05599689988299166,0.059714197288718324,0.05693938399151501,0.054189538056200005,0.051462829137832726,0.06179440336946013,0.03955153615443277,0.04013986147308832,0.024444771711918657,0.008759760117239473,0.006118885855088374,0.016518916867024492,0.010622783792402194,0.004723700665864329,0.0020775809824567625,-0.0005783090941168668,1.1909924780996214e-05,-0.005933074958526,-0.00537939380632745,-0.0015891723208892553,-0.007601960731324168,-0.013641975300438059,-0.00993271010476732,-0.009511546228131208,-0.009118361864791577,0.00428580395714004,-0.00188958753594346,0.004951140581720772,-0.004523080525258722,-0.0009757310324257457,-0.007218851125385827,0.0028252895509958075,-0.00017319441642024808,0.009864098991909969,0.006866598546288364,-0.005902509595702944,0.00415373309830086,0.0011872969142670135,0.004758432928628384,0.02790876256849433,0.018493646340419938,0.018888349043312446,0.025837677017974472,0.0360863421634634,0.03334167976477361,0.03716327509580284,0.0312581163014357,0.03192612427437603,0.029392568765390363,0.033438431033140585,0.027770050522089,0.028686718048737507,0.04270965001007687,0.030729553379634744,0.04815696541885367,0.04610429033598583,0.04412924053926534,0.04223342677695775,0.04367755100754523,0.058240727735215075,0.06962735822504368,0.06806017625130774,0.06983606230284853,0.08147362099836755,0.09319454849415748,0.0984794454348252,0.11036431763075208,0.11255087178731693,0.1148147576396662,0.1138938147429094,0.11630324414762636,0.11552043000964522,0.10502217496857344,0.10435919891322423,0.1070072017701801,0.11295998538286794,0.10265494542018896,0.0891220313153121,0.08864999108309883,0.11100850341541496,0.20181923417478512,0.3219611859143104,0.4649054706551155,0.6338995261816545,0.7865580997611549,0.8870113928760526,0.8602739319412506,0.6769861743045605,0.3729705130725239,0.06552875283129743,-0.11174260740342999,-0.16865711794219082,-0.15087014396842854,-0.09098378081370426,-0.005289231863804346,0.05081920067762828,0.0936525779252066,0.10040996462050633,0.09392032323208628,0.08397486675300436,0.09014227414396044,0.08961975035786747,0.08893785634404291,0.0783301456709549,0.09040078135124316,0.0827893620491708,0.08809920712274212,0.09004354413685912,0.09189103129890484,0.08713194102928315,0.07903402186249991,0.07412389852977516,0.08544642430505846,0.08041571585293399,0.07533514045215653,0.07347041587722346,0.0813461950833495,0.07615295696589439,0.07093320410985696,0.06895112276619267,0.07021123266341689,0.06493977320517268,0.06291850387745652,0.06741023575456001,0.058862282323318665,0.0,0.0,0.0,0.0,0.0,0.0,0.0,0.0,0.0,0.0,0.0,0.0,0.0,0.0,0.0,0.0,0.0,0.0,0.0,0.0,0.0,0.0,0.0,0
0.19239395068506,0.2928892195959472,0.4209678171153356,0.6008246099800737,0.7528884220877041,0.8944314153462583,0.8732408884879646,0.6270284143548315,0.29411147971818485,0.002428042407256911,-0.144296995839504,-0.18760825862417005,-0.1586602675341864,-0.11280130690581396,-0.018894640016380502,0.05044324798072175,0.1056088173230785,0.11895149876528804,0.12507855781799426,0.1240086859009402,0.12267754490776114,0.1176437828886407,0.11238303037271928,0.11382912760356335,0.1116213632428842,0.11269244647345827,0.12051573043790507,0.11089362134988634,0.11842748771120284,0.1016245890220538,0.09854394511203526,0.10919729042105072,0.10592548320255267,0.0921980171236076,0.09915423969059137,0.10259227048634326,0.09906252092254828,0.10586767704958283,0.09188675853844933,0.09517421438857833,0.09152567136547553,0.08786546176364053,0.0980350561158974,0.08745231456099163,0.09416936366254244,0.09397952992246383,0.08688725452923618,0.09019049844039348,0.09005760677713105,0.08649166544151461,0.08295410798091664,0.0829059354843824,0.08634893633707648,0.06907289886110117,0.051831552767305965,0.0380842927353425,0.03474905222043945,0.024531988722976857,0.007433075664777091,-0.0061714423922591185,-0.009364155984950185,-0.0021446652297685,-0.008723266181752546,-0.008345678019315177,-0.004468376743966882,-0.00054704551780635,-0.0034957409404822405,-0.0029344779756155337,-0.0023181312248005625,0.005275097285798122,0.0025556402190975358,0.01719827699595706,0.021537007325584185,0.025952522192548854,0.0373666069630437,0.0384893317072656,0.04661855899578339,0.06175796928580399,0.05969942440835455,0.050822456738022576,0.059341491885636234,0.06104753028297056,0.05594286118772588,0.04057067068661036,0.032226652752070296,0.02399471296981379,0.015876191658966518,0.014789905031770616,0.010360600252806522,0.012965738137173602,0.0018535462969037836,-0.0022222372845735264,0.0007393285083954997,0.0072805979706660594,0.010485123767110164,-2.237577373081957e-05,0.003429542517813102,0.0035479508036816306,0.017627883431508652,0.007623590075723137,0.004665190938150505,0.0018359908359183066,0.012972058860243442,0.017321475588981818,0.02180264020642045,0.03679266322280905,0.027704173001767352,0.032584370543753294,0.0479747431282716,0.05312262544627088,0.0584042937150502,0.06036056680541864,0.05207317363337596,0.06467031857883543,0.06356278492236919,0.06258420365972604,0.06519149417270809,0.050629677388714364,0.05694301314446454,0.049540751528137125,0.03879623104627363,0.03854134043499862,0.048772582715918666,0.04527468267055343,0.05571409021761907,0.05241626196896757,0.04921195116608792,0.049555255169137176,0.06381762114519793,0.06778226915167017,0.06836128155791417,0.06900760388860389,0.05933864812864247,0.06701825849166122,0.0712868114312812,0.07559593384321568,0.07302050238909857,0.07738780335093874,0.08868956617487025,0.08962314370130695,0.09747342465623862,0.08110167858316687,0.08200344425862423,0.09670948181732136,0.18054970624353925,0.32313638824067703,0.5140808957636023,0.6807346182851092,0.8403751211403709,0.948018203191337,0.8929583006908779,0.6647902498677283,0.3049863911592289,-0.02738512921494559,-0.18363408376709814,-0.19492513595597194,-0.12699348333575855,-0.045555805572733886,0.03902404898119423,0.0956337721756032,0.12083124420655103,0.107715069167894,0.10126521599737758,0.09803794399063193,0.09804780405054776,0.10822645275697708,0.1078346729840263,0.10380308994026316,0.10997938552757204,0.1056227432989806,0.10112097831065484,0.110320175438385,0.10901913668632182,0.11106288972448636,0.10262553366049064,0.10792738955424536,0.0993062963378828,0.1009815223066976,0.09220746609107372,0.09028479868053103,0.09176094242721476,0.08626527239259532,0.09109708830015656,0.08896727921361333,0.08333906631128311,0.10534560940181263,0.10310850119834064,0.10775995808613506,0.09854971190784774,0.09969132883976864,0.09043350917619952,0.10190642375490784,0.0856874387792797,0.0798233592540992,0.06356099688016502,0.04727594564154558,0.03442588585064349,0.02155066557345171,0.012107556613215291,0.002636127153169969,-0.006865317227890996,0.0008955055348931618,-0.008670439288590287,-0.014811423972530826,-0.010610088832748284,-0.016818050566510583,-0.01959793857923956,-0.005110784561553289,-0.004480131533333632,-0.007323461789840873,0.00020096591950112267,0.0008064071740724385,0.01871169174851173,0.03663007018533357,0.04419229533527508,0.058699320365447775,0.06632269608142037,0.07398646739220385,0.07477915585996593,0.08600049864792221,0.07652668795673946,0.08786824258474538,0.08544174416333314,0.08654530398279313,0.08772381852465093,0.08898054947725274,0.07302433024314879,0.07790431625559273,0.07595213709271402,0.07408701214446768,0.06193379137341973,0.049869741907119534,0.027519033604115468,0.03292875804101586,0.038428708465788115,0.02672490728263141,0.02894635581897212,0.013963558977567913,0.019822835596210918,0.022312071894766115,0.017971842578964562,0.006801408727518508,0.016470325026652716,0.01238974935541608,0.01531152417468322,0.0252346423965379,0.024864030708739628,0.028033671025902,0.020907037475759657,0.024235443351098836,0.03801730980947427,0.03803935129783924,0.03813486944334536,0.034842986009684364,0.05237301555292613,0.056134533547419055,0.0565012267358625,0.056928905321606736,0.05049670320184629,0.054495055162633775,0.048167366239758286,0.0730151317938653,0.05294047661518594,0.053655875685260215,0.040568399216365326,0.03096681814151017,0.02484571088500421,0.015281905170384746,0.009187296225997392,0.006556107003980499,0.0073825145199913015,0.0,0.0,0.0,0.0,0.0,0.0,0.0,0.0,0.0,0.0,0.0,0.0,0.0,0.0,0.0,0.0,0.0,0.0,0.0,0.0,0.0,0.0,0.0,0.0,0.0,0.0,0.0,0.0,0.0,0
0.23208790538124804,0.32479184095797525,0.4889727241048285,0.6638236792640511,0.8207192611792997,0.94175866386418,0.8159337267457858,0.532614415331545,0.18474260158969952,-0.06679876912406829,-0.15052732840329047,-0.15229775165415527,-0.11503858063327345,-0.05663198590471085,0.015778749020971615,0.05214388711849528,0.08823727957559414,0.09904075265994633,0.08456759435896988,0.06986250036245711,0.07996974352222852,0.08629345543587896,0.08884525688787158,0.06975640654815088,0.07194948306099731,0.07040297982914162,0.0758548918023817,0.08116293126837501,0.07560844511087156,0.07708026343455092,0.08201092152517762,0.07252862474940573,0.06294504358431606,0.07114747199331409,0.0578071111434151,0.06584248744158411,0.07738007405861003,0.06739404269394783,0.043042053311716434,0.0436653040708554,0.029933083072176212,0.04833812719672805,0.04882139816504183,0.04211538020763269,0.035376327318576824,0.02860831065615259,0.028967196755898338,0.029304764594005994,0.033200606699028405,0.026354238428454062,0.01592092591342754,0.02693573416114244,0.02721787050299074,0.023922255015624262,0.020627685556894097,0.02091284037337621,0.02835629457321875,0.03223257418257499,0.028968035705021707,0.040020777387402465,0.022481002306313787,0.026414352800119667,0.01963867782486291,0.027187472335994143,0.027606313412747677,0.010168600585340791,0.0034834427763545603,0.0004000367708845266,-0.009808424192635886,-0.009260859840371071,-0.008683147133773174,-0.011648310993713005,-0.003848620794842389,0.0075688439010417686,0.0011534246333251242,0.009094217038897573,0.017092491304698577,0.03588137505272014,0.03328207688911875,0.03790739021379592,0.04261008072178619,0.04024272457117301,0.04511360164632575,0.046498887711853065,0.0551304497410449,0.042404074788821834,0.051234996846820785,0.04586654303844343,0.047757562383279134,0.04260681327371976,0.0447207043499312,0.029069583794082206,0.01711139586764704,0.023151967225284474,0.029313163799639712,0.024868708022418296,0.020548092536196272,0.016352727251664825,0.015859905468500704,0.0226468387227444,0.02956270086256428,0.015152607984142112,0.015177306441327348,0.008181688753757485,0.01562240510791683,0.012468245099018643,0.013023767634181395,0.006561566373160284,0.010962058892458349,0.01192175479571247,0.02016901178240281,0.01782423890764956,0.015615633417099962,0.017119331176310253,0.03306336223156603,0.04199179586746278,0.043904452828474314,0.05310488841788807,0.0588645355105896,0.06475850597481535,0.0779376034855725,0.08409639114864874,0.0760810146407109,0.08249706045095254,0.08188592885121851,0.08854846892253387,0.08817723128069342,0.08434425444638857,0.07346916379525788,0.06269912137001235,0.0770608525147853,0.06290907423024165,0.055997771448990034,0.04559279487544066,0.045991618131284176,0.06076352848589212,0.04698976356771811,0.04757492429433125,0.05178358469275908,0.05960803930375237,0.07461630987958674,0.06461625883785879,0.07966305649192536,0.07325992457874643,0.06327743685006784,0.04970587011077147,0.0718710322024856,0.13691460727245375,0.2519779201127584,0.4277775970718938,0.6106612542786852,0.7755822580095586,0.8903389489757718,0.8440540951294309,0.6295496104818968,0.3004349529746745,-0.014587858480369982,-0.15463443198110116,-0.1805301298046197,-0.1280537210508498,-0.05442274123407407,0.01891730052940749,0.08483000980150512,0.09684305013369554,0.10145930029306108,0.10584530740750253,0.09213520840228123,0.09967838904729358,0.1106079963652218,0.09990470672790623,0.10691639379727406,0.09947070912275367,0.0990345616135282,0.1091944321779938,0.09420045912780776,0.09339794352087967,0.08891593734165146,0.10221887300877816,0.10113094641950443,0.09281168980064038,0.08442012972426424,0.0866908148334532,0.09962991328229118,0.08390731234685701,0.10032001277821403,0.08808106738962328,0.090106625148281,0.09924858880377106,0.10478242444310314,0.10313507416923942,0.10503690069081273,0.11406577878218845,0.10876715512709084,0.10344576737483252,0.09810186482115753,0.08558320727407627,0.07661699467951638,0.06762605454957582,0.05145684518193112,0.04956337577957187,0.03333559244898629,0.013499040903714336,-0.0027968859501145385,0.0059010818162173965,0.00025471563497284734,-0.00901043675471899,-0.007592842757858944,-0.020525961211886892,-0.019202737692456808,-0.017926001362286625,-0.01311682647677212,-0.011922542709524394,-0.010761275247294444,-0.0060500166352757245,-0.0013567093564098177,0.0069032511168385935,0.011586639811049062,0.019854141754338483,0.03886638404162469,0.05432797772042717,0.06267129789468988,0.07105640641681288,0.07949107952381024,0.08798273817066389,0.0822344613391651,0.08013276326244856,0.08525980248354928,0.08331740623444461,0.07788690609534084,0.07254921705941285,0.0637328924264087,0.06574605339723227,0.04640868282549805,0.037908185164622,0.03667187153012344,0.04270284962604405,0.05242805766761957,0.026514359061355082,0.022179980568570158,0.028699279919272205,0.024618545555221,0.024243783716259272,0.02042496077281241,0.020315866394180215,0.027494201995410347,0.027657636764977192,0.03868757758537949,0.035553459497553015,0.03971234378737292,0.0404372388083825,0.048456871129095636,0.0,0.0,0.0,0.0,0.0,0.0,0.0,0.0,0.0,0.0,0.0,0.0,0.0,0.0,0.0,0.0,0.0,0.0,0.0,0.0,0.0,0.0,0.0,0.0,0.0,0.0,0.0,0.0,0.0,0.0,0.0,0.0,0.0,0.0,0.0,0.0,0.0,0.0,0.0,0.0,0.0,0.0,0.0,0.0,0.0,0.0,0.0,0.0,0.0,0
0.19192351206764632,0.2874978655700689,0.45076745684254294,0.6207043578665246,0.770173452987442,0.8822050428893119,0.9059305111876284,0.7430237377909117,0.4510713774809081,0.10799340964142763,-0.13711280267796694,-0.1995510621771496,-0.19120352980702865,-0.1188587039437097,-0.029960998069474536,0.06534103873165227,0.12300663746920623,0.1430582885091628,0.16280244000569252,0.1449756791787584,0.1438304579795165,0.1458283710782133,0.15098832047330832,0.14915995916102825,0.14036070505637455,0.14155476337518105,0.14597909118887642,0.16381747089570092,0.15779986231667914,0.1516665253477433,0.13526186468425705,0.13910360613046538,0.1293081733989019,0.12283389398595465,0.11969091574651625,0.10972025250563236,0.1166573858350264,0.12356316926365135,0.12366639289390785,0.11697424225260165,0.11027229777482518,0.11373506164458527,0.12397845820389715,0.11389129677858804,0.11398337934433048,0.1005318324983023,0.1040453188427954,0.09741038577880257,0.09418713992223046,0.08420865449617712,0.06069703840816657,0.04737953910358138,0.044256554201732204,0.02760169808335435,0.017751949908045808,0.014707111106160175,0.0049088678677986245,0.008693899048763472,-0.007833246961493203,-0.000609412980124006,-0.01030836316896217,-0.00981367139309409,-0.012682011664613305,-0.005353072735825457,-0.004770898149059226,0.0060160432965234685,0.003285656595576855,0.00737940272417233,0.00813316664896713,0.0224988494006103,0.030143738522535126,0.041240568645058914,0.04223537733892653,0.039911035692793764,0.047829216858680974,0.06260386133280166,0.06390113736465669,0.07206097962594853,0.07352793708143647,0.08525175797211278,0.08689725007790176,0.07846583464069186,0.07351652489662377,0.07543942189228796,0.06728721937089614,0.06261779345968183,0.05804115074915305,0.03321945164022227,0.02204667225005896,0.02452155639731756,0.02030569794653728,0.022955634355732068,0.01891174859342068,0.0047828287103270925,0.014462141019814719,0.007273782278338608,0.006942402714036508,0.006687056605003685,-0.0036627431028038687,0.01656508240317195,0.009747267912439376,0.009777144132487951,0.006484406972833808,0.006646236557900699,0.010260767349826151,0.01393659395943922,0.02445077955410913,0.031632784517606934,0.0320909602200572,0.039381032968290285,0.05011103551370697,0.047330777222040564,0.05476389634535479,0.05545971504031915,0.049414814744749715,0.0467940194582643,0.040814373005778594,0.05180873820311638,0.03570914801184853,0.029795535232871068,0.020505054819454808,0.0213907657081998,0.012110558109175178,0.006217281479878193,0.0037056982445128413,-0.0022084734993757364,0.002027505538020443,-0.003928481749764858,-0.0031339897853431987,-0.012541265986816695,-0.005038673981623941,-0.011134998519071277,0.003062080107951118,-0.0031232062113524897,-0.009355521735916236,0.0013112593597902006,-0.0016289410058973953,0.002160391830945132,0.0058998743226320385,-0.0107479143609843,-0.0003302921469097392,-0.00013122141342758635,-0.00676055371955899,-0.006659608297913795,-0.003216595229126815,0.00018090806895551843,0.00014562975503349505,-0.0033201962966072323,0.010122702780924206,0.009971315971281685,0.0063966610861132395,0.019738225940864114,0.012713853825537507,0.012441915121394788,0.01214565043917142,0.005048238180027202,0.0047098357376237215,0.000964028923551934,0.017539446201480742,0.006985072192295288,-0.013749570397962608,0.006180072412644725,0.005766142351095471,0.001959402506896347,0.008321080518716556,0.007906834647081723,0.004109321267868838,0.01387918370328425,0.013492965287419887,0.019901219399957253,0.01615936575449451,0.012438777519538266,0.008742227206389366,0.01185143837271234,0.021769077624784187,0.03171873907143872,0.0281448947358702,0.027997417628708655,0.027889000315356263,0.048158741715006836,0.04474497551946464,0.04476543364946448,0.05500058458010952,0.04833560675807783,0.04849800292900966,0.041930461339128935,0.04897049394590166,0.03911280375260184,0.036083954832044664,0.033104756111895284,0.020006329479918983,0.0103461776409802,0.010902690028044542,-0.002051355237941763,-0.001400635247597613,0.002685794965823331,-0.010129506430961116,-0.002562382158071402,-0.0051178450350305256,-0.0008475717732969258,0.003470700770069589,0.004448822877453343,0.008867147338111834,0.003168964976434052,0.014471601722580375,0.008881248499624106,0.013515143034892057,0.0182059058280861,0.022954609663569932,0.017593716435801092,0.01907162622719416,0.030778624671078773,0.035767862321899414,0.030650362321479826,0.0222054888327092,0.037549492487419116,0.03600838048748346,0.03791909144957584,0.039891837607587695,0.04192614822007885,0.044021353086421064,0.04956607899537062,0.06533823924904403,0.06422043311790604,0.04960049276235618,0.06554000868213647,0.07136265787138314,0.08401340216632558,0.07637326052826984,0.075554937773522,0.08494421051120571,0.09775795771537864,0.0,0.0,0.0,0.0,0.0,0.0,0.0,0.0,0.0,0.0,0.0,0.0,0.0,0.0,0.0,0.0,0.0,0.0,0.0,0.0,0.0,0.0,0.0,0.0,0.0,0.0,0.0,0.0,0.0,0.0,0.0,0.0,0.0,0.0,0.0,0.0,0.0,0.0,0.0,0.0,0.0,0.0,0.0,0.0,0.0,0.0,0.0,0.0,0.0,0.0,0.0,0.0,0.0,0.0,0.0,0.0,0.0,0.0,0.0,0.0,0.0,0.0,0.0,0.0,0.0,0.0,0.0,0.0,0
0.7936907774577617,0.5618837080917521,0.24709927346298186,-0.048097362347635,-0.18142457052537034,-0.18601599568937294,-0.13801555570728793,-0.05397294658189797,0.026406588694200744,0.07666216796839782,0.10012105222777508,0.11334935255863475,0.11305382932692724,0.1058701012093854,0.1017430299661104,0.10068752294915206,0.09609836209038,0.1012286759991396,0.09954283762032996,0.09105375551804548,0.095632690657283,0.09343274850408058,0.10101444823868892,0.09522014164743492,0.08598975896955513,0.0832627543435778,0.08373891854917598,0.08411762605225084,0.07778802427159556,0.08130749850547862,0.08144476993941108,0.0748975782789567,0.07160248941588979,0.06825646134403288,0.0714855191023067,0.05150745456965898,0.06459471936283417,0.05117621522327555,0.05759438819931239,0.044136411292805336,0.03397552823146069,0.027116103593322602,0.03018194878382415,0.01338884775021452,0.01645840893281576,0.01622581512992434,0.016004633667912674,0.0058691173340172645,0.008991522417456994,-0.0044128577783772325,0.002067392142595025,-0.0013520602523585873,-0.0014280491502350462,-0.0014663220548827868,-0.0014626824529658075,-0.001412794530552825,-0.0046219918713945275,0.0021535679188144545,0.005679699503486466,0.005961440188254669,0.019552840642830083,0.02660002985205673,0.03703731420921131,0.0475596336973608,0.07141078487557652,0.07880681792206529,0.0896105512488357,0.09720594241368614,0.10159611762668888,0.10940333377323423,0.10739048964303397,0.10548859547673643,0.10700850785751168,0.09871151416297666,0.08390740849078449,0.07252510808604729,0.0579440688942595,0.05009242599795045,0.03903917464421447,0.0380217180856215,0.037108605911262624,0.02305838924912338,0.0190373255618257,0.005184048437349105,0.014594029917286745,0.007546932367657496,0.0038988955296023423,-0.002972445410520377,-0.00976004970328468,-0.009846785864435551,-0.009853828615056391,-0.003162183821513157,-0.003010771351543825,-0.009398977255363013,-0.0024670514448163995,-0.005381859511606485,0.008337092610177817,0.005594259917829613,-0.0036784356941248313,0.01361955816514674,0.01115374287750538,0.008785718777323101,0.009827988667682077,0.03083224483313086,0.028773580073003024,0.030132908428224886,0.034912533251701634,0.03980479887928105,0.03488225837911455,0.03669573261547986,0.041937017926272184,0.0373683021131783,0.039539838465431305,0.038523226610632816,0.03762910188725252,0.040167907017626965,0.03952047152103783,0.04230665748729216,0.04852651269880917,0.04494063999466013,0.0514074831065038,0.05468717753764798,0.05477883516404524,0.058300911130790736,0.0619421616312584,0.05908124300175131,0.06626516033537018,0.06363273144133468,0.08096956809078901,0.08517460519343352,0.08948368974633934,0.09720281781600633,0.1116375380504854,0.11623406296864792,0.12422632207431065,0.13229862193839995,0.1338248396477167,0.13872723255852745,0.15692738890290048,0.15531869469404494,0.16698991835852725,0.16214269303165346,0.1639347505393794,0.16904454517407475,0.17745951990687167,0.18916627248617615,0.22400936347788547,0.2753539407964134,0.4060700077121734,0.5499436649777861,0.7135747667511659,0.8539132921841757,0.9212860358498144,0.8958037979272557,0.7277844969928581,0.4337377396542925,0.1327735525247125,-0.10564733175915307,-0.19551580266576266,-0.18651485562017606,-0.1415481454562604,-0.0804740995139027,0.006650577113464647,0.07020027402659144,0.12012589791861343,0.13327992095614513,0.14278095666906795,0.1354096352524473,0.134353764874231,0.13301220148155468,0.1380223626627899,0.12954253412517994,0.12413820334182073,0.1185153599580468,0.119308797985721,0.10998406039230092,0.1170336021839503,0.1073727781012592,0.1074929080620783,0.1041670748901863,0.09409724900236698,0.10046334680015033,0.09348788055857972,0.08973017717117586,0.08258043762445091,0.07866764766409147,0.06476153001850546,0.06734911430804343,0.0599601727051643,0.05915164921945165,0.05831152959201968,0.06406673721579692,0.05325562875342805,0.03912413241153755,0.04484733517615135,0.03402357806736171,0.033137336566371564,0.03557483251134251,0.03141231370123832,0.027274891823435617,0.013238479741167037,0.01909655417338717,0.01837578365389517,0.024320441463900284,0.02038643383305781,0.01981782056145129,0.025929134459449985,0.0321053841907748,0.01849221536341388,0.021501855051191014,0.02458950422661154,0.031069106467996155,0.034325057348599,0.04098083050620222,0.0,0.0,0.0,0.0,0.0,0.0,0.0,0.0,0.0,0.0,0.0,0.0,0.0,0.0,0.0,0.0,0.0,0.0,0.0,0.0,0.0,0.0,0.0,0.0,0.0,0.0,0.0,0.0,0.0,0.0,0.0,0.0,0.0,0.0,0.0,0.0,0.0,0.0,0.0,0.0,0.0,0.0,0.0,0.0,0.0,0.0,0.0,0.0,0.0,0.0,0.0,0.0,0.0,0.0,0.0,0.0,0.0,0.0,0.0,0.0,0.0,0.0,0.0,0.0,0.0,0.0,0.0,0.0,0.0,0.0,0.0,0.0,0.0,0.0,0.0,0.0,0.0,0.0,0.0,0.0,0.0,0.0,0.0,0.0,0.0,0.0,0
0.7594307196560195,0.5382075921654644,0.21337403436262356,-0.06900410359343083,-0.18780645094427484,-0.17513604422885692,-0.10583992842553168,-0.04405804807539035,-0.0004679803610166967,0.035637808075695436,0.0571494575292178,0.07121088012239674,0.06358477720466824,0.07704929414072824,0.08311250828431045,0.08535349928186202,0.08022395620858093,0.09624652891135282,0.10492766604762137,0.08846379755524728,0.08606662880342172,0.09062208528574854,0.09501566216268736,0.08500542647556393,0.06060292020480785,0.05745413534725492,0.0506254733111249,0.054381410781852914,0.04735129627396941,0.04023559393413503,0.04373453115252916,0.040040234106531035,0.0362890228313407,0.02536306714357235,0.01796179293649515,0.024784499288042442,0.013768545414936918,-0.0008234958319955631,0.009524829572758985,0.009187278808450066,0.015989873995486646,0.004996741265637627,0.018978189384024374,0.025871264540631867,0.02568430557368228,0.036242959486844015,0.036174382314365566,0.03974042391923605,0.043385315770763794,0.03998960313178358,0.040251051860320235,0.044176765353321434,0.05533713325682926,0.06661186181999773,0.07800735561502177,0.07171224863301835,0.09049407240234073,0.08090583727254629,0.07858728873167553,0.0692889426776293,0.06370533460234135,0.06184019103997052,0.0458794824762335,0.04433420775249131,0.035826311251739164,0.03461239072947172,0.0264409647747968,0.032695253958406584,0.031996496593923826,0.03503715505788568,0.031128606718223505,0.034526466287570036,0.045232242818109135,0.05255681021663168,0.06006476624612976,0.05350300836377502,0.04712603373773847,0.040934122003733815,0.04918126718472145,0.046922896085159635,0.048412552151062466,0.0536495941965482,0.05906965146862062,0.05398110995760464,0.0597634478447521,0.05859751085787289,0.05404477093366033,0.06748384454302242,0.07040425287205904,0.07349354223553912,0.06605798190084422,0.08729229872859802,0.09086718918502322,0.08034173833580216,0.07709201443244018,0.08111275899162815,0.08527135306127699,0.07530779711679496,0.07259654032036307,0.0913846802864691,0.09603012658594592,0.09365218191847063,0.09849664384179503,0.09986442912228434,0.11200037457356142,0.10282348013050367,0.10795844830883804,0.10601366743722968,0.1147953485999941,0.12716476028263296,0.12529213448084348,0.11272799239264422,0.12509361629456558,0.1338669497448073,0.13903321086831832,0.1334499734465908,0.13491852862553916,0.13273160026638,0.16250657519428652,0.2527332015677225,0.39626553996873776,0.5610119747828971,0.6899344965375889,0.8115159908048186,0.8152598808143109,0.6690622573116198,0.3942674473082021,0.05497828255647385,-0.16710928888471008,-0.20433119398722946,-0.18499929707997967,-0.11268398837604413,-0.019445983190113602,0.06979168315072437,0.11585387267037055,0.12945392349526275,0.12843156949118348,0.12349892224558988,0.1182404761793838,0.11624010821885578,0.13177156660097675,0.13278268080557673,0.13354595901125235,0.12338883295271927,0.1165824791653748,0.11670699472738973,0.1166514312914773,0.11286774447973097,0.10537079416144143,0.09417487586717653,0.08998422078659507,0.06786771419143807,0.0,0.0,0.0,0.0,0.0,0.0,0.0,0.0,0.0,0.0,0.0,0.0,0.0,0.0,0.0,0.0,0.0,0.0,0.0,0.0,0.0,0.0,0.0,0.0,0.0,0.0,0.0,0.0,0.0,0.0,0.0,0.0,0.0,0.0,0.0,0.0,0.0,0.0,0.0,0.0,0.0,0.0,0.0,0.0,0.0,0.0,0.0,0.0,0.0,0.0,0.0,0.0,0.0,0.0,0.0,0.0,0.0,0.0,0.0,0.0,0.0,0.0,0.0,0.0,0.0,0.0,0.0,0.0,0.0,0.0,0.0,0.0,0.0,0.0,0.0,0.0,0.0,0.0,0.0,0.0,0.0,0.0,0.0,0.0,0.0,0.0,0.0,0.0,0.0,0.0,0.0,0.0,0.0,0.0,0.0,0.0,0.0,0.0,0.0,0.0,0.0,0.0,0.0,0.0,0.0,0.0,0.0,0.0,0.0,0.0,0.0,0.0,0.0,0.0,0.0,0.0,0.0,0.0,0.0,0.0,0.0,0.0,0.0,0.0,0.0,0.0,0.0,0.0,0.0,0.0,0.0,0.0,0.0,0.0,0.0,0.0,0.0,0.0,0.0,0.0,0.0,0.0,0.0,0.0,0.0,0.0,0.0,0.0,0
0.1735741237089103,0.32765704751143515,0.4958412483800442,0.6495996299287936,0.7568391290611439,0.7925904096911136,0.7033724515022447,0.4357002712260317,0.08931533141892439,-0.14695589625513794,-0.1840650368307802,-0.15388597980241864,-0.10631491588583324,-0.0306541290547078,0.06598675911251413,0.09454082657951153,0.09422637153290496,0.09713424444647424,0.11041041213166496,0.1162559431982237,0.10043484170819016,0.09859935550484136,0.11432984271806095,0.11557129343741696,0.10233951364244813,0.09603065648234824,0.11447687590438935,0.1220575331372536,0.08671490452959688,0.07260481875996204,0.0761764083496469,0.08318798028279381,0.06514351064408809,0.05768933465668205,0.07152704929569789,0.07815960054169234,0.04196260173126819,0.03777938803799319,0.05136589721358143,0.05066044059103746,0.028545485204356506,0.031355557350638,0.041282265521186495,0.044080548933873684,0.032632115403950834,0.024762864874401196,0.038298534127630686,0.05186637358382893,0.03696646716180702,0.03636838953558441,0.057206655503306364,0.07098072297763257,0.05988022635100624,0.03816583265144,0.06285975955806038,0.08764289629457007,0.06975930529022806,0.07335723589042567,0.08775135105259789,0.0880019969305849,0.06342303093888672,0.056780183047325974,0.05382306604090953,0.061681933829851834,0.0589788711742067,0.03858960444177377,0.050405365175657885,0.05879349186645026,0.035248045986623684,0.018969057623914,0.038465918112765486,0.0652321238726734,0.052943541471773374,0.03723592391771919,0.046617784491749616,0.05258165022582289,0.023056327558620842,0.022184522638127004,0.028585126226195568,0.03869435568383664,0.020440385411598518,0.02371140893838874,0.027125767504111543,0.048500046339518335,0.034380944959446755,0.02040210798734788,0.035070033133240336,0.03918485351388045,0.03630837694810461,0.02287524032177402,0.034518261526756966,0.046290856504705366,0.0403732436146712,0.031016797300608256,0.02534571513154459,0.030484039592521574,0.028611273909528417,0.02328769391447902,0.028763894895979,0.03790943067804165,0.029339761247790436,0.01730503208873336,0.023182216994279727,0.03271332818914032,0.042330724500002456,0.030649163665143427,0.026172016830171348,0.050275526886168334,0.04593908076834863,0.03097505162572165,0.033886045424954644,0.05466661322262616,0.05054928659284174,0.0464725863593632,0.042430368069042525,0.05267020492321522,0.06649504544089968,0.04826316225961271,0.047856195646135656,0.061703231986131264,0.06128870585380724,0.04304115583768797,0.017642764100183547,0.03497386014581695,0.08789888519562943,0.18709954312313049,0.3432570983074037,0.5385439795949866,0.7052420744859715,0.8255194028215065,0.8423420956844747,0.7271800565955758,0.43368153984326174,0.09010205152903793,-0.12185275808798215,-0.14876323941568026,-0.11537254206760965,-0.06444947054944188,-0.013807456444875002,0.04725409139692557,0.0795482507742034,0.0723957632495757,0.06144231020100504,0.06807926101022257,0.08162629030822402,0.06289483229486961,0.04752915062999808,0.07117319449928645,0.07682000032945963,0.046660611229161694,0.04128241130281906,0.05000280126472557,0.0,0.0,0.0,0.0,0.0,0.0,0.0,0.0,0.0,0.0,0.0,0.0,0.0,0.0,0.0,0.0,0.0,0.0,0.0,0.0,0.0,0.0,0.0,0.0,0.0,0.0,0.0,0.0,0.0,0.0,0.0,0.0,0.0,0.0,0.0,0.0,0.0,0.0,0.0,0.0,0.0,0.0,0.0,0.0,0.0,0.0,0.0,0.0,0.0,0.0,0.0,0.0,0.0,0.0,0.0,0.0,0.0,0.0,0.0,0.0,0.0,0.0,0.0,0.0,0.0,0.0,0.0,0.0,0.0,0.0,0.0,0.0,0.0,0.0,0.0,0.0,0.0,0.0,0.0,0.0,0.0,0.0,0.0,0.0,0.0,0.0,0.0,0.0,0.0,0.0,0.0,0.0,0.0,0.0,0.0,0.0,0.0,0.0,0.0,0.0,0.0,0.0,0.0,0.0,0.0,0.0,0.0,0.0,0.0,0.0,0.0,0.0,0.0,0.0,0.0,0.0,0.0,0.0,0.0,0.0,0.0,0.0,0.0,0.0,0.0,0.0,0.0,0.0,0.0,0.0,0.0,0.0,0.0,0.0,0.0,0.0,0.0,0.0,0.0,0.0,0.0,0.0,0.0,0.0,0.0,0.0,0.0,0.0,0
0.14300336165009506,0.2868568539998637,0.45940500850970595,0.6138233066616099,0.7356905069225471,0.8393872533185355,0.7952657380451619,0.5852931557296156,0.2598444920248965,-0.05869580719282697,-0.1795328279153459,-0.1855131494507694,-0.11985948280963353,-0.03657877325661814,0.031937136601147983,0.07130297581223244,0.0815357910773094,0.0878566079233054,0.09028170885705987,0.08882693710237262,0.08710830380894646,0.08154013732290379,0.08653942712108481,0.08051656163516913,0.08868954794751667,0.08226670054096845,0.0864651804673364,0.07609306676266643,0.06556481881602326,0.051291418878900735,0.05128723738538301,0.0547614336368805,0.047322291164169104,0.046983393700883086,0.04655375302806914,0.038842146009805366,0.02385835541029944,0.01961506645526585,0.02972236774085212,0.0181834371089522,0.010211832475226943,0.005816685497019766,0.019409554110301097,0.022194535154245312,0.014180583095835218,0.01337963810161462,0.016199853428527432,0.019049315435326914,0.02193664881594656,0.0320716216866373,0.042261415142616436,0.05251428858988751,0.0520364321240362,0.048036869941442094,0.051324985390771516,0.051106205629656634,0.05818941719748705,0.07618201243372923,0.07268489938628978,0.08731099188196083,0.07325797629630018,0.0701379664766435,0.05995280062928675,0.04990830161182512,0.05441123118674529,0.05546252756499942,0.06746843091141018,0.06522809139924103,0.0667477538729695,0.06122838236103709,0.06667556182869483,0.06868899708925555,0.063669917581565,0.06242168663727301,0.06134487190065206,0.06764158691088352,0.059708683807210186,0.05194886986541405,0.03716083781117368,0.040548594635844856,0.04770914884767293,0.04063868687748271,0.0589430659615129,0.05221245678138317,0.04204912199233109,0.03205196651507325,0.03662154302805862,0.044953908608771735,0.04624493722698201,0.03329089741736315,0.04569587783771874,0.05105141400241732,0.03495190961867513,0.02619894515000691,0.028389590959247545,0.03071830907671661,0.03318127758812103,0.03577452098762232,0.03849389786299391,0.04493570726385168,0.03709233976363776,0.036562773936179266,0.025338990214683083,0.0322208375663025,0.0464012255843185,0.046271044754481856,0.039025908231994574,0.03906243648572938,0.04637457751722827,0.05015422601250839,0.04319366411914682,0.04348925855472223,0.0654365407340452,0.0550190572711332,0.055436749627379336,0.06308123282107436,0.0743438446867607,0.06401189164613245,0.05368035974947618,0.043340198980935885,0.0473845682606464,0.036998977794379016,0.048179848885116575,0.10252094050316332,0.2144145320506842,0.3802492936529046,0.5460041526801264,0.7152660446073409,0.8664148395476448,0.9130156832638584,0.811836821457973,0.5556481280980372,0.21642904332583507,-0.0582307649340952,-0.1711513815846956,-0.16557151364968714,-0.10271670544377744,-0.04019615265342975,0.022000616473068068,0.062284176315245965,0.08426932659068335,0.10237241359942004,0.0950031689503889,0.07657700573492884,0.08311257803521807,0.07861577035945835,0.07750072233522452,0.0725774645045554,0.07825935591256228,0.05855072203477042,0.07467221908000501,0.061822533797822335,0.0,0.0,0.0,0.0,0.0,0.0,0.0,0.0,0.0,0.0,0.0,0.0,0.0,0.0,0.0,0.0,0.0,0.0,0.0,0.0,0.0,0.0,0.0,0.0,0.0,0.0,0.0,0.0,0.0,0.0,0.0,0.0,0.0,0.0,0.0,0.0,0.0,0.0,0.0,0.0,0.0,0.0,0.0,0.0,0.0,0.0,0.0,0.0,0.0,0.0,0.0,0.0,0.0,0.0,0.0,0.0,0.0,0.0,0.0,0.0,0.0,0.0,0.0,0.0,0.0,0.0,0.0,0.0,0.0,0.0,0.0,0.0,0.0,0.0,0.0,0.0,0.0,0.0,0.0,0.0,0.0,0.0,0.0,0.0,0.0,0.0,0.0,0.0,0.0,0.0,0.0,0.0,0.0,0.0,0.0,0.0,0.0,0.0,0.0,0.0,0.0,0.0,0.0,0.0,0.0,0.0,0.0,0.0,0.0,0.0,0.0,0.0,0.0,0.0,0.0,0.0,0.0,0.0,0.0,0.0,0.0,0.0,0.0,0.0,0.0,0.0,0.0,0.0,0.0,0.0,0.0,0.0,0.0,0.0,0.0,0.0,0.0,0.0,0.0,0.0,0.0,0.0,0.0,0.0,0.0,0.0,0.0,0.0,0
0.0874019395640596,0.1783177749338791,0.3304042285291525,0.5232737327068259,0.7059639913460595,0.8716712023947232,1.0,0.9754344220879492,0.7707757274593767,0.4471425186177246,0.11660467161553628,-0.0781970967505949,-0.1406940180002841,-0.1524410903181542,-0.09306969110164093,-0.0237249197289814,0.03861807647961516,0.07358939557613148,0.11177406994990632,0.10562556865410128,0.10611004823182267,0.09625296719468214,0.1100343809317886,0.11349369366376362,0.11683086987669747,0.11326026411229928,0.11637769772902412,0.11939637481291107,0.12571994304705816,0.12176641065677647,0.12112922522912233,0.11022515755763812,0.10264644075120054,0.08480868883143787,0.09068512152033063,0.06592631362166819,0.054695632873926835,0.05020098995627605,0.052444039060086295,0.051235157886230336,0.04317847890575072,0.03167189540426562,0.023510093270181137,0.025487600032426123,0.03760480867909805,0.022494891313285668,0.0209220274032335,0.0023131055438955807,0.014226105109287668,0.005705747547603525,0.014118904051258119,0.022480281361007475,-0.003180526852825576,0.0050762155341519035,0.003089266455359407,-0.00574452260430556,-0.004440281625547736,-0.003188662820885049,-0.005385879585715833,-0.0076338254021051,-0.006533882093557291,-0.00887773175571136,-0.014662418775042124,-0.010296110172777359,-0.01275865649700411,0.0017351717768477645,-0.0007773281723879832,-0.0033037404139978897,0.0009573993433600193,0.015410860751184726,0.01628534071251781,0.03755860349420067,0.03847414504235463,0.04281843491855224,0.05059869084736289,0.07201294194672905,0.07989187089413069,0.08782990224452883,0.0924360186176172,0.09711278047394327,0.10186527759877903,0.10669811421349387,0.1116153852130694,0.10303261802118573,0.11152589242197028,0.11331863711353933,0.12200081661155525,0.1103977268963039,0.10908319836209196,0.11126341596758324,0.10674701076026724,0.09553308295610144,0.09460524151190236,0.09377054975761104,0.08623260649214366,0.07878257564239781,0.0714171729818736,0.06073571187601034,0.036543131614017316,0.03620218673910048,0.022341262184791103,0.01194069779660788,0.011789696228210907,0.004898340963493223,-0.0019442839958553422,0.0014478893553328835,-0.0019149542322553848,0.0015504392092628605,0.00504545459732731,0.001771469097181595,-0.0116731568580211,-0.011514003731012485,-0.004548619491265943,-0.01116149225863065,-0.004178559101548053,-0.0005858071840684687,-0.003780792726397225,-0.00017597382114430547,0.003434499643293929,0.007050511486399314,0.0004809028696077338,0.0007105476632581747,0.011136283352444936,0.01137588440324603,0.0014291205714181056,-0.008513269781156534,0.005327478542531826,-0.0046062388987118475,-0.007740857794276119,0.006115572788050362,0.006391637219778593,0.006676999731929012,0.013767275606970756,0.014075995771278929,0.03478072425704138,0.01813374233690291,0.01848843772091185,0.018860929051570868,0.015855276509924267,0.023060488448283883,0.013301392000388162,0.02394586040600198,0.024421530494278903,0.018126004316896118,0.028838812788973676,0.03278127726305397,0.026556625868710902,0.03734099928577506,0.05154630346875691,0.048790240676805284,0.046057348884559965,0.05014089662990949,0.05424588818326782,0.06516511109129594,0.05572099671938821,0.053087786530304534,0.05386636692517818,0.0682453928469399,0.048664105488582084,0.03928063418606218,0.02310671204152404,0.023917977696131285,0.011137818334566256,0.018732662960091573,0.016125723478409338,0.016901228569280162,-0.006120775658343567,0.001407876282729216,0.0021167019834478057,0.00959033942311854,0.0034433310457121264,-0.00953376069503726,-0.005565348086137931,0.011948994331207392,-0.0113449067038743,-0.0007149613802901434,-0.0105143249377479,2.0153170487717732e-05,0.00031544395318716336,0.003959628755728471,-0.009429297605555926,0.0077068097911739564,-0.0023802716996288893,0.011265468588281657,0.014675055067399056,0.01464355776506456,-0.005813086132933874,-0.009326876735676077,-0.002690372346432569,-0.006283279195914326,-0.0099119714728162,0.0034117905360557038,0.003119069248629358,0.012993045946801084,-0.0009322581009827144,0.015699334283241433,0.011936825491296894,0.01496033480753469,0.004391802899622309,0.0006171975757440242,0.010434430704339371,0.010068334611216742,0.02330180838258696,0.016168556344884115,0.022642336219151703,0.02234468896073032,0.011882084789192402,0.028624984142856306,0.014827550184504532,0.024845083293023533,0.02131358033961937,0.021221049893002664,0.034761376963617176,0.038158255504831484,0.04839930760532013,0.05189888810583691,0.04865914383132788,0.048872987597846126,0.04574804644981281,0.03928572005707615,0.04647222182516491,0.04013245829363416,0.0474432395638509,0.03783203065678694,0.024887169814589667,0.025593814614435738,0.0161728962554619,0.01021231141473999,0.014505858914495491,0.015465235544301252,0.006296082554800676,-0.0028109936536277395,0.0017315903341641988,0.016526642501808998,0.01100089421352682,0.008933130123246466,0.00013199492859987822,0.0049791651182114005,0.006489223073722471,0.008058777252044277,0.00968739516879012,0.014771612540869512,0.023310908153033504,0.021716652951240062,0.023576169288366863,0.011903594477383744,0.024065083873335048,0.036280580400006535,0.0383579406364948,0.03369287373972461,0.0426659395528303,0.05168744450275175,0.04716748168673098,0.04269195372624782,0.05524353590055619,0.08142263905804578,0.16878452525716547,0.3037378965298826,0.4930726619566336,0.6790340505199032,0.8446289277810574,0.9592727301504792,0.9618035944372696,0.7740698186109657,0.4775742908967133,0.15381602917056472,-0.04776816665923039,-0.13060764804778416,-0.1354943219213843,-0.10320768747975388,-0.037147278515025216,0.01853307396878923,0.05365315291096172,0.09539974203240277,0.0996221783894244,0.10030051742882737,0.0,0.0,0.0,0.0,0.0,0.0,0.0,0.0,0.0,0.0,0.0,0.0,0.0,0.0,0.0,0.0,0.0,0.0,0.0,0.0,0.0,0.0,0.0,0.0,0
0.9930334556624191,0.8290702831699245,0.524011969114493,0.16310047102721725,-0.0905586532457473,-0.16655854275930107,-0.16875575052584416,-0.1342485318891497,-0.055624127325314486,0.02263216271682173,0.06345615259241141,0.07057061131122161,0.0773613126498405,0.06901077920447529,0.06036446881235424,0.04402000272112106,0.019990530867971545,0.025368135649568083,0.030502324902853924,0.0205741406478861,0.021551540208525462,0.029739055990345133,0.05256485840906129,0.04183824034588952,0.02723445223266222,0.045844365821906125,0.04206083529518563,0.056682282266884786,0.05634861292825043,0.06331817889833835,0.06276989749365915,0.05471403046362126,0.050284271475989586,0.05319821011648037,0.059757354037556464,0.047723368620889835,0.04306051878870665,0.0494853393107016,0.05959040388613135,0.0474284625078157,0.02783903503198329,0.030493065196342376,0.02944262870420533,0.043234631864934966,0.02738127442363389,0.03750825186284214,0.04025115661597478,0.05044829190251193,0.04585860712667024,0.05244369777853127,0.05537786223971239,0.05466679769713431,0.04660800919245832,0.06457788099283765,0.0715021744623667,0.07109339589116329,0.052232033034680735,0.05570903176466541,0.07782009372132201,0.08148940469616395,0.06671991393971648,0.07059331581496166,0.08198807275798732,0.08236646372640613,0.06802201876125898,0.06861909337480053,0.0841583809216073,0.08497690961320466,0.0821983546846417,0.07953013597452346,0.07697134707373343,0.0708127686665272,0.035097305044736696,0.0031941505315191245,0.01588815447540255,0.00643460783166916,-0.010337142254314358,-0.015889865554272502,-0.00280909557925972,0.002949906393364834,-0.006028277769937687,-0.007495758904653789,0.002256348560377941,0.0009822355017786151,-0.00019268118204112493,0.017272841008047914,0.04225674082830288,0.041389379135087605,0.02579588857243821,0.021432855861287237,0.028301331951488012,0.04269434537266634,0.031241461100203868,0.023606589988872044,0.0346218256623446,0.042039991151864894,0.04215331265928818,0.04237755195435805,0.035296599016462565,0.024617877705074145,0.036296126932358376,0.029543487914027562,0.04143814076006819,0.03489981274406632,0.028466752788124838,0.01842954377959461,0.01961820255180276,0.03944682327846143,0.018586927435205212,0.03119478847768174,0.04018912924846022,0.03815183866375178,0.02508043520601733,0.012095992366368541,0.021443204001585198,0.034579635673056754,0.029254830470204638,0.0314210569115964,0.03736711519406288,0.035965817897254296,0.034629367044985045,0.02964603906413588,0.032135598258544444,0.04209391493400889,0.037269207182647805,0.03248863518648542,0.04257917278151005,0.04528847880105364,0.03319566020637643,0.010003343284188736,0.0053693951345360575,0.026704141305059173,0.0406308126809948,0.03972791341850937,0.03511332079944609,0.037904713466081,0.04438793347029395,0.03601697231660531,0.042448497897192516,0.06367567597178699,0.09227562954573458,0.16902806157332564,0.3124647220950146,0.4929136176836232,0.6807011925883628,0.8164881044427723,0.9113819972374398,0.7688431781893413,0.4815447875694135,0.13103237566485798,-0.08620554202667237,-0.14053729168706475,-0.12839212867394742,-0.09056722846301732,-0.0233525862063712,0.039891254271118,0.07322179815216312,0.07665175795484179,0.0872726326477212,0.07914097858946202,0.06709998359099006,0.05857660924644216,0.06470539690598502,0.07066518824510276,0.057926586156346715,0.052454823277703566,0.05425943582259279,0.05964178247436941,0.050071289595417165,0.05151206841058385,0.05284882722878882,0.050381847310505316,0.03299531516017445,0.02665231793248105,0.01652870999010564,0.0434189412733597,0.025756175632719345,0.004334563270239602,0.008824379839253145,0.02440089624889988,0.010283932494784152,0.0035594069429378296,0.004234033980249925,0.012314510196574622,0.02409959575564817,-0.001191163310824652,0.01802286197716749,0.03354537980196905,0.026843330279198968,0.023878468868953555,0.035780755790885535,0.0514325403366151,0.056008077638035315,0.03838928092028572,0.03195276643949403,0.04411955171374707,0.05635508770566315,0.042708774268205935,0.032848458318121096,0.03419428169259468,0.04675039147462502,0.022317865448477487,0.0387666663486934,0.051605441874201456,0.0645455442179231,0.06275849126583019,0.06478671547970581,0.08546442027292872,0.08771467154202768,0.09007883670065066,0.0999740988212438,0.11369344481422555,0.1164056159516762,0.09698670029439993,0.08139135643460171,0.09557375803098488,0.08020562089866573,0.06494814912672335,0.0572146542404441,0.045878546744628435,0.03835252735054582,0.0272174063529397,0.027301293819605,0.027476756939668542,0.016616226395788063,0.02067114804631694,0.002558325317359823,0.02160025493393017,0.0295898784069217,0.019107097061381858,0.0012712405527062845,-0.0016747112313506,0.036220130496710884,6.033895931923637e-06,0.012039662405375736,0.012989831892482082,0.02880734891318357,0.011284649955292572,0.004911908868577817,0.0022684294962857,0.01447306740185851,0.008149683735214531,0.012956626632051705,0.006641389896376757,0.01886221613233574,0.012534840130060551,-0.008638029815969197,-0.007582510781942178,0.004573202441460929,0.0018699743782915727,-0.0008642854979825799,0.011198322936234234,0.015806629352179708,0.024080644733009197,0.01747697898114691,-0.011424132636362428,-0.01071589814220045,-0.002648745385409079,-0.009472084204706691,-0.01264800499257163,-0.01217727457322292,-0.01547528872230136,-0.004000879582726985,-0.014830137984211782,0.00024327621389758574,0.0,0.0,0.0,0.0,0.0,0.0,0.0,0.0,0.0,0.0,0.0,0.0,0.0,0.0,0.0,0.0,0.0,0.0,0.0,0.0,0.0,0.0,0.0,0.0,0.0,0.0,0.0,0.0,0.0,0.0,0.0,0.0,0.0,0.0,0.0,0
0.20438901125437836,0.3323936610330198,0.4741577534572086,0.650418574030252,0.8127350787998765,0.9368745572543232,0.7703195716059539,0.4756037516952262,0.15299851296460712,-0.09376830922885422,-0.16442844245401414,-0.16623258229079296,-0.11994585528356068,-0.04285879794802931,0.03737305425631928,0.096557035389149,0.13125308024489651,0.1380206408328213,0.13071250256348507,0.1300983566109266,0.12927685711994644,0.12826360361024322,0.1409087409505929,0.1326386016249836,0.12767837844049035,0.1260410154777951,0.12428002049234675,0.12586586690119814,0.12043321498793705,0.12182768124020132,0.12660029031285064,0.12784265978899756,0.13593976391700668,0.14398194806523998,0.13122368616987726,0.13225949919080865,0.12980128296938329,0.13077185758283896,0.12825820236863586,0.11534664280494633,0.11279324654565608,0.10676552517803016,0.0938068201231226,0.0946715245077464,0.07477279549116286,0.0652404776084838,0.05569846633075525,0.046146724726657234,0.04350253323921952,0.03393015397780412,0.0174288232724695,0.01820919333588893,0.01897625403653121,0.01281129799692041,-0.0002868811750081583,0.00043323367223473374,-0.0092411861895788,-0.008558598521416196,-0.01135456250496361,-0.0037934407883222156,-0.010085294602902594,-0.012934249603152356,-0.0192550588739165,-0.0013732674129209885,0.009587844145909812,-0.00020088470424079044,0.007313306590699869,0.007924834868719205,0.018933655601359817,0.01959290736924247,0.01682601755143526,0.017556315562469473,0.03216584462012924,0.0399073787605548,0.04770391465738871,0.05556065358069832,0.05656496241429632,0.061097919905430675,0.07608152404319662,0.07730828592702367,0.0820759114488093,0.07655253855895516,0.08149387416171255,0.08998485893191452,0.0743572384749792,0.06920067127216227,0.07105766675177959,0.06955279247210924,0.061227856569776924,0.0495419152841273,0.04487131458190353,0.05067455685359101,0.039280738733036114,0.03835947041475175,0.04790978222283178,0.04717772508397389,0.05345588764271211,0.05290744125488892,0.052448077596952684,0.05553442587480481,0.058705257187277336,0.06195786289441357,0.05491284702994892,0.05140208937168899,0.037586811666478814,0.04459235178414539,0.0343679009936438,0.027661992468961717,0.007176210277834381,0.004035171244804181,0.0043990831799332756,0.0013457295841089536,0.0017880636961653186,-0.008113755573755536,-0.0006940030557418658,-0.0036269497065532477,-0.006540023285911494,0.011316086806705742,-0.008861039992802635,-0.011733549028729357,-0.0042211066467000985,-0.00015986037186409364,-0.0064679608575578295,-0.005851958036997692,-0.005229372920503329,-0.0045995747156995035,-0.0039614358397834955,0.003604204116326764,-0.006112299501947993,-0.00543864037009746,0.002168887104775273,0.006336909319720942,0.0036096376940359773,0.007825241629173672,-0.005224904788348713,-0.004408699664771216,0.003359677992873521,-0.0026687237293416487,0.005180297523035582,0.0026992286331016533,0.00026850991587211816,0.008268568190219374,0.016327041332422153,0.017530323809258914,0.018799920185664176,0.0270572473749534,0.03192963862413772,0.029961887760672736,0.04191021449720568,0.036648719736834735,0.041850859698377096,0.04368433215696318,0.038693019433446885,0.0580085647604281,0.056668863371914666,0.05542868119256342,0.0715837028693737,0.07746496277250994,0.07999111668702906,0.08262163513983332,0.0922743866355823,0.0951140389707157,0.10497518203646553,0.10110395082046207,0.12154552030121699,0.12133340953731153,0.12121769059319827,0.13503023299960085,0.12472033119867965,0.1317889569482656,0.1320192976710608,0.12886426531170792,0.12231731378502075,0.11928884855116767,0.11631226968372617,0.1064615828786902,0.12085698953745275,0.11798340215333815,0.11858349173485523,0.13648174350682066,0.1370788787098228,0.13419810724250206,0.13820315567576438,0.1629158775233203,0.20832224354973905,0.2951601975402466,0.430331449935488,0.5965246498417359,0.7556735071079697,0.8489559613598744,0.8694281428557107,0.7236719887404149,0.4324054208184511,0.10973028673453836,-0.10604214236032368,-0.16998868816676746,-0.17898681364886868,-0.1434278845118106,-0.06676866684679789,0.026794911303949155,0.08540288145483564,0.11945350394584195,0.13934461210254126,0.14855584611630554,0.14364855358876502,0.13847732900902254,0.13651965482339118,0.14125232109153882,0.1353986476748151,0.1293516316396897,0.13350359305939372,0.12711702384893395,0.11712413187207725,0.11045648940747108,0.11058628517976304,0.1071499638977908,0.10015981113898824,0.09308637466431023,0.09285849936899686,0.0891105750497112,0.08877051687732282,0.08838940066980397,0.08451785839254257,0.08754127179728564,0.09746820624646636,0.08663640592943336,0.0896414904946362,0.07536148567502182,0.07147353386287618,0.07452521924299071,0.07414617276580611,0.07380084448902953,0.07003571787282292,0.07669089703982915,0.07301815660069481,0.062480473244966014,0.06929324617144994,0.07270718904315879,0.07272545665691793,0.06589204234026667,0.059126969593483236,0.055891134523293376,0.052727541734893496,0.053096512244488664,0.043164113763871935,0.03676653198900045,0.020069353328537144,0.006908363825210301,-0.006174740491721762,-0.001885510534775836,-0.0009756878828693684,0.0034735484753064113,0.004545920508046436,0.002242728682584629,0.006941644536574405,0.015185136660663059,0.02005684100393449,0.03193430725649266,0.036983399290851766,0.04212260890803378,0.04043505125870147,0.049215216413857815,0.058087008802524015,0.03938009711093585,0.05535260585714267,0.05066333292512522,0.0564407477693519,0.0484722995941756,0.04750952853363919,0.03625695509354008,0.028548043632099132,0.0,0.0,0.0,0.0,0.0,0.0,0.0,0.0,0.0,0.0,0.0,0.0,0.0,0.0,0.0,0.0,0.0,0.0,0.0,0.0,0.0,0.0,0.0,0.0,0.0,0.0,0.0,0.0,0.0,0
0.15128775996112873,0.2616616015600851,0.4055861668194372,0.5830507952403369,0.7604657835960545,0.89416540896677,0.923691638705222,0.7785088648979888,0.5190272188819413,0.1821490290916915,-0.08442182234398639,-0.17663248327762532,-0.1515917525144628,-0.08318015617234845,-0.011686804355595527,0.039395602344842455,0.0734370854220639,0.09716517087086013,0.09716080862236663,0.08015067166009296,0.08308026048084786,0.0858137496731013,0.10179191322106806,0.08737417088523401,0.08286197045913714,0.09497930806841352,0.08344194481298052,0.07511919649030957,0.07673375280991973,0.07486171900711902,0.07286732404697514,0.05396821370773204,0.051747191626584484,0.04606356792438298,0.030207199904838368,0.020971624911755284,0.0049309159355960435,-0.0011216455739592312,0.009534092739075793,0.010041374989969593,0.0071204124205741,0.010849067545571156,0.007801256919647019,-0.002018351229031057,0.008256484159057465,0.008411270731819428,0.021954698530016744,0.011956788903372395,0.01871458746132566,0.02544415487439061,0.012003756760439237,-0.0014560507269740265,-0.011573278851602259,-0.018343502032084284,0.0017427151323654044,0.008400222560835495,0.0016362792152954948,0.011677415373944998,0.008311526498901932,0.008334270381073693,0.0016796514160972564,0.0017855426861906566,0.015374405915905337,0.022307082064441482,0.036021350016016696,0.036377862322391305,0.050244912144441496,0.0608404915175703,0.07152855013084844,0.06552652459266058,0.08984782198303076,0.09748988031762736,0.09853061352798953,0.1030474480962546,0.11775961637178768,0.1292396265884848,0.12070169670245542,0.10557871178901856,0.10066065489471443,0.10930617525370537,0.0979387025201271,0.09677744793162894,0.10246411823530034,0.09149372741276246,0.08401089636120687,0.07329817667155017,0.07278390875845545,0.06903445470806484,0.0620466186057954,0.04845915788508577,0.045056728624509934,0.04511983424891924,0.04864415585893128,0.025405835638649808,0.008977100665789075,0.01278384211065682,0.016674891461009946,0.02400292664332796,0.011258930371995029,0.0019415860626283892,0.012834117876784026,-0.009791990805711977,-0.012218873425071409,0.00219134166264005,0.02000458245521795,0.017713661554635232,0.005388306336999911,0.016602065968045334,-0.002371775800350097,-0.001171272355791053,-0.003303684320685254,-0.008772250688633526,-0.004149090684407024,-0.012940206445713587,-0.018358788190189063,-0.023763005694085404,-0.009005374290843252,-0.004301674023933314,0.003783289809892919,0.005181210214982989,0.01668537311687323,0.02822742669741098,0.046527443110101575,0.04137063709456481,0.0698422292255279,0.06143457699575265,0.06315924047652029,0.07501965185036077,0.07351501714566845,0.08550968948814931,0.08078672927344288,0.08956739598342645,0.09506472445046453,0.0905644061090558,0.07606706002948609,0.07843446429764839,0.09095100186708817,0.0934698576002103,0.09942077640145776,0.09201372250864293,0.09475058081215272,0.10762886577582853,0.09706860331356,0.10335871374841184,0.11306440838515655,0.12953888913352135,0.1259154792638489,0.12905007802731208,0.1355786417803445,0.1320633771898754,0.11849661894844404,0.1351624591881604,0.18540968128128765,0.28937490018631656,0.4436898934553985,0.614765678448841,0.7891572629557131,0.9198395661396441,0.9228488451011956,0.7578668769792611,0.4651556601814214,0.1319812244967388,-0.08723869646993075,-0.15560658080951958,-0.15709387220616575,-0.0984300976856214,-0.02326457663253119,0.03819352834655949,0.07924117513781849,0.1032482350988861,0.11022648190182212,0.09347177001810117,0.09328722350265446,0.09289457389658266,0.08558819074398287,0.08480818799431115,0.08049034129813666,0.0,0.0,0.0,0.0,0.0,0.0,0.0,0.0,0.0,0.0,0.0,0.0,0.0,0.0,0.0,0.0,0.0,0.0,0.0,0.0,0.0,0.0,0.0,0.0,0.0,0.0,0.0,0.0,0.0,0.0,0.0,0.0,0.0,0.0,0.0,0.0,0.0,0.0,0.0,0.0,0.0,0.0,0.0,0.0,0.0,0.0,0.0,0.0,0.0,0.0,0.0,0.0,0.0,0.0,0.0,0.0,0.0,0.0,0.0,0.0,0.0,0.0,0.0,0.0,0.0,0.0,0.0,0.0,0.0,0.0,0.0,0.0,0.0,0.0,0.0,0.0,0.0,0.0,0.0,0.0,0.0,0.0,0.0,0.0,0.0,0.0,0.0,0.0,0.0,0.0,0.0,0.0,0.0,0.0,0.0,0.0,0.0,0.0,0.0,0.0,0.0,0.0,0.0,0.0,0.0,0.0,0.0,0.0,0.0,0.0,0.0,0.0,0.0,0.0,0.0,0.0,0.0,0.0,0.0,0.0,0.0,0.0,0.0,0
