-0.04668874628145755,0.017902079476511883,0.16691486787220816,0.4076020449214726,0.6145451444807691,0.7684597084643673,0.9079505948251942,0.9317122130370494,0.7143126041689328,0.3570603400559352,0.0673964670381567,-0.03407833699257296,-0.0293870918020904,-0.0029617625794002627,0.011424317429046838,0.05236358229972055,0.06919764297575055,0.01609221431272015,-0.015292911506599246,0.02087050280102427,0.04256645549074284,0.011198132038479757,-0.02016854603518383,-0.0008798960655097105,0.04494201180345619,0.018397522197136112,-0.012972627271513418,0.013547843292487772,0.07383786303714061,0.0641742588202066,0.0,0.0,0.0,0.0,0.0,0.0,0.0,0.0,0.0,0.0,0.0,0.0,0.0,0.0,0.0,0.0,0.0,0.0,0.0,0.0,0.0,0.0,0.0,0.0,0.0,0.0,0.0,0.0,0.0,0.0,0.0,0.0,0.0,0.0,0.0,0.0,0.0,0.0,0.0,0.0,0.0,0.0,0.0,0.0,0.0,0.0,0.0,0.0,0.0,0.0,0.0,0.0,0.0,0.0,0.0,0.0,0.0,0.0,0.0,0.0,0.0,0.0,0.0,0.0,0.0,0.0,0.0,0.0,0.0,0.0,0.0,0.0,0.0,0.0,0.0,0.0,0.0,0.0,0.0,0.0,0.0,0.0,0.0,0.0,0.0,0.0,0.0,0.0,0.0,0.0,0.0,0.0,0.0,0.0,0.0,0.0,0.0,0.0,0.0,0.0,0.0,0.0,0.0,0.0,0.0,0.0,0.0,0.0,0.0,0.0,0.0,0.0,0.0,0.0,0.0,0.0,0.0,0.0,0.0,0.0,0.0,0.0,0.0,0.0,0.0,0.0,0.0,0.0,0.0,0.0,0.0,0.0,0.0,0.0,0.0,0.0,0.0,0.0,0.0,0.0,0.0,0.0,0.0,0.0,0.0,0.0,0.0,0.0,0.0,0.0,0.0,0.0,0.0,0.0,0.0,0.0,0.0,0.0,0.0,0.0,0.0,0.0,0.0,0.0,0.0,0.0,0.0,0.0,0.0,0.0,0.0,0.0,0.0,0.0,0.0,0.0,0.0,0.0,0.0,0.0,0.0,0.0,0.0,0.0,0.0,0.0,0.0,0.0,0.0,0.0,0.0,0.0,0.0,0.0,0.0,0.0,0.0,0.0,0.0,0.0,0.0,0.0,0.0,0.0,0.0,0.0,0.0,0.0,0.0,0.0,0.0,0.0,0.0,0.0,0.0,0.0,0.0,0.0,0.0,0.0,0.0,0.0,0.0,0.0,0.0,0.0,0.0,0.0,0.0,0.0,0.0,0.0,0.0,0.0,0.0,0.0,0.0,0.0,0.0,0.0,0.0,0.0,0.0,0.0,0.0,0.0,0.0,0.0,0.0,0.0,0.0,0.0,0.0,0.0,0.0,0.0,0.0,0.0,0.0,0.0,0.0,0.0,0.0,0.0,0.0,0.0,0.0,0.0,0.0,0.0,0
0.1882731076945736,0.3553769305297776,0.5730596016538505,0.761713263126124,0.8682612032249287,0.8492716331230096,0.6902546170692855,0.4201352645277943,0.1281398053190515,-0.06273707130019512,-0.12598863137952504,-0.08575802111557652,-0.09643429250486203,-0.06153133255290704,0.031019732711163605,0.08233321093642194,0.06106437489838658,0.022706668853092,0.05169942611688837,0.09257526029219544,0.056095966371747435,0.017051311304387147,0.04781859869394322,0.06639534351600658,0.04384684468719011,0.018779189372499224,0.058744439884905686,0.07691486126975396,0.056415727940481435,0.016554672713957202,0.02729488649724291,0.05969997995155388,0.03658976996002255,0.011041649625737223,0.01442318331629346,0.03950695434811861,0.03323399948325571,-0.009211184747373749,0.011079595220002077,0.045872253235573326,0.022810819099728343,-0.002615214893737407,0.0009617008430507336,0.04319971855673981,0.04691840253890232,0.016951318498723198,0.013612003452572272,0.07067989814321944,0.079615586207649,0.05248844114248021,0.04237454707450363,0.09993754282312156,0.1094002376374077,0.08524281579857725,0.08053984042957736,0.1170070711919034,0.1681162077441986,0.13256069588909225,0.1213052329842358,0.1560630875720486,0.19824235003922214,0.17789195320963747,0.1480811648197332,0.1811758260676419,0.2241075287561816,0.21174604448312725,0.16579860745518035,0.18757342769984253,0.2167616342843497,0.19787778413916424,0.16468611639833006,0.15818642940251776,0.17837058935371353,0.15286418556628115,0.10095486437857314,0.0781122507857515,0.10603490489610126,0.08581185299752785,0.022255454406260027,0.01425277112137955,0.05214252493148299,0.03701260034955855,0.00020849589582523336,-0.02451229210731732,0.023141743137058725,0.024962905070125573,-0.016647475316534724,-0.04139580308148524,-0.008284364694594128,0.012728074177167878,-0.01454590500596874,-0.032218652682026484,0.0031257653808525244,0.01912156665777093,0.0012953417593842163,-0.026231488468565,0.01614269624215442,0.046405756183950264,0.023552579643851542,-0.0017592282429583503,0.02112781989580576,0.05362061254735927,0.04265283536872303,0.005111209004147761,0.02301117819363526,0.0625833845923816,0.03699033176567649,0.006537365138019952,0.007407816530428016,0.046838790694900836,0.037992223602237966,-0.009482868363414393,0.005725290097907479,0.04019840324771141,0.03363286666477675,0.010151275217254984,0.015585701395606841,0.057173241090996786,0.06254887771505951,0.010003148982056552,0.012908520312081524,0.049555166659262635,0.04275299253592851,0.00938678642069245,-0.007124865455787348,0.041460941933580034,0.046595904241240924,0.013104104478509623,-0.02765659580581301,0.025624902506844037,0.04510495371931513,0.004251464347587251,-0.014919655683908269,0.01895164212310545,0.04315169189207755,0.014264195909706241,-0.002579130362556549,0.004685334181746047,0.033648358475360456,0.019183933529616986,-0.012171169009011256,0.014363383889931188,0.040899023932918034,0.01678365960505065,-0.009735507631206241,0.004764274037948867,0.03134119534406723,0.03381687460178258,0.009783333532306836,0.0026638992109466702,0.04623311833561053,0.04641983243003806,0.0,0.0,0.0,0.0,0.0,0.0,0.0,0.0,0.0,0.0,0.0,0.0,0.0,0.0,0.0,0.0,0.0,0.0,0.0,0.0,0.0,0.0,0.0,0.0,0.0,0.0,0.0,0.0,0.0,0.0,0.0,0.0,0.0,0.0,0.0,0.0,0.0,0.0,0.0,0.0,0.0,0.0,0.0,0.0,0.0,0.0,0.0,0.0,0.0,0.0,0.0,0.0,0.0,0.0,0.0,0.0,0.0,0.0,0.0,0.0,0.0,0.0,0.0,0.0,0.0,0.0,0.0,0.0,0.0,0.0,0.0,0.0,0.0,0.0,0.0,0.0,0.0,0.0,0.0,0.0,0.0,0.0,0.0,0.0,0.0,0.0,0.0,0.0,0.0,0.0,0.0,0.0,0.0,0.0,0.0,0.0,0.0,0.0,0.0,0.0,0.0,0.0,0.0,0.0,0.0,0.0,0.0,0.0,0.0,0.0,0.0,0.0,0.0,0.0,0.0,0.0,0.0,0.0,0.0,0.0,0.0,0.0,0.0,0.0,0.0,0.0,0.0,0.0,0.0,0.0,0.0,0.0,0.0,0.0,0.0,0.0,0.0,0.0,0.0,0.0,0.0,0.0,0.0,0.0,0.0,0.0,0.0,0.0,0
0.14536517127598186,0.3190072592582237,0.5823396439574975,0.7909840415087934,0.8858691335948929,0.950102775721722,0.8677320138088466,0.5512357690106228,0.1624559573096792,-0.07333271174316673,-0.11022582636849787,-0.07074432992140621,-0.06864896330388788,-0.033949395715187305,0.05960257029901035,0.09388779589236307,0.04703388520117716,-0.0022101205819251347,0.03584174831574097,0.06056902238721354,0.02603687166423223,-0.03712969042015488,-0.019558201620940067,0.03281960238473588,0.03470005445072728,0.0035886625780694624,0.026988609264252648,0.0480324975702042,0.0317271231127824,-0.01098487090579022,0.016148877327104717,0.04094945144469672,-0.004387280164375949,-0.043295092365482506,-0.025456536231149213,0.02288980395345204,0.014259645276955009,-0.027272339376242342,-0.018570864172729868,0.046941801346723135,0.057723783378966935,0.0334789384057085,0.037659489287692416,0.11184316399199408,0.14229977694550386,0.13341995185376934,0.1486542851706919,0.21426634950215215,0.2318353074384347,0.19699885848367835,0.1819536892119056,0.21077198070509606,0.20471566503159064,0.17254293039573515,0.1667595964215052,0.22018372526914465,0.2671980715555177,0.21374766323019173,0.1845194672421489,0.2145146390562484,0.24467380329441085,0.19624961725628226,0.16548813486430985,0.16332455154684347,0.17006917679299033,0.13759487772042944,0.10308354834696708,0.12777815496489592,0.13730031795510786,0.09445737555598137,0.049553289500214114,0.05070411648372825,0.06946551918957801,0.05333114653136016,0.00666755159241634,0.0257131962960599,0.057961082234800884,0.05090408243516778,0.011095464365516457,0.0194609544703132,0.058491749971304914,0.0669302957875115,0.03820456312664635,0.035740036541670905,0.06608875806539025,0.05268014653431291,0.01956519683645255,0.006106669708374241,0.040730064311170135,0.035926913528004464,-0.025813605411553118,-0.03950626091822783,-0.009535006605117023,-0.0015281599876671075,-0.0417393432575377,-0.04048809768661034,-0.0130867713042478,0.0032818067304901995,-0.008877054749102508,-0.03205913932040227,-0.011573030492322792,0.008841260099060168,-0.005805448744841492,-0.0073799379328028675,0.04350183214444092,0.09435242669455396,0.0773721641667555,0.04506969249250621,0.058703003742036915,0.1095320166403886,0.1319431049002429,0.2265669835664251,0.4284107254713041,0.7046698553655015,0.8694174634531707,0.9751532863280408,1.0,0.887076480714142,0.5444976807171967,0.14286604686121707,-0.04659678999485185,-0.06547279655767409,-0.04064939008487571,-0.06182141117014817,-0.006498861975045658,0.08594410488050748,0.09957380792205396,0.04751466819857798,0.012888456886751418,0.03944291809174595,0.05061693023207407,0.015785262259509998,-0.012555125462709692,0.018092648502340214,0.03991785708412909,0.01135887574765655,-0.004149347636272597,0.02839145226009728,0.04992032670694512,0.0035636177670863617,0.0,0.0,0.0,0.0,0.0,0.0,0.0,0.0,0.0,0.0,0.0,0.0,0.0,0.0,0.0,0.0,0.0,0.0,0.0,0.0,0.0,0.0,0.0,0.0,0.0,0.0,0.0,0.0,0.0,0.0,0.0,0.0,0.0,0.0,0.0,0.0,0.0,0.0,0.0,0.0,0.0,0.0,0.0,0.0,0.0,0.0,0.0,0.0,0.0,0.0,0.0,0.0,0.0,0.0,0.0,0.0,0.0,0.0,0.0,0.0,0.0,0.0,0.0,0.0,0.0,0.0,0.0,0.0,0.0,0.0,0.0,0.0,0.0,0.0,0.0,0.0,0.0,0.0,0.0,0.0,0.0,0.0,0.0,0.0,0.0,0.0,0.0,0.0,0.0,0.0,0.0,0.0,0.0,0.0,0.0,0.0,0.0,0.0,0.0,0.0,0.0,0.0,0.0,0.0,0.0,0.0,0.0,0.0,0.0,0.0,0.0,0.0,0.0,0.0,0.0,0.0,0.0,0.0,0.0,0.0,0.0,0.0,0.0,0.0,0.0,0.0,0.0,0.0,0.0,0.0,0.0,0.0,0.0,0.0,0.0,0.0,0.0,0.0,0.0,0.0,0.0,0.0,0.0,0.0,0.0,0.0,0.0,0.0,0.0,0.0,0.0,0.0,0.0,0.0,0.0,0.0,0.0,0.0,0.0,0.0,0
0.13470200877684002,0.2636680096947033,0.4845289970231466,0.7054040415774953,0.8694087155264534,0.9152801985187221,0.8867480951545142,0.6569176791410292,0.2585723811875236,-0.04582721384588052,-0.13381750995442127,-0.09292410153820324,-0.05222109258194217,-0.04452671828520746,0.006717384651112814,0.06651473931958386,0.049557881978199964,-0.015714480694059747,-0.01992887806141,0.019418553893532014,0.02577288818432665,-0.013985349521201385,-0.025478452423759068,0.024111392636094183,0.021046425027631883,-0.008415540443381433,-0.018329899454226733,0.02849902079456615,0.02708550569956345,-0.01380979884309091,-0.01980339986784972,0.022241390524587738,0.05546529355978252,0.042695814005422515,0.027695191048943628,0.08047464339748431,0.10698779503989823,0.07224855183906066,0.08126598071232599,0.12311485158970988,0.14530830582326754,0.11067089844008014,0.09358552817048377,0.1312481836420608,0.15804504630955965,0.10836164138681056,0.0806401601047415,0.12957359688811892,0.16548398146765886,0.13369161970445634,0.08451276203479005,0.11857394368448768,0.14181976257466905,0.11925490800397424,0.0946309391685482,0.1073239534902006,0.1529609202380906,0.14185839481559864,0.102453536315981,0.12661834428755395,0.17060347551729327,0.1600348952018849,0.12990935301552353,0.12615996220741632,0.16409512798143727,0.14746355449686516,0.08063503193263431,0.07516281789489504,0.11135380182077437,0.08857948558709383,0.03964421204542713,0.0345382378981813,0.06669147538028282,0.046411219539355085,-0.008811363289367003,-0.02023722182961004,0.02306311702758257,0.00952481493296854,-0.02585908753513217,-0.030596135423292425,0.010622226086969423,0.02779758120098888,-0.011882182238767674,-0.03404511063275119,0.005057819927331694,0.031057499140807424,0.008958580916061753,-0.004362260630310849,0.019534978076708984,0.06534206002894608,0.056502533546198275,0.04551815248192916,0.08707782092683204,0.13962317438533806,0.11565932522492127,0.0961230094393088,0.1203891624775446,0.15783439117689824,0.15158550743005406,0.10382921820497897,0.10862364803780736,0.1506547648236959,0.14461014534283387,0.0926739230974954,0.06702735653595511,0.091727720239122,0.08146031615623618,0.038407297593845126,0.032560825803745204,0.0748521857540061,0.06684086211368212,-0.026478484962067117,-0.0344928510320063,0.05810555855843268,0.22069172753681388,0.3592047993558745,0.5108287790035773,0.7346202029428658,0.8927641060019927,0.8890030721562531,0.6751987420581612,0.3497663055880185,0.08767772287883625,-0.07390505801145901,-0.154693778910896,-0.06502152317210615,0.02886369002324188,0.08102881978255592,0.021478920645918803,0.016461378998268196,0.05722885383812076,0.038786880861598,0.007073569363495453,0.01896399845369256,0.061335363877494886,0.05325435131338602,0.010034380758530359,0.012611588435267149,0.056612183148020565,0.05672729889705672,0.0,0.0,0.0,0.0,0.0,0.0,0.0,0.0,0.0,0.0,0.0,0.0,0.0,0.0,0.0,0.0,0.0,0.0,0.0,0.0,0.0,0.0,0.0,0.0,0.0,0.0,0.0,0.0,0.0,0.0,0.0,0.0,0.0,0.0,0.0,0.0,0.0,0.0,0.0,0.0,0.0,0.0,0.0,0.0,0.0,0.0,0.0,0.0,0.0,0.0,0.0,0.0,0.0,0.0,0.0,0.0,0.0,0.0,0.0,0.0,0.0,0.0,0.0,0.0,0.0,0.0,0.0,0.0,0.0,0.0,0.0,0.0,0.0,0.0,0.0,0.0,0.0,0.0,0.0,0.0,0.0,0.0,0.0,0.0,0.0,0.0,0.0,0.0,0.0,0.0,0.0,0.0,0.0,0.0,0.0,0.0,0.0,0.0,0.0,0.0,0.0,0.0,0.0,0.0,0.0,0.0,0.0,0.0,0.0,0.0,0.0,0.0,0.0,0.0,0.0,0.0,0.0,0.0,0.0,0.0,0.0,0.0,0.0,0.0,0.0,0.0,0.0,0.0,0.0,0.0,0.0,0.0,0.0,0.0,0.0,0.0,0.0,0.0,0.0,0.0,0.0,0.0,0.0,0.0,0.0,0.0,0.0,0.0,0.0,0.0,0.0,0.0,0.0,0.0,0.0,0.0,0.0,0.0,0.0,0.0,0
-0.0021174427219599378,0.05939146884801295,0.2346009355803527,0.4162435262954722,0.58715225335296,0.7580466434916802,0.9138999686767002,0.9109651155772224,0.6870109115689487,0.36858596862722137,0.10368822951659902,-0.0562236522251889,-0.13263094537039485,-0.13628319452242238,-0.045738195579202834,0.016725671311521466,0.010354881336932277,-0.006921451062781434,0.018535183609407545,0.04597178267576857,0.0024561020169909602,-0.0261938651012166,0.011515436956304968,0.04050873376362834,0.009308735745793828,-0.006990730737556536,0.013072199520103762,0.039473417819661946,0.014300154504100538,0.008356037611961386,0.051684368577841436,0.09280789684980567,0.07381328370094359,0.03761472583060151,0.05930519963736909,0.07453451546167138,0.042550229546087226,0.02557280151073701,0.04720749970579868,0.08171810317676086,0.058317346659686665,0.02849832160963934,0.05662548740121354,0.0804918424391248,0.07435980393506866,0.03608942906968045,0.0579325729371847,0.08411682586261474,0.06959587143002664,0.020809610664406387,0.04288031949274654,0.0693080430437885,0.06791703739471573,0.01940287158876128,0.03532264673099708,0.07920928259009133,0.08456165014019379,0.05138179842474308,0.061191863885270814,0.0839593436666878,0.10466836504522756,0.06325182722847829,0.0798453391699106,0.1308506624105681,0.1304561383178518,0.08938690030283687,0.08272572702723115,0.11476082293378415,0.1125500217990212,0.06965415771105463,0.03326541661732458,0.06130201911637005,0.06794848832635601,0.02531150863354353,0.010615977316248415,0.04745475048580623,0.06502846146105724,0.01613554871524138,-0.009128173020550377,0.029991668866347382,0.04124316593363368,0.007458940233874801,-0.015589188527358537,0.014998902554538285,0.03915154130696127,0.0032328103159261416,-0.013386255358854668,0.015033448568842853,0.03700234104191274,0.009611872173515999,-0.019945076391037743,0.021267647946729716,0.03671124240173329,0.011367308056992265,-0.01829609953562696,0.0142228905204863,0.04885656877312768,0.014810771733752734,-0.01497537721573605,0.01312968199330755,0.041204549702737014,0.01776359035912798,-0.01428686790108349,0.02013856300624879,0.05239309726443096,0.037427890792106185,-0.005447864926244565,0.009578408570107257,0.043893765395164784,0.030996616173981167,0.0009225983597688373,0.02661272611020881,0.054436690491719286,0.03076404950708785,-0.0036437413117416883,0.015572662175079147,0.047654397628327384,0.038970865339204144,0.008830631195756661,0.02802870425676459,0.03864345436520323,-8.467610445363532e-05,0.001946433652021711,0.10051448713304766,0.0,0.0,0.0,0.0,0.0,0.0,0.0,0.0,0.0,0.0,0.0,0.0,0.0,0.0,0.0,0.0,0.0,0.0,0.0,0.0,0.0,0.0,0.0,0.0,0.0,0.0,0.0,0.0,0.0,0.0,0.0,0.0,0.0,0.0,0.0,0.0,0.0,0.0,0.0,0.0,0.0,0.0,0.0,0.0,0.0,0.0,0.0,0.0,0.0,0.0,0.0,0.0,0.0,0.0,0.0,0.0,0.0,0.0,0.0,0.0,0.0,0.0,0.0,0.0,0.0,0.0,0.0,0.0,0.0,0.0,0.0,0.0,0.0,0.0,0.0,0.0,0.0,0.0,0.0,0.0,0.0,0.0,0.0,0.0,0.0,0.0,0.0,0.0,0.0,0.0,0.0,0.0,0.0,0.0,0.0,0.0,0.0,0.0,0.0,0.0,0.0,0.0,0.0,0.0,0.0,0.0,0.0,0.0,0.0,0.0,0.0,0.0,0.0,0.0,0.0,0.0,0.0,0.0,0.0,0.0,0.0,0.0,0.0,0.0,0.0,0.0,0.0,0.0,0.0,0.0,0.0,0.0,0.0,0.0,0.0,0.0,0.0,0.0,0.0,0.0,0.0,0.0,0.0,0.0,0.0,0.0,0.0,0.0,0.0,0.0,0.0,0.0,0.0,0.0,0.0,0.0,0.0,0.0,0.0,0.0,0.0,0.0,0.0,0.0,0.0,0.0,0.0,0.0,0.0,0.0,0.0,0.0,0.0,0.0,0.0,0.0,0
0.07406786671589799,0.20802724664839434,0.3636944466683965,0.4662785401413378,0.5640081080847266,0.7051094001233699,0.7713652281439412,0.6493792442164787,0.38495531268692507,0.1686250229159525,0.058247981902631564,-0.04269674985076241,-0.15354055139602346,-0.16817723660421882,-0.07456116473615151,-0.022246970182374745,0.003246230809618834,0.04293544697151168,0.09683056209572946,0.09740012507235238,0.039828955133395495,0.020613064847913958,0.046997501628434316,0.034564260945223725,0.0002067836187064629,-0.0005867365090777612,0.024955138875247296,0.02618461225174119,-0.02342441002340592,-0.02496464352757463,0.02157392400832388,0.0341894590783081,-0.0015788594681129915,-0.013353440582155809,0.03747289666405775,0.06889945851613555,0.023047192507027248,0.018126050830713048,0.04450017859053746,0.0563508872818531,0.02233236309021466,0.014822373649588197,0.057954917628474226,0.0745522392458394,0.05015304744080752,0.04024898148159884,0.06897305262382375,0.11703877930489985,0.09520603200668876,0.07343816511920111,0.10481277694600996,0.14350760112737965,0.11957801858786447,0.0981609331642338,0.13233173647725113,0.1738536490053486,0.1576039495119984,0.14148037361673566,0.17373113745861765,0.2326504466845408,0.21451742086950876,0.19652373122498007,0.2003797704761112,0.24055840013385485,0.20851015368600292,0.16453716239112284,0.18341361214810814,0.18312097993317747,0.16124186020551162,0.1081213832238441,0.09611809045381267,0.1300488625290286,0.10135750482907313,0.036569412939435206,0.027338413018007237,0.04470900511649152,0.0549011868641601,-0.009635827767295784,-0.02589065296270094,0.013364234967997235,0.016459321854400032,-0.02626075587886085,-0.044849409552740034,-0.00795248155930385,0.026537680391536214,-0.004094881654748159,-0.015423103564954256,0.04562209056050531,0.07773153844437608,0.025427324137418286,0.002083943595475672,0.031824999626018265,0.05675986720059276,0.016585579300565118,0.005378588479645939,0.047261961273356384,0.08434451990806995,0.04667393597444094,0.028325894172934938,0.055834725609227136,0.0833691338040466,0.04821226304821656,0.02272908123711181,0.055162486552966745,0.10209231465567396,0.0597935537631306,0.036812773767721366,0.06691857677340422,0.0970407976736978,0.06928457103887171,0.02706622657287263,0.01862611328715684,-0.006695052610435089,-0.022366796356788652,0.012615090032303558,0.1730274994992583,0.4178624843822813,0.595150820083685,0.7676054676946038,0.9110978294055004,0.9604883606713962,0.7348481839294058,0.3595908430530186,0.056613522282104686,-0.05591225530052897,-0.07691170754611293,-0.09806819204607672,-0.049441507812404535,0.03760618228349842,0.06900065781872375,0.0109720819690144,-0.030343120912590095,-0.006700970097840609,0.014360620209238263,-0.012985981816575865,-0.03084461660075889,0.011445560503938768,0.029466083933123118,-0.0008969974758397411,-0.007270467608702819,0.03929968329025597,0.05921992673796854,0.04767420657360822,0.026380182053722192,0.048413651311197216,0.058302051644796876,0.019870041206488272,-0.02104379594581472,0.003108670682238639,0.044092793216853166,0.03196426245423768,0.007738960525030448,0.0,0.0,0.0,0.0,0.0,0.0,0.0,0.0,0.0,0.0,0.0,0.0,0.0,0.0,0.0,0.0,0.0,0.0,0.0,0.0,0.0,0.0,0.0,0.0,0.0,0.0,0.0,0.0,0.0,0.0,0.0,0.0,0.0,0.0,0.0,0.0,0.0,0.0,0.0,0.0,0.0,0.0,0.0,0.0,0.0,0.0,0.0,0.0,0.0,0.0,0.0,0.0,0.0,0.0,0.0,0.0,0.0,0.0,0.0,0.0,0.0,0.0,0.0,0.0,0.0,0.0,0.0,0.0,0.0,0.0,0.0,0.0,0.0,0.0,0.0,0.0,0.0,0.0,0.0,0.0,0.0,0.0,0.0,0.0,0.0,0.0,0.0,0.0,0.0,0.0,0.0,0.0,0.0,0.0,0.0,0.0,0.0,0.0,0.0,0.0,0.0,0.0,0.0,0.0,0.0,0.0,0.0,0.0,0.0,0.0,0.0,0.0,0.0,0.0,0.0,0.0,0.0,0.0,0.0,0.0,0.0,0.0,0.0,0.0,0.0,0.0,0.0,0.0,0.0,0.0,0.0,0.0,0.0,0.0,0.0,0.0,0.0,0.0,0.0,0.0,0.0,0.0,0.0,0.0,0.0,0.0,0.0,0.0,0
0.19059818446265908,0.31988680861749297,0.5134476526575046,0.7069184036183422,0.7672853305973119,0.7267174650967667,0.5701839173361027,0.3319915253880718,0.09793091443089856,-0.06980699274297159,-0.0961601034894008,-0.0691007139126286,-0.07230143173830789,-0.03925893921784675,0.04719558859268006,0.09482560043317248,0.07146205342815642,0.035037047118009666,0.04133704714846525,0.06891838694243138,0.042705278628143835,0.016338184804551768,0.02629514186919161,0.05971274308799355,0.05009553564174181,0.006032448600716461,0.009051564426353577,0.03770765936772722,0.036231039066049735,0.008919564986805876,0.015848108634099158,0.03986153987661914,0.04449716008311495,-0.0002720989322314665,0.002097790637232456,0.04517760639743894,0.03887232867464553,0.0046410942947064425,-0.0017327289281279645,0.03906450168050415,0.019775274925941902,-0.014543478218183463,-0.029561308576502673,0.01763472099429414,0.03909848431480577,0.009096787978972664,-0.014437970120964897,0.01784545608578339,0.05876223798018317,0.01822192602836995,0.014225605569904291,0.03605767577206817,0.0751477412584932,0.04140471615808793,0.0356667548706499,0.057943805306654425,0.10610036045842494,0.09004428363978194,0.05483533247852429,0.08629306948420473,0.12650325183642275,0.11540592866505305,0.07446102679005506,0.10235785303933397,0.14547070444486024,0.1480280896649618,0.11861608753576837,0.1344688874530406,0.16770153309760505,0.16468507679332156,0.1404385830564634,0.1357236119904497,0.154831319571367,0.15056554513218276,0.0993273962774186,0.09979799309338644,0.13052247030427847,0.14430214463179147,0.1089546162759132,0.08454365705413944,0.12040611108899732,0.12643542180019282,0.08975438761446547,0.05326236597526017,0.07916575481348093,0.08593715459491118,0.04782596115037455,-0.000851115012509011,0.036435418431021334,0.07172134840518987,0.06209308792905574,0.01612332943999529,0.0367766246225541,0.07470280705382984,0.041936547909002565,0.01998899501503737,0.02172223581608063,0.06214353439568115,0.059722599929222235,0.02732100058702403,0.0378677502889763,0.06131845029984698,0.04617574670187784,0.009590829685138302,0.00947491366413612,0.03723559098352894,0.032793768588346615,-0.008152641560521529,-0.0019495515115528625,0.04495628464386963,0.036016681477902684,-0.0030360059092044713,0.0050170355244494045,0.032276354606830635,0.04440664532759549,-0.01652560213352506,-0.05399420555484855,-0.03582971031381413,0.001493616961587794,0.04295767930962132,0.16364598884431975,0.4086079707100351,0.63196261581158,0.7865095948952774,0.8250454188943708,0.7067984959472621,0.4639325128340922,0.18867536670509166,-0.013875705445808188,-0.0965468777797018,-0.11728155890016205,-0.09754428352295592,-0.065224274368887,0.02044736324825467,0.08225550817998342,0.05800187313163953,0.018494907762425555,0.04312387805968845,0.06539914979856801,0.0,0.0,0.0,0.0,0.0,0.0,0.0,0.0,0.0,0.0,0.0,0.0,0.0,0.0,0.0,0.0,0.0,0.0,0.0,0.0,0.0,0.0,0.0,0.0,0.0,0.0,0.0,0.0,0.0,0.0,0.0,0.0,0.0,0.0,0.0,0.0,0.0,0.0,0.0,0.0,0.0,0.0,0.0,0.0,0.0,0.0,0.0,0.0,0.0,0.0,0.0,0.0,0.0,0.0,0.0,0.0,0.0,0.0,0.0,0.0,0.0,0.0,0.0,0.0,0.0,0.0,0.0,0.0,0.0,0.0,0.0,0.0,0.0,0.0,0.0,0.0,0.0,0.0,0.0,0.0,0.0,0.0,0.0,0.0,0.0,0.0,0.0,0.0,0.0,0.0,0.0,0.0,0.0,0.0,0.0,0.0,0.0,0.0,0.0,0.0,0.0,0.0,0.0,0.0,0.0,0.0,0.0,0.0,0.0,0.0,0.0,0.0,0.0,0.0,0.0,0.0,0.0,0.0,0.0,0.0,0.0,0.0,0.0,0.0,0.0,0.0,0.0,0.0,0.0,0.0,0.0,0.0,0.0,0.0,0.0,0.0,0.0,0.0,0.0,0.0,0.0,0.0,0.0,0.0,0.0,0.0,0.0,0.0,0.0,0.0,0.0,0.0,0.0,0.0,0.0,0.0,0.0,0.0,0.0,0.0,0.0,0
-0.04668874628145755,0.017902079476511883,0.16691486787220816,0.4076020449214726,0.6145451444807691,0.7684597084643673,0.9079505948251942,0.9317122130370494,0.7143126041689328,0.3570603400559352,0.0673964670381567,-0.03407833699257296,-0.0293870918020904,-0.0029617625794002627,0.011424317429046838,0.05236358229972055,0.06919764297575055,0.01609221431272015,-0.015292911506599246,0.02087050280102427,0.04256645549074284,0.011198132038479757,-0.02016854603518383,-0.0008798960655097105,0.04494201180345619,0.018397522197136112,-0.012972627271513418,0.013547843292487772,0.07383786303714061,0.0641742588202066,0.0,0.0,0.0,0.0,0.0,0.0,0.0,0.0,0.0,0.0,0.0,0.0,0.0,0.0,0.0,0.0,0.0,0.0,0.0,0.0,0.0,0.0,0.0,0.0,0.0,0.0,0.0,0.0,0.0,0.0,0.0,0.0,0.0,0.0,0.0,0.0,0.0,0.0,0.0,0.0,0.0,0.0,0.0,0.0,0.0,0.0,0.0,0.0,0.0,0.0,0.0,0.0,0.0,0.0,0.0,0.0,0.0,0.0,0.0,0.0,0.0,0.0,0.0,0.0,0.0,0.0,0.0,0.0,0.0,0.0,0.0,0.0,0.0,0.0,0.0,0.0,0.0,0.0,0.0,0.0,0.0,0.0,0.0,0.0,0.0,0.0,0.0,0.0,0.0,0.0,0.0,0.0,0.0,0.0,0.0,0.0,0.0,0.0,0.0,0.0,0.0,0.0,0.0,0.0,0.0,0.0,0.0,0.0,0.0,0.0,0.0,0.0,0.0,0.0,0.0,0.0,0.0,0.0,0.0,0.0,0.0,0.0,0.0,0.0,0.0,0.0,0.0,0.0,0.0,0.0,0.0,0.0,0.0,0.0,0.0,0.0,0.0,0.0,0.0,0.0,0.0,0.0,0.0,0.0,0.0,0.0,0.0,0.0,0.0,0.0,0.0,0.0,0.0,0.0,0.0,0.0,0.0,0.0,0.0,0.0,0.0,0.0,0.0,0.0,0.0,0.0,0.0,0.0,0.0,0.0,0.0,0.0,0.0,0.0,0.0,0.0,0.0,0.0,0.0,0.0,0.0,0.0,0.0,0.0,0.0,0.0,0.0,0.0,0.0,0.0,0.0,0.0,0.0,0.0,0.0,0.0,0.0,0.0,0.0,0.0,0.0,0.0,0.0,0.0,0.0,0.0,0.0,0.0,0.0,0.0,0.0,0.0,0.0,0.0,0.0,0.0,0.0,0.0,0.0,0.0,0.0,0.0,0.0,0.0,0.0,0.0,0.0,0.0,0.0,0.0,0.0,0.0,0.0,0.0,0.0,0.0,0.0,0.0,0.0,0.0,0.0,0.0,0.0,0.0,0.0,0.0,0.0,0.0,0.0,0.0,0.0,0.0,0.0,0.0,0.0,0.0,0.0,0.0,0.0,0.0,0.0,0.0,0.0,0.0,0.0,0.0,0.0,0.0,0.0,0.0,0
0.11228459491553583,0.24007785868263354,0.43220156977949775,0.667209312548554,0.852858383039922,0.9119196773478012,0.8400992311433103,0.6095004780710286,0.312358140004518,0.03661333814619554,-0.08474355982029518,-0.07961811310631177,-0.03812085123197576,-0.013885038062246237,0.016689641056373702,0.07291426668724205,0.07970766623290261,0.03707298297777732,0.009371259199281005,0.039510585966138864,0.06957100802503881,0.04806820232287139,0.015764391079718113,0.024147939096536248,0.05176772848349353,0.02568588258600272,-0.006900245364027298,0.011932952357786544,0.045717569286528266,0.042968703201877616,0.007978414489482293,0.011542122807175459,0.06653274014252618,0.06783290863172818,0.041186809394300486,0.02091939072272869,0.04779122472858386,0.07246116238262935,0.03486143277761754,0.018657433853779392,0.0388655385441028,0.04614372896308213,-0.013140760271236012,-0.03816101118427182,-0.013899920804318613,0.0017238352675586902,-0.01917322589594377,-0.02295408563496206,0.005405117648033325,0.044460724254290235,0.014846579681276338,-0.004053225633228911,0.004932303568708839,0.04395761151081666,0.027220777795827416,0.01908902314483935,0.04531445365626725,0.10161520780212553,0.11291507019770357,0.08565782758859572,0.1142430421045216,0.162207975939037,0.14589323521418254,0.09748355056850297,0.10279483778380348,0.14037869600526276,0.14373540213194372,0.1150133818695082,0.10570170368728936,0.154417201481446,0.14960681973319534,0.09556166639413066,0.06522095208182584,0.08003677158046328,0.07350455360998864,0.026315411562793926,0.007116431267979603,0.026632099199396443,0.052681334561189466,0.03163015755323286,0.012817601018846743,0.04772781623494092,0.05269246557463921,0.010546546887685884,-0.005773588894648772,0.01231005889484687,0.04334216723304494,0.0015090540151987198,-0.03167160599283172,0.003865088585768889,0.09739292064592836,0.20600650499146947,0.3575940967460685,0.5650259849102343,0.7510690539701382,0.8384873632820272,0.7929467485444274,0.5908352359409362,0.2964932268808849,0.015018423700596547,-0.11202325179532308,-0.08679948404767758,-0.008004761585336334,0.03211050276694822,0.0249624434274959,0.03061588496219153,0.06193944226839855,0.022392471360804182,-0.012943854692917924,0.003122929615641982,0.02339434974848055,0.011398298474833698,-0.028577193304639426,-0.006433088305673225,0.0241988344360712,0.02255906653458665,-0.01564231945588923,-0.006739023816975046,0.021382356802430374,0.032254759623180966,-0.0020078787081435536,-0.010609059937397816,0.008599054237961645,0.012714501709245457,-0.0154214036149772,-0.03289966703607659,0.013916554099807963,0.032788420177237265,0.004416425866835755,0.012474177947245587,0.052678921155503135,0.08213285933896056,0.038630443690966805,0.023006735153262257,0.06959302739966691,0.08400390400767667,0.031921344952219585,0.018469888173239524,0.047945912538214286,0.0,0.0,0.0,0.0,0.0,0.0,0.0,0.0,0.0,0.0,0.0,0.0,0.0,0.0,0.0,0.0,0.0,0.0,0.0,0.0,0.0,0.0,0.0,0.0,0.0,0.0,0.0,0.0,0.0,0.0,0.0,0.0,0.0,0.0,0.0,0.0,0.0,0.0,0.0,0.0,0.0,0.0,0.0,0.0,0.0,0.0,0.0,0.0,0.0,0.0,0.0,0.0,0.0,0.0,0.0,0.0,0.0,0.0,0.0,0.0,0.0,0.0,0.0,0.0,0.0,0.0,0.0,0.0,0.0,0.0,0.0,0.0,0.0,0.0,0.0,0.0,0.0,0.0,0.0,0.0,0.0,0.0,0.0,0.0,0.0,0.0,0.0,0.0,0.0,0.0,0.0,0.0,0.0,0.0,0.0,0.0,0.0,0.0,0.0,0.0,0.0,0.0,0.0,0.0,0.0,0.0,0.0,0.0,0.0,0.0,0.0,0.0,0.0,0.0,0.0,0.0,0.0,0.0,0.0,0.0,0.0,0.0,0.0,0.0,0.0,0.0,0.0,0.0,0.0,0.0,0.0,0.0,0.0,0.0,0.0,0.0,0.0,0.0,0.0,0.0,0.0,0.0,0.0,0.0,0.0,0.0,0.0,0.0,0.0,0.0,0.0,0.0,0.0,0.0,0.0,0.0,0.0,0.0,0.0,0.0,0.0,0
0.8437725824362697,0.5635086413821092,0.2722385649844323,0.05743760527691909,-0.0765427913956888,-0.14285092787585804,-0.0846299874441455,0.014994721463585802,0.04665673726150738,0.03004805563414913,0.041733690479695634,0.07078119546014414,0.051572096821596435,-0.0027648540995048806,0.006208713418809889,0.04568546776578652,0.05004655503863775,0.01273357715447602,-0.0006268334557365417,0.03840553522281502,0.055461615508931,0.0002339079426104321,-0.006965609752202621,0.03167880498462352,0.0461731411993177,-0.005040144707245924,-0.025710563956342542,0.025727032297056883,0.046469673908307266,0.016836706593715698,-0.012854908282053294,0.0273986012112114,0.07198139772634866,0.03559061217411171,-0.005206960949303205,0.02834272764913706,0.06624879493071045,0.0363327833931589,-0.006712996215682333,0.01586534543697991,0.07126326517379537,0.052303426994163946,-0.0081961654253859,-0.0008576236790403034,0.052451754280866514,0.06861663497911358,0.02139467417904934,0.037663477053688166,0.08243051831024173,0.08132929484037735,0.034365604879693465,0.053103910262098174,0.09817564125053213,0.12364966433869146,0.08796922064186126,0.093947494520255,0.13502559299309658,0.16964522934377352,0.13218568147883336,0.10139594057192687,0.12540027836972914,0.1407633893944285,0.09279907216641227,0.05150408813329111,0.0759375709978262,0.09391243194847446,0.06605269373430363,0.014230026539358,0.0478130802801222,0.07930148623215277,0.04525639685447986,0.00035993659317951407,0.02335576386121848,0.0661164357778124,0.04770290143489165,0.011859446086378051,0.028579309470458912,0.07598349653238662,0.06875731957383213,0.00908302097489276,0.008514136823954214,0.04517076005053603,0.04467455501592815,0.007019673724142909,-0.004364405446548551,0.0433277022851882,0.03853123482595517,0.011864342187195093,-0.010429883775618938,0.028515647969843388,0.023698995802439376,-0.0030108249831453933,-0.023182619337511264,0.0025522575666036638,0.04137937215867342,-0.0051387043900476895,-0.034195794814575416,-0.008608216169940152,0.034438249592812435,0.0052602523056273645,-0.010831110398980257,0.023351712312493254,0.06406228848282362,0.03693001089765704,-0.0011700829749393493,0.026323754432126627,0.04941538760068212,0.03966977164183889,-0.029160952660331668,-0.003955357379002783,0.11091559771051876,0.2520206443446387,0.3909268836801376,0.6041969287656651,0.8393329057714869,0.9388371478881338,0.8852034876350621,0.6740456598453745,0.3884702833306456,0.13126750142322935,-0.058210034642970726,-0.11873600247258098,-0.07220099421305029,-0.008294737338421973,0.0051742272706882825,0.022894380727984588,0.06893011977746652,0.0820358494452188,0.04033941960488604,0.0007158489471839147,0.028789685465320868,0.06550180682909011,0.032106052010778034,-0.005773506033113347,0.008737314124067025,0.045015932396134335,0.022128771762685483,-0.024924034131765315,-0.008644076289017245,0.04034805357789579,0.0,0.0,0.0,0.0,0.0,0.0,0.0,0.0,0.0,0.0,0.0,0.0,0.0,0.0,0.0,0.0,0.0,0.0,0.0,0.0,0.0,0.0,0.0,0.0,0.0,0.0,0.0,0.0,0.0,0.0,0.0,0.0,0.0,0.0,0.0,0.0,0.0,0.0,0.0,0.0,0.0,0.0,0.0,0.0,0.0,0.0,0.0,0.0,0.0,0.0,0.0,0.0,0.0,0.0,0.0,0.0,0.0,0.0,0.0,0.0,0.0,0.0,0.0,0.0,0.0,0.0,0.0,0.0,0.0,0.0,0.0,0.0,0.0,0.0,0.0,0.0,0.0,0.0,0.0,0.0,0.0,0.0,0.0,0.0,0.0,0.0,0.0,0.0,0.0,0.0,0.0,0.0,0.0,0.0,0.0,0.0,0.0,0.0,0.0,0.0,0.0,0.0,0.0,0.0,0.0,0.0,0.0,0.0,0.0,0.0,0.0,0.0,0.0,0.0,0.0,0.0,0.0,0.0,0.0,0.0,0.0,0.0,0.0,0.0,0.0,0.0,0.0,0.0,0.0,0.0,0.0,0.0,0.0,0.0,0.0,0.0,0.0,0.0,0.0,0.0,0.0,0.0,0.0,0.0,0.0,0.0,0.0,0.0,0.0,0.0,0.0,0.0,0.0,0.0,0.0,0.0,0.0,0.0,0.0,0.0,0
0.08870755188401754,0.24654398635487496,0.4260834739241635,0.5839009866125858,0.7802932292263228,0.959769209537862,0.9896441821677032,0.7999453573850456,0.4726625177446734,0.18626876068188566,-0.0061986886700983726,-0.12648120534252058,-0.14566373532236654,-0.07582631759021663,-0.037583382005008416,-0.04299392599229572,-0.02692352487050121,0.034759221756819204,0.04799131162702922,0.03690652907532658,0.011165321289255868,0.05279343687919134,0.07978813379649004,0.06562661192452235,0.039265878105187065,0.06343317115987869,0.1067804018384831,0.053532763443642224,0.007423556107596669,0.014293423534390044,0.074151497871817,0.06157333081106419,0.010338172387874291,0.007292987805351166,0.05485829029434888,0.04449414482238701,0.00274258251575412,0.0043890693336651005,0.039792657241034014,0.05106871895377825,-0.00037010885401121365,0.020565721441302642,0.07287644346537474,0.057669799250872573,0.015959772628831616,0.020118436328663825,0.0605035658647124,0.06234389879921118,0.025645538997222283,-0.006166429822400911,0.0272182278877774,0.04861591017062315,0.009789073360052804,-0.014478743165259962,0.03129848810653138,0.07476247831320118,0.05079133069563068,0.029345015132529975,0.06349796748967812,0.1026006137049304,0.06464468497893197,0.06300821158904264,0.0952841230604369,0.130118839495041,0.13133393884380082,0.10134527430638482,0.11734571123342487,0.14315501358560334,0.12088271280840378,0.08430057344917699,0.08647721856317,0.13223719239911216,0.12509292648197454,0.0771044200839792,0.08234526442892096,0.1335769848808289,0.12707338047010944,0.07489235987100533,0.05904449948114952,0.09641106387644777,0.09291261061191282,0.046132164064173406,0.006720307080820426,0.03256394044417208,0.04887987374997299,0.01706749675200314,0.007074183737886554,0.050252297814843284,0.06458157205559671,0.018697328440214163,0.006668075030392993,0.02366272892870546,0.057613625301800725,0.031324043642755615,0.0075035815571058454,0.053686045760533964,0.107147330730959,0.07380468526869857,0.03325198873055725,0.02890000847217552,0.05350350542041754,0.03468815864217708,0.0013910600244863894,0.006670956665409307,0.04086983421296425,0.029200707600458564,-0.011460663711036474,-0.0232315575558847,0.037298739803507376,0.039865982809560524,-0.010712020138782924,-0.017954711095559368,0.02054435378498987,0.037240020955885314,-0.018527685795344303,-0.03580267691404688,0.009534314138009923,0.02340899475942232,0.003409973554151031,-0.011867149210714464,0.006524478221317187,0.019991714760802488,-0.012470796169275862,-0.04502992795793893,0.011567922304713641,0.04395727469640736,0.013550260275913816,-4.424929042585047e-05,0.0514241726650552,0.08594808229385112,0.06493907019987782,0.03182251466284458,0.05173311505375236,0.06919626837190265,0.06733203879394152,0.02926014451517327,0.051472561734285965,0.0953788798990244,0.06690822519512718,0.038429864611526206,0.055778719079019864,0.1093093114798854,0.08565202259995662,0.045113852971650416,0.06006228919318307,0.10155291195584044,0.08998516147062982,0.05189401625202901,0.05240893073162819,0.08188143105027862,0.11377750124789995,0.0660825100580591,0.0,0.0,0.0,0.0,0.0,0.0,0.0,0.0,0.0,0.0,0.0,0.0,0.0,0.0,0.0,0.0,0.0,0.0,0.0,0.0,0.0,0.0,0.0,0.0,0.0,0.0,0.0,0.0,0.0,0.0,0.0,0.0,0.0,0.0,0.0,0.0,0.0,0.0,0.0,0.0,0.0,0.0,0.0,0.0,0.0,0.0,0.0,0.0,0.0,0.0,0.0,0.0,0.0,0.0,0.0,0.0,0.0,0.0,0.0,0.0,0.0,0.0,0.0,0.0,0.0,0.0,0.0,0.0,0.0,0.0,0.0,0.0,0.0,0.0,0.0,0.0,0.0,0.0,0.0,0.0,0.0,0.0,0.0,0.0,0.0,0.0,0.0,0.0,0.0,0.0,0.0,0.0,0.0,0.0,0.0,0.0,0.0,0.0,0.0,0.0,0.0,0.0,0.0,0.0,0.0,0.0,0.0,0.0,0.0,0.0,0.0,0.0,0.0,0.0,0.0,0.0,0.0,0.0,0.0,0.0,0.0,0.0,0.0,0.0,0.0,0.0,0.0,0.0,0.0,0.0,0.0,0.0,0.0,0.0,0.0,0.0,0.0,0.0,0.0,0.0,0.0,0.0,0.0,0.0,0.0,0.0,0.0,0.0,0
0.2856984965460193,0.5175583426681064,0.6991471943670281,0.8260923020364979,0.9355786425823132,0.9947892144520346,0.8287192094566572,0.4526654947022062,0.1159760979377157,-0.028250257410753495,-0.05878329928678914,-0.07407696660860473,-0.06977027463578797,0.035064944930321335,0.1004327808248038,0.07164702370402656,0.031829225304009265,0.053163415376164376,0.06346290303252794,0.04085168481570677,0.0006397967020538621,0.01719775465673656,0.04677470295146143,0.02593280512008228,-0.016893833681357422,-0.0007728519632947121,0.03492091543365853,0.013626350341565568,-0.04497079901658769,-0.027125244303964832,0.0102928205501545,-0.0005213852347888876,-0.033313085657855075,-0.024641098438245048,0.010191344451659394,0.02307186069536235,-0.016612520981172774,0.009270539781759334,0.050422639791232515,0.0631076277513147,0.01671369675226122,0.01843698758974545,0.07266421824576368,0.09190983902167013,0.060873217644352384,0.0648751687867984,0.11486348925938518,0.13647577425063426,0.10784743062916642,0.07492359813156038,0.12083523400550293,0.16246803188846304,0.13858140874071678,0.11699250142634665,0.1742674849019822,0.20760246367013246,0.17981565339281366,0.1499712727152236,0.177132641204293,0.20005352732621412,0.18154857413284825,0.14130467590576054,0.1799428309298617,0.1990269507259896,0.16574302959775927,0.1238362129604526,0.12580054851379416,0.14975675127992102,0.11257679028109137,0.05144068700018182,0.05165142053386743,0.0803903442809111,0.05234016738542748,0.002491998284184641,-0.007914123288113601,0.03205087669559753,0.0239451866092088,-0.023488960682783888,-0.029324171295192762,0.004246735612321276,0.0028484459297455213,-0.03570909493998582,-0.03705580958974782,0.011933654754467529,0.02814113017307921,0.005008535324652986,0.0037880634089331204,0.04635809308482817,0.07366197232471364,0.022267951810704067,0.005925966656768159,0.04432623239151315,0.06966162491780388,0.03381169325642265,0.02865133411348157,0.08261972538959245,0.11040939873401466,0.08577315694461916,0.045898800519317134,0.09140925083726884,0.12387081954293898,0.0951603144821854,0.0534009651422682,0.09265161295672696,0.12978877961255975,0.10575028378757484,0.07521979821036402,0.09506789960799772,0.1193554493633622,0.08464337152066374,0.03467619809185032,0.048196961870375685,0.07926485552453275,0.06006450323882765,0.02121460661888648,0.032707356445978136,0.07703752743242917,0.0623270172572615,0.001694110406950522,0.013253551727975795,0.04450032310424238,0.023242445402817027,0.010721114732912129,0.1075512004896717,0.30935074646757543,0.5023656212102143,0.6625248892532534,0.8182534893017974,0.9651615561880388,0.8954238877362349,0.5937045379538624,0.20872053997128776,0.01386962514035852,-0.08056535527280018,-0.11836553160233695,-0.11486775472497875,-0.026336946544711942,0.007228532479767604,-0.025108643856348617,-0.06866285540359986,0.0,0.0,0.0,0.0,0.0,0.0,0.0,0.0,0.0,0.0,0.0,0.0,0.0,0.0,0.0,0.0,0.0,0.0,0.0,0.0,0.0,0.0,0.0,0.0,0.0,0.0,0.0,0.0,0.0,0.0,0.0,0.0,0.0,0.0,0.0,0.0,0.0,0.0,0.0,0.0,0.0,0.0,0.0,0.0,0.0,0.0,0.0,0.0,0.0,0.0,0.0,0.0,0.0,0.0,0.0,0.0,0.0,0.0,0.0,0.0,0.0,0.0,0.0,0.0,0.0,0.0,0.0,0.0,0.0,0.0,0.0,0.0,0.0,0.0,0.0,0.0,0.0,0.0,0.0,0.0,0.0,0.0,0.0,0.0,0.0,0.0,0.0,0.0,0.0,0.0,0.0,0.0,0.0,0.0,0.0,0.0,0.0,0.0,0.0,0.0,0.0,0.0,0.0,0.0,0.0,0.0,0.0,0.0,0.0,0.0,0.0,0.0,0.0,0.0,0.0,0.0,0.0,0.0,0.0,0.0,0.0,0.0,0.0,0.0,0.0,0.0,0.0,0.0,0.0,0.0,0.0,0.0,0.0,0.0,0.0,0.0,0.0,0.0,0.0,0.0,0.0,0.0,0.0,0.0,0.0,0.0,0.0,0.0,0.0,0.0,0.0,0.0,0.0,0.0,0.0,0.0,0.0,0.0,0.0,0.0,0
0.2856984965460193,0.5175583426681064,0.6991471943670281,0.8260923020364979,0.9355786425823132,0.9947892144520346,0.8287192094566572,0.4526654947022062,0.1159760979377157,-0.028250257410753495,-0.05878329928678914,-0.07407696660860473,-0.06977027463578797,0.035064944930321335,0.1004327808248038,0.07164702370402656,0.031829225304009265,0.053163415376164376,0.06346290303252794,0.04085168481570677,0.0006397967020538621,0.01719775465673656,0.04677470295146143,0.02593280512008228,-0.016893833681357422,-0.0007728519632947121,0.03492091543365853,0.013626350341565568,-0.04497079901658769,-0.027125244303964832,0.0102928205501545,-0.0005213852347888876,-0.033313085657855075,-0.024641098438245048,0.010191344451659394,0.02307186069536235,-0.016612520981172774,0.009270539781759334,0.050422639791232515,0.0631076277513147,0.01671369675226122,0.01843698758974545,0.07266421824576368,0.09190983902167013,0.060873217644352384,0.0648751687867984,0.11486348925938518,0.13647577425063426,0.10784743062916642,0.07492359813156038,0.12083523400550293,0.16246803188846304,0.13858140874071678,0.11699250142634665,0.1742674849019822,0.20760246367013246,0.17981565339281366,0.1499712727152236,0.177132641204293,0.20005352732621412,0.18154857413284825,0.14130467590576054,0.1799428309298617,0.1990269507259896,0.16574302959775927,0.1238362129604526,0.12580054851379416,0.14975675127992102,0.11257679028109137,0.05144068700018182,0.05165142053386743,0.0803903442809111,0.05234016738542748,0.002491998284184641,-0.007914123288113601,0.03205087669559753,0.0239451866092088,-0.023488960682783888,-0.029324171295192762,0.004246735612321276,0.0028484459297455213,-0.03570909493998582,-0.03705580958974782,0.011933654754467529,0.02814113017307921,0.005008535324652986,0.0037880634089331204,0.04635809308482817,0.07366197232471364,0.022267951810704067,0.005925966656768159,0.04432623239151315,0.06966162491780388,0.03381169325642265,0.02865133411348157,0.08261972538959245,0.11040939873401466,0.08577315694461916,0.045898800519317134,0.09140925083726884,0.12387081954293898,0.0951603144821854,0.0534009651422682,0.09265161295672696,0.12978877961255975,0.10575028378757484,0.07521979821036402,0.09506789960799772,0.1193554493633622,0.08464337152066374,0.03467619809185032,0.048196961870375685,0.07926485552453275,0.06006450323882765,0.02121460661888648,0.032707356445978136,0.07703752743242917,0.0623270172572615,0.001694110406950522,0.013253551727975795,0.04450032310424238,0.023242445402817027,0.010721114732912129,0.1075512004896717,0.30935074646757543,0.5023656212102143,0.6625248892532534,0.8182534893017974,0.9651615561880388,0.8954238877362349,0.5937045379538624,0.20872053997128776,0.01386962514035852,-0.08056535527280018,-0.11836553160233695,-0.11486775472497875,-0.026336946544711942,0.007228532479767604,-0.025108643856348617,-0.06866285540359986,0.0,0.0,0.0,0.0,0.0,0.0,0.0,0.0,0.0,0.0,0.0,0.0,0.0,0.0,0.0,0.0,0.0,0.0,0.0,0.0,0.0,0.0,0.0,0.0,0.0,0.0,0.0,0.0,0.0,0.0,0.0,0.0,0.0,0.0,0.0,0.0,0.0,0.0,0.0,0.0,0.0,0.0,0.0,0.0,0.0,0.0,0.0,0.0,0.0,0.0,0.0,0.0,0.0,0.0,0.0,0.0,0.0,0.0,0.0,0.0,0.0,0.0,0.0,0.0,0.0,0.0,0.0,0.0,0.0,0.0,0.0,0.0,0.0,0.0,0.0,0.0,0.0,0.0,0.0,0.0,0.0,0.0,0.0,0.0,0.0,0.0,0.0,0.0,0.0,0.0,0.0,0.0,0.0,0.0,0.0,0.0,0.0,0.0,0.0,0.0,0.0,0.0,0.0,0.0,0.0,0.0,0.0,0.0,0.0,0.0,0.0,0.0,0.0,0.0,0.0,0.0,0.0,0.0,0.0,0.0,0.0,0.0,0.0,0.0,0.0,0.0,0.0,0.0,0.0,0.0,0.0,0.0,0.0,0.0,0.0,0.0,0.0,0.0,0.0,0.0,0.0,0.0,0.0,0.0,0.0,0.0,0.0,0.0,0.0,0.0,0.0,0.0,0.0,0.0,0.0,0.0,0.0,0.0,0.0,0.0,0
0.032030313177324056,0.18546027471104126,0.39254186033589705,0.582486171175155,0.753151196342856,0.900246735937808,0.9379583140964928,0.7804669537217123,0.481391965909234,0.19303148230142056,0.011904036386990958,-0.08989884539664111,-0.0866537815228071,-0.021277700774604943,0.06975652992724476,0.07703866117476084,0.02845579617747088,0.024834056820430613,0.03828282764706633,0.017313326602368014,-0.01876929249835609,0.005117228787383619,0.04821199642848057,0.037574942042022004,-0.0031967975179008155,-0.0011649118312249008,0.032943426427155524,0.01975230454889109,-0.021431632010136027,-0.01337936877737455,0.016021592090271434,0.021722806800912018,-0.026307312454660968,-0.02938386703704135,0.01678837117525158,0.0221152520584581,-0.01983167166231588,-0.02966989446312584,0.016207781994966353,0.02771171571886669,-0.003727306117084748,-0.011593954443915084,0.023431369045125317,0.060601619719889185,0.0355715933652317,0.01700293098931274,0.06712126598919284,0.1044186155939868,0.10101857603591634,0.09769307215420406,0.14808518320145714,0.19857367074604854,0.2084082154367,0.20977690892261355,0.2241404178900268,0.29012057281565196,0.2790065098926691,0.2444344243834793,0.2400391165179341,0.267967526328704,0.27029764929030725,0.20412307713027308,0.1831412407474396,0.20091306170012066,0.19736663123098955,0.1381723550299408,0.1069898640944736,0.12526507761336533,0.13292286961972882,0.06774221123691129,0.017670769880334995,0.04705783182621357,0.05506629799984583,0.015943514490582913,-0.008107107984237577,0.012938612809487358,0.03187567224353012,0.010080107334109065,-0.028859183333972062,0.0008596693705006053,0.019854979204092228,0.015248629740722743,-0.027982871304961455,-0.009018156905079068,0.033523820356489376,0.015974156348842312,-0.0209101787841301,-0.010628975756789876,0.033944727561519,0.026999499185315388,-0.00572188020689115,0.0065740433378398645,0.05316075714472456,0.05251758838430564,0.013225214967194178,-0.0046493097588815365,0.03536295899957965,0.04530536582661256,-0.00485645373035133,-0.005714112666173754,0.042732131584136836,0.04394511812928886,0.008651301636206721,-0.013808104434981571,0.013036410613078923,-0.003060925814983735,-0.03421046277145602,0.007545485841897135,0.18442453710474468,0.4106201860472803,0.6003250055770123,0.7664122383818822,0.9517859977060884,0.9998358423855324,0.7753993381699017,0.4157591778456108,0.13327885765559516,-0.009849565859522498,-0.09731351029107596,-0.1119714580559011,-0.055980136046753406,0.05778798321023958,0.07273221414858416,0.042488687530862934,0.02283844704296518,0.05025483466794516,0.034639759718350954,-0.006841290548569118,-0.003391087464928558,0.017105524678397484,0.02032819399071072,-0.006590751102535972,0.005001426389484238,0.022930090113211773,0.023601685045464785,-0.010141628734256766,-0.016082575532911727,0.04439904136911882,0.04259337295468639,0.0,0.0,0.0,0.0,0.0,0.0,0.0,0.0,0.0,0.0,0.0,0.0,0.0,0.0,0.0,0.0,0.0,0.0,0.0,0.0,0.0,0.0,0.0,0.0,0.0,0.0,0.0,0.0,0.0,0.0,0.0,0.0,0.0,0.0,0.0,0.0,0.0,0.0,0.0,0.0,0.0,0.0,0.0,0.0,0.0,0.0,0.0,0.0,0.0,0.0,0.0,0.0,0.0,0.0,0.0,0.0,0.0,0.0,0.0,0.0,0.0,0.0,0.0,0.0,0.0,0.0,0.0,0.0,0.0,0.0,0.0,0.0,0.0,0.0,0.0,0.0,0.0,0.0,0.0,0.0,0.0,0.0,0.0,0.0,0.0,0.0,0.0,0.0,0.0,0.0,0.0,0.0,0.0,0.0,0.0,0.0,0.0,0.0,0.0,0.0,0.0,0.0,0.0,0.0,0.0,0.0,0.0,0.0,0.0,0.0,0.0,0.0,0.0,0.0,0.0,0.0,0.0,0.0,0.0,0.0,0.0,0.0,0.0,0.0,0.0,0.0,0.0,0.0,0.0,0.0,0.0,0.0,0.0,0.0,0.0,0.0,0.0,0.0,0.0,0.0,0.0,0.0,0.0,0.0,0.0,0.0,0.0,0.0,0.0,0.0,0.0,0.0,0.0,0.0,0.0,0.0,0.0,0.0,0.0,0.0,0.0,0
0.013861433255467986,0.12236124083916294,0.3295287527770426,0.5517015182360586,0.7223776514144186,0.8801710606372352,0.9971884682256622,0.9082344942453916,0.6175856229855952,0.2475040097037341,0.029657827532405562,-0.06600973120989337,-0.11246115418135297,-0.11400380741561945,-0.034174118033519614,0.06696487090883765,0.09931949071527227,0.08005956708412322,0.08427689689446742,0.10125181335244736,0.0795039731765489,0.03620137752627026,0.04428882123505788,0.07802819524810681,0.0644850842102013,0.025116852337758316,0.03715773261558795,0.07057800322536494,0.05887805462568393,-8.37780835524429e-05,0.026702970623066057,0.07488332846714005,0.05864942381164226,-0.0026884367626007076,0.004571929790727381,0.05683526051927691,0.04684048282032783,-0.010392994775626573,-0.016180211149785732,0.016610399763526074,0.012898920203096952,-0.035891076528582117,-0.022491146067237625,0.03379924712540325,0.038598094793278234,0.009077602071718014,0.00960586596188373,0.07022651272688653,0.07724958944721683,0.05213721688658236,0.039949171988895665,0.10076190710262704,0.11873899491143405,0.07887150375517983,0.06912318432887166,0.09808215934803144,0.12499484447157745,0.10481661177887633,0.11907352685334308,0.17635172732649973,0.2101520750090224,0.1818631455498577,0.15370046330331832,0.18573336672361188,0.22004021362186812,0.19655315655800595,0.16461235369412694,0.19715502285470216,0.20836709155850114,0.17464652249612572,0.1367485340540443,0.14829913089237745,0.15780508129407927,0.11591768863082685,0.050517424286479866,0.051697201003401534,0.08941419021169497,0.0563953478178691,0.008408203070169817,0.0076558329932362905,0.03696603894872565,0.01695356307218342,-0.024503208112166042,-0.01662044116036425,0.016995855463709134,0.029143209809932482,-0.018799828713583218,-0.030302431598995337,0.009647505438922654,0.006655859613147973,-0.03284354063512799,-0.040203879197065015,0.010319248484987751,0.04579134345584132,0.02331172734534873,0.005098045461142017,0.038350890461574014,0.04799006420525407,0.02114819774328592,0.002880149954644095,0.04038595056169182,0.0714565090827914,0.04246363944406208,0.017769010429838725,0.05744352533750401,0.10356778647862733,0.07247878993462174,0.05213514069816557,0.07042733700541831,0.09517787205426664,0.0749013976465148,0.041777876485328096,0.060166045532545724,0.0914511568105054,0.073420119083165,0.05541376624632679,0.06961035242017799,0.10099176979977008,0.08734347767208794,0.045825663987233936,0.045084718002981264,0.07653684281119423,0.041496399536293256,-0.0021174427219599378,0.05939146884801295,0.2346009355803527,0.4162435262954722,0.58715225335296,0.7580466434916802,0.9138999686767002,0.9109651155772224,0.6870109115689487,0.36858596862722137,0.10368822951659902,-0.0562236522251889,-0.13263094537039485,-0.13628319452242238,-0.045738195579202834,0.016725671311521466,0.0,0.0,0.0,0.0,0.0,0.0,0.0,0.0,0.0,0.0,0.0,0.0,0.0,0.0,0.0,0.0,0.0,0.0,0.0,0.0,0.0,0.0,0.0,0.0,0.0,0.0,0.0,0.0,0.0,0.0,0.0,0.0,0.0,0.0,0.0,0.0,0.0,0.0,0.0,0.0,0.0,0.0,0.0,0.0,0.0,0.0,0.0,0.0,0.0,0.0,0.0,0.0,0.0,0.0,0.0,0.0,0.0,0.0,0.0,0.0,0.0,0.0,0.0,0.0,0.0,0.0,0.0,0.0,0.0,0.0,0.0,0.0,0.0,0.0,0.0,0.0,0.0,0.0,0.0,0.0,0.0,0.0,0.0,0.0,0.0,0.0,0.0,0.0,0.0,0.0,0.0,0.0,0.0,0.0,0.0,0.0,0.0,0.0,0.0,0.0,0.0,0.0,0.0,0.0,0.0,0.0,0.0,0.0,0.0,0.0,0.0,0.0,0.0,0.0,0.0,0.0,0.0,0.0,0.0,0.0,0.0,0.0,0.0,0.0,0.0,0.0,0.0,0.0,0.0,0.0,0.0,0.0,0.0,0.0,0.0,0.0,0.0,0.0,0.0,0.0,0.0,0.0,0.0,0.0,0.0,0.0,0.0,0.0,0.0,0.0,0.0,0.0,0.0,0.0,0.0,0.0,0.0,0.0,0.0,0.0,0.0,0
0.22238112745198926,0.3598411348016697,0.5650411386077274,0.7504772286511769,0.8264552367574418,0.7732750903625291,0.5843571811256484,0.3384279115765695,0.09452386771007637,-0.09269492211840027,-0.12482024717481388,-0.08280457619912994,-0.0804000112562982,-0.047606436985120536,0.0462101104785116,0.11137931636584553,0.08229239510645091,0.039897998476463255,0.06514436679004247,0.0924215466282084,0.04955696060045375,0.0065606979518901464,0.02906773464303077,0.06677907808631954,0.027834368107470333,-0.013382200370966359,0.03720032315079901,0.061473183741511776,0.02007501946461971,-0.01260933598766643,-0.001568938796392354,0.05320942874595161,0.033617764901583545,0.0009172873771913533,0.02730620954012701,0.06904880442672616,0.051785150043708664,0.00396431839896526,0.01090837407197743,0.05075515707564603,0.03601947038406976,0.0038995299397321533,-0.0018443301625420344,0.058173339174626734,0.07021786976714284,0.045237969308385036,0.04011808215023554,0.09205553170565044,0.12231350505259565,0.08715365298974202,0.06752068149240571,0.12248453326866048,0.15361965543053646,0.11718570141484053,0.1181869835531478,0.15881788900333316,0.1778366642413197,0.17962374415051724,0.14668434693203716,0.19714362316192896,0.2391324460043259,0.2267167906530978,0.2255205068846681,0.27272968514283685,0.3005325162737787,0.27392731872370857,0.23447105452268024,0.2302816143138472,0.2263532718889767,0.18111685138207104,0.112062729408012,0.10667822499415128,0.10807953536094396,0.0834440845865949,0.030572814850200344,0.043513292105933514,0.07412980070054112,0.06553667641471858,0.011158837627805264,0.029104541779928945,0.07342453427469976,0.04348359624557581,-0.012608431303610959,0.001381595710740146,0.032942592180158284,0.014251436838909988,-0.0065812205471197024,0.007618034781281347,0.06558661705060696,0.04481593740331338,0.008728862790078245,0.009810872332403485,0.08086050675839762,0.07968163774998932,0.04344721817818707,0.0333915627546853,0.09324930695590593,0.10488489580802528,0.05734651283567345,0.044678589134092304,0.1062394503185164,0.11295487686910954,0.08887041056162481,0.11052941439497628,0.19760155551868436,0.2341351179415383,0.20479930415984532,0.24082014023747014,0.3531138269973819,0.4563483201663485,0.4651898099020028,0.3446131578680243,0.16677510452403188,0.05632905326139999,-0.07644083589399671,-0.1790675558181978,-0.18813967375834426,-0.11678889179019447,-0.04593945396732938,-0.028067883649939212,0.03966138529265125,0.06977993619896214,0.03606727109772324,0.004174718613687746,0.020066532286173708,0.07939599153325844,0.0837566671947555,0.033176206875918414,0.06330266989232368,0.1304144641868998,0.12954156419208954,0.11539588301054862,0.14706355153690706,0.1808207844411869,0.16856819557585684,0.1322033426861906,0.13955902842433626,0.17315751717971706,0.16958428779876195,0.120109772087757,0.0,0.0,0.0,0.0,0.0,0.0,0.0,0.0,0.0,0.0,0.0,0.0,0.0,0.0,0.0,0.0,0.0,0.0,0.0,0.0,0.0,0.0,0.0,0.0,0.0,0.0,0.0,0.0,0.0,0.0,0.0,0.0,0.0,0.0,0.0,0.0,0.0,0.0,0.0,0.0,0.0,0.0,0.0,0.0,0.0,0.0,0.0,0.0,0.0,0.0,0.0,0.0,0.0,0.0,0.0,0.0,0.0,0.0,0.0,0.0,0.0,0.0,0.0,0.0,0.0,0.0,0.0,0.0,0.0,0.0,0.0,0.0,0.0,0.0,0.0,0.0,0.0,0.0,0.0,0.0,0.0,0.0,0.0,0.0,0.0,0.0,0.0,0.0,0.0,0.0,0.0,0.0,0.0,0.0,0.0,0.0,0.0,0.0,0.0,0.0,0.0,0.0,0.0,0.0,0.0,0.0,0.0,0.0,0.0,0.0,0.0,0.0,0.0,0.0,0.0,0.0,0.0,0.0,0.0,0.0,0.0,0.0,0.0,0.0,0.0,0.0,0.0,0.0,0.0,0.0,0.0,0.0,0.0,0.0,0.0,0.0,0.0,0.0,0.0,0.0,0.0,0.0,0.0,0.0,0.0,0.0,0.0,0.0,0.0,0.0,0.0,0.0,0.0,0.0,0.0,0.0,0.0,0.0,0.0,0.0,0
-0.036526008345482884,0.06159044126270315,0.18959647623606565,0.3281890118351942,0.5031148236102241,0.7143757271537013,0.8203827679151414,0.7117225682310852,0.4677619879494518,0.2536753916804184,0.06730323164277914,-0.08707947856849797,-0.13440393459014624,-0.05966080387100444,-0.00014262297692568173,0.024853951443365656,0.019630318718480474,0.035683838763576635,0.05157236947338451,0.011529164973400865,-0.0050603536569441155,0.01683087948463067,0.042889049593321855,0.025928598203663784,-0.00829684372622313,0.021743416312604742,0.05384732787595433,0.023667455218173462,-0.006572588164758524,0.01891486313272913,0.055090099446341634,0.05476803995309116,0.02868579615768436,0.03692156716531,0.07304983453647419,0.057705491355013225,0.012351064921331891,0.014225985202192563,0.059049110202688875,0.04814705708537955,0.005126913076788213,0.02009909878385474,0.0737649033757023,0.0910483243321458,0.07839350051482721,0.09373075356882613,0.1327769922247726,0.1440525717032244,0.11683743844294985,0.10476911615118313,0.1529034380104561,0.17972439487944894,0.15520185112471105,0.15013277195655858,0.20098892122601256,0.23268692973260546,0.20232157209692564,0.17425028872378662,0.2042484020726314,0.2258095980419433,0.20675096663823492,0.14921289417006814,0.15616273265691286,0.1761071739785898,0.14468046969499174,0.08976288395837287,0.09930170188120796,0.11965550519263884,0.092891825944543,0.046888661286370835,0.04384796925848259,0.06659623983596552,0.033601446222736336,-0.027259665555236155,-0.015171113610380269,0.01837103612230289,-0.001725883464546978,-0.03685497236146472,-0.03768278367816868,0.0043673755948252175,0.01206471495635155,-0.02317272723155402,-0.030551739308464037,0.0135270069388314,0.033983019257412844,-0.005649283721879363,-0.02170016455816274,0.009432906508829692,0.03626984030178629,0.0008946707257304494,0.032030313177324056,0.18546027471104126,0.39254186033589705,0.582486171175155,0.753151196342856,0.900246735937808,0.9379583140964928,0.7804669537217123,0.481391965909234,0.19303148230142056,0.011904036386990958,-0.08989884539664111,-0.0866537815228071,-0.021277700774604943,0.06975652992724476,0.07703866117476084,0.02845579617747088,0.024834056820430613,0.03828282764706633,0.017313326602368014,-0.01876929249835609,0.005117228787383619,0.04821199642848057,0.037574942042022004,-0.0031967975179008155,-0.0011649118312249008,0.032943426427155524,0.01975230454889109,-0.021431632010136027,-0.01337936877737455,0.016021592090271434,0.021722806800912018,-0.026307312454660968,-0.02938386703704135,0.01678837117525158,0.0221152520584581,-0.01983167166231588,-0.02966989446312584,0.016207781994966353,0.02771171571886669,-0.003727306117084748,-0.011593954443915084,0.023431369045125317,0.060601619719889185,0.0355715933652317,0.01700293098931274,0.06712126598919284,0.1044186155939868,0.10101857603591634,0.0,0.0,0.0,0.0,0.0,0.0,0.0,0.0,0.0,0.0,0.0,0.0,0.0,0.0,0.0,0.0,0.0,0.0,0.0,0.0,0.0,0.0,0.0,0.0,0.0,0.0,0.0,0.0,0.0,0.0,0.0,0.0,0.0,0.0,0.0,0.0,0.0,0.0,0.0,0.0,0.0,0.0,0.0,0.0,0.0,0.0,0.0,0.0,0.0,0.0,0.0,0.0,0.0,0.0,0.0,0.0,0.0,0.0,0.0,0.0,0.0,0.0,0.0,0.0,0.0,0.0,0.0,0.0,0.0,0.0,0.0,0.0,0.0,0.0,0.0,0.0,0.0,0.0,0.0,0.0,0.0,0.0,0.0,0.0,0.0,0.0,0.0,0.0,0.0,0.0,0.0,0.0,0.0,0.0,0.0,0.0,0.0,0.0,0.0,0.0,0.0,0.0,0.0,0.0,0.0,0.0,0.0,0.0,0.0,0.0,0.0,0.0,0.0,0.0,0.0,0.0,0.0,0.0,0.0,0.0,0.0,0.0,0.0,0.0,0.0,0.0,0.0,0.0,0.0,0.0,0.0,0.0,0.0,0.0,0.0,0.0,0.0,0.0,0.0,0.0,0.0,0.0,0.0,0.0,0.0,0.0,0.0,0.0,0.0,0.0,0.0,0.0,0.0,0.0,0.0,0.0,0.0,0.0,0.0,0.0,0.0,0
0.032030313177324056,0.18546027471104126,0.39254186033589705,0.582486171175155,0.753151196342856,0.900246735937808,0.9379583140964928,0.7804669537217123,0.481391965909234,0.19303148230142056,0.011904036386990958,-0.08989884539664111,-0.0866537815228071,-0.021277700774604943,0.06975652992724476,0.07703866117476084,0.02845579617747088,0.024834056820430613,0.03828282764706633,0.017313326602368014,-0.01876929249835609,0.005117228787383619,0.04821199642848057,0.037574942042022004,-0.0031967975179008155,-0.0011649118312249008,0.032943426427155524,0.01975230454889109,-0.021431632010136027,-0.01337936877737455,0.016021592090271434,0.021722806800912018,-0.026307312454660968,-0.02938386703704135,0.01678837117525158,0.0221152520584581,-0.01983167166231588,-0.02966989446312584,0.016207781994966353,0.02771171571886669,-0.003727306117084748,-0.011593954443915084,0.023431369045125317,0.060601619719889185,0.0355715933652317,0.01700293098931274,0.06712126598919284,0.1044186155939868,0.10101857603591634,0.09769307215420406,0.14808518320145714,0.19857367074604854,0.2084082154367,0.20977690892261355,0.2241404178900268,0.29012057281565196,0.2790065098926691,0.2444344243834793,0.2400391165179341,0.267967526328704,0.27029764929030725,0.20412307713027308,0.1831412407474396,0.20091306170012066,0.19736663123098955,0.1381723550299408,0.1069898640944736,0.12526507761336533,0.13292286961972882,0.06774221123691129,0.017670769880334995,0.04705783182621357,0.05506629799984583,0.015943514490582913,-0.008107107984237577,0.012938612809487358,0.03187567224353012,0.010080107334109065,-0.028859183333972062,0.0008596693705006053,0.019854979204092228,0.015248629740722743,-0.027982871304961455,-0.009018156905079068,0.033523820356489376,0.015974156348842312,-0.0209101787841301,-0.010628975756789876,0.033944727561519,0.026999499185315388,-0.00572188020689115,0.0065740433378398645,0.05316075714472456,0.05251758838430564,0.013225214967194178,-0.0046493097588815365,0.03536295899957965,0.04530536582661256,-0.00485645373035133,-0.005714112666173754,0.042732131584136836,0.04394511812928886,0.008651301636206721,-0.013808104434981571,0.013036410613078923,-0.003060925814983735,-0.03421046277145602,0.007545485841897135,0.18442453710474468,0.4106201860472803,0.6003250055770123,0.7664122383818822,0.9517859977060884,0.9998358423855324,0.7753993381699017,0.4157591778456108,0.13327885765559516,-0.009849565859522498,-0.09731351029107596,-0.1119714580559011,-0.055980136046753406,0.05778798321023958,0.07273221414858416,0.042488687530862934,0.02283844704296518,0.05025483466794516,0.034639759718350954,-0.006841290548569118,-0.003391087464928558,0.017105524678397484,0.02032819399071072,-0.006590751102535972,0.005001426389484238,0.022930090113211773,0.023601685045464785,-0.010141628734256766,-0.016082575532911727,0.04439904136911882,0.04259337295468639,0.0,0.0,0.0,0.0,0.0,0.0,0.0,0.0,0.0,0.0,0.0,0.0,0.0,0.0,0.0,0.0,0.0,0.0,0.0,0.0,0.0,0.0,0.0,0.0,0.0,0.0,0.0,0.0,0.0,0.0,0.0,0.0,0.0,0.0,0.0,0.0,0.0,0.0,0.0,0.0,0.0,0.0,0.0,0.0,0.0,0.0,0.0,0.0,0.0,0.0,0.0,0.0,0.0,0.0,0.0,0.0,0.0,0.0,0.0,0.0,0.0,0.0,0.0,0.0,0.0,0.0,0.0,0.0,0.0,0.0,0.0,0.0,0.0,0.0,0.0,0.0,0.0,0.0,0.0,0.0,0.0,0.0,0.0,0.0,0.0,0.0,0.0,0.0,0.0,0.0,0.0,0.0,0.0,0.0,0.0,0.0,0.0,0.0,0.0,0.0,0.0,0.0,0.0,0.0,0.0,0.0,0.0,0.0,0.0,0.0,0.0,0.0,0.0,0.0,0.0,0.0,0.0,0.0,0.0,0.0,0.0,0.0,0.0,0.0,0.0,0.0,0.0,0.0,0.0,0.0,0.0,0.0,0.0,0.0,0.0,0.0,0.0,0.0,0.0,0.0,0.0,0.0,0.0,0.0,0.0,0.0,0.0,0.0,0.0,0.0,0.0,0.0,0.0,0.0,0.0,0.0,0.0,0.0,0.0,0.0,0.0,0
0.0714249255531598,0.20126586141465394,0.3998327256087484,0.5534266563506753,0.6792086643390645,0.8007728228923964,0.8258648737294464,0.6772434907955172,0.4171061966960787,0.15698848925982925,-0.00230260213740427,-0.07795104520300226,-0.08070475914400953,-0.0041420451431569295,0.0830817821157318,0.08013265267745984,0.04707182500622999,0.04825071007173677,0.0664999732782055,0.02672757099811935,-0.015297001248879056,0.0026314481721302816,0.024729351970425164,0.0037942360355523548,-0.0322918169364898,-0.014886488117711129,0.01739177982361393,-0.001962637161325065,-0.03862745061449641,-0.032536866614808466,0.0012938979134272696,-0.0014886443924541585,-0.034443860080150795,-0.03749905966670656,0.030114229238145163,0.013947872256989015,-0.008756544445969175,-0.005808312717812124,0.03782189479108025,0.057788723598069615,0.03265216179859316,0.03107352508832388,0.05306511520204669,0.06431465315688133,0.017637935138106742,0.028891456170423924,0.07448864510432254,0.0986636375673492,0.07353879234073199,0.08708091044389495,0.13500953207406904,0.1529760176613639,0.11739130769140088,0.11836523674171892,0.15805071247384228,0.1720964766074097,0.16050877813982173,0.15761743093613548,0.19346089314876225,0.2315732607272569,0.21618017305731171,0.1880435579553011,0.20723175159613166,0.2093861080430267,0.1623260939661138,0.13469812857072136,0.14580645799102607,0.14845108075486008,0.10830292586403034,0.06397158393377418,0.05406610406469955,0.07214440722756785,0.043115293362540906,0.001296307490995483,0.002457544901616216,0.03801079687022604,0.02213788534733438,-0.034442111473547456,-0.020182226622593617,0.01986258821105617,0.00202432013099686,-0.020067441671959396,-0.005654777634865979,0.03239022360274573,0.0361452023332928,0.009900657845020887,0.022305206231488163,0.06692273362975182,0.06866816395075881,0.02110493719186689,0.020769426059732816,0.04835296217994371,0.04593179481216183,0.013504399229430251,0.013282041992764605,0.05598928411612509,0.09442815242507012,0.04064013869556542,0.0126128146630521,0.05968469816219848,0.07887960647279899,0.0465962920731237,0.025044176418509274,0.05712495872343465,0.08062166034700043,0.06549616578917564,0.031051317882309262,0.06738375926237804,0.08653202080543877,0.06060204083132115,-0.008266802818964412,-0.019252712433248203,0.010476682906146395,0.05946502995582216,0.1448709016077619,0.3203222753632156,0.5236014688125414,0.6881986447659664,0.7669088372857698,0.7404122350379149,0.5486249370410063,0.23228733971821436,-0.028419925647439608,-0.11123985698782493,-0.08055181518271455,-0.0650828908567917,-0.051964267643383834,-0.019739839963677255,0.04661560461343557,0.035557835325587865,0.007164515082587603,0.010786746083178788,0.0507247864316029,0.051903606676404486,0.014332604195407309,0.004524490964103373,0.05252220536054671,0.0746690041683302,0.04308507275383426,0.0,0.0,0.0,0.0,0.0,0.0,0.0,0.0,0.0,0.0,0.0,0.0,0.0,0.0,0.0,0.0,0.0,0.0,0.0,0.0,0.0,0.0,0.0,0.0,0.0,0.0,0.0,0.0,0.0,0.0,0.0,0.0,0.0,0.0,0.0,0.0,0.0,0.0,0.0,0.0,0.0,0.0,0.0,0.0,0.0,0.0,0.0,0.0,0.0,0.0,0.0,0.0,0.0,0.0,0.0,0.0,0.0,0.0,0.0,0.0,0.0,0.0,0.0,0.0,0.0,0.0,0.0,0.0,0.0,0.0,0.0,0.0,0.0,0.0,0.0,0.0,0.0,0.0,0.0,0.0,0.0,0.0,0.0,0.0,0.0,0.0,0.0,0.0,0.0,0.0,0.0,0.0,0.0,0.0,0.0,0.0,0.0,0.0,0.0,0.0,0.0,0.0,0.0,0.0,0.0,0.0,0.0,0.0,0.0,0.0,0.0,0.0,0.0,0.0,0.0,0.0,0.0,0.0,0.0,0.0,0.0,0.0,0.0,0.0,0.0,0.0,0.0,0.0,0.0,0.0,0.0,0.0,0.0,0.0,0.0,0.0,0.0,0.0,0.0,0.0,0.0,0.0,0.0,0.0,0.0,0.0,0.0,0.0,0.0,0.0,0.0,0.0,0.0,0.0,0.0,0.0,0.0,0.0,0.0,0.0,0.0,0
-0.004681700940848733,0.07372551038501172,0.2292466685874185,0.33644567788937685,0.4893939370121578,0.6929103964368896,0.8697973422588096,0.8801368415264279,0.6804939269088432,0.43246477393146,0.21080357250347748,0.005835949928837286,-0.13180894887681865,-0.15873855677314594,-0.0749670763429419,-0.013163687591148452,-0.009503134043154466,0.030098966045828287,0.08635530255474398,0.09414694042923874,0.029361621546548738,0.024678503286070904,0.06563344144296132,0.08710632825102714,0.05292292215905808,0.023395860691502925,0.04677660243228713,0.06759262578318455,0.04001990672368677,0.007484849281909438,0.0423598517686244,0.0626375716986766,0.024905380630572217,-0.020174531322923184,0.01665482726697271,0.0365021009252823,0.012841336858366852,-0.02778557720390194,-0.005768794704321648,0.03548284441983661,0.01879048815424336,-0.022064481131257297,-0.014705849176342113,0.02881829412363185,0.02650795283868641,-0.009561881310509229,-0.0021874117831226173,0.04140966605901583,0.03199364724198968,0.01299867732859023,0.01338564472227743,0.05970318996794196,0.0675394748838555,0.03690876305372781,0.023305186263092,0.05568868023665835,0.08341702962218281,0.0630842892195675,0.0429470456205019,0.0905590329166894,0.11909406709292455,0.09720571723803537,0.08038554011708438,0.11688805787100062,0.1488313446449819,0.14727908452612684,0.14118660620919096,0.18363033064533227,0.26255703549274984,0.25012780272922897,0.257308505200446,0.2816911704494855,0.33292745380281874,0.309707190332669,0.2650982538456715,0.2473426038821443,0.2636737657830338,0.23448544502969665,0.18148170907232566,0.1625481959116263,0.17526506451019574,0.1520827237297238,0.102640557792418,0.07999648208015234,0.1179104358505517,0.11505971792861,0.05454743786852959,0.04732182178059622,0.07889731404841567,0.07207136795173949,0.01718216250885926,0.008291379584074608,0.0429733005235722,0.06332195931744296,0.01384335795445777,-0.006577114814728488,0.03581692318382152,0.06140988428637454,0.03400529331786671,0.00906931693074799,0.044480134616184386,0.07750673725963166,0.06471535626733257,0.0181520414110412,0.051174199223395736,0.08657669912740891,0.06645161759655714,0.034202278558486794,0.045292588008668484,0.09970607503198206,0.07922908185642442,0.04173680133794021,0.07163804170407216,0.11102261345258838,0.1261017975428731,0.1216812456641636,0.17734364781736714,0.24723757660767215,0.29998381511312266,0.2945531787631496,0.3418825035746065,0.4130005466178671,0.4572247097641451,0.3611535753871755,0.1850606060302853,0.042285481502939364,-0.0672056383520055,-0.14103462225391786,-0.16716822292579234,-0.11908669761041507,-0.08121483436778885,-0.07766153639208115,-0.043277225456441235,0.04850012866901876,0.1277493529433047,0.12696121468996152,0.07028879136270504,0.08560838881202536,0.10540914936467206,0.086301615957276,0.07897093622283889,0.1027434490389102,0.1648841841024457,0.1761703427858553,0.13421688518719885,0.15001048521640015,0.18980617378800652,0.17885112305603626,0.11234485923393127,0.11091952326900882,0.15047572247333915,0.1514333036621784,0.0,0.0,0.0,0.0,0.0,0.0,0.0,0.0,0.0,0.0,0.0,0.0,0.0,0.0,0.0,0.0,0.0,0.0,0.0,0.0,0.0,0.0,0.0,0.0,0.0,0.0,0.0,0.0,0.0,0.0,0.0,0.0,0.0,0.0,0.0,0.0,0.0,0.0,0.0,0.0,0.0,0.0,0.0,0.0,0.0,0.0,0.0,0.0,0.0,0.0,0.0,0.0,0.0,0.0,0.0,0.0,0.0,0.0,0.0,0.0,0.0,0.0,0.0,0.0,0.0,0.0,0.0,0.0,0.0,0.0,0.0,0.0,0.0,0.0,0.0,0.0,0.0,0.0,0.0,0.0,0.0,0.0,0.0,0.0,0.0,0.0,0.0,0.0,0.0,0.0,0.0,0.0,0.0,0.0,0.0,0.0,0.0,0.0,0.0,0.0,0.0,0.0,0.0,0.0,0.0,0.0,0.0,0.0,0.0,0.0,0.0,0.0,0.0,0.0,0.0,0.0,0.0,0.0,0.0,0.0,0.0,0.0,0.0,0.0,0.0,0.0,0.0,0.0,0.0,0.0,0.0,0.0,0.0,0.0,0.0,0.0,0.0,0.0,0.0,0.0,0.0,0.0,0.0,0.0,0.0,0.0,0.0,0.0,0
0.013861433255467986,0.12236124083916294,0.3295287527770426,0.5517015182360586,0.7223776514144186,0.8801710606372352,0.9971884682256622,0.9082344942453916,0.6175856229855952,0.2475040097037341,0.029657827532405562,-0.06600973120989337,-0.11246115418135297,-0.11400380741561945,-0.034174118033519614,0.06696487090883765,0.09931949071527227,0.08005956708412322,0.08427689689446742,0.10125181335244736,0.0795039731765489,0.03620137752627026,0.04428882123505788,0.07802819524810681,0.0644850842102013,0.025116852337758316,0.03715773261558795,0.07057800322536494,0.05887805462568393,-8.37780835524429e-05,0.026702970623066057,0.07488332846714005,0.05864942381164226,-0.0026884367626007076,0.004571929790727381,0.05683526051927691,0.04684048282032783,-0.010392994775626573,-0.016180211149785732,0.016610399763526074,0.012898920203096952,-0.035891076528582117,-0.022491146067237625,0.03379924712540325,0.038598094793278234,0.009077602071718014,0.00960586596188373,0.07022651272688653,0.07724958944721683,0.05213721688658236,0.039949171988895665,0.10076190710262704,0.11873899491143405,0.07887150375517983,0.06912318432887166,0.09808215934803144,0.12499484447157745,0.10481661177887633,0.11907352685334308,0.17635172732649973,0.2101520750090224,0.1818631455498577,0.15370046330331832,0.18573336672361188,0.22004021362186812,0.19655315655800595,0.16461235369412694,0.19715502285470216,0.20836709155850114,0.17464652249612572,0.1367485340540443,0.14829913089237745,0.15780508129407927,0.11591768863082685,0.050517424286479866,0.051697201003401534,0.08941419021169497,0.0563953478178691,0.008408203070169817,0.0076558329932362905,0.03696603894872565,0.01695356307218342,-0.024503208112166042,-0.01662044116036425,0.016995855463709134,0.029143209809932482,-0.018799828713583218,-0.030302431598995337,0.009647505438922654,0.006655859613147973,-0.03284354063512799,-0.040203879197065015,0.010319248484987751,0.04579134345584132,0.02331172734534873,0.005098045461142017,0.038350890461574014,0.04799006420525407,0.02114819774328592,0.002880149954644095,0.04038595056169182,0.0714565090827914,0.04246363944406208,0.017769010429838725,0.05744352533750401,0.10356778647862733,0.07247878993462174,0.05213514069816557,0.07042733700541831,0.09517787205426664,0.0749013976465148,0.041777876485328096,0.060166045532545724,0.0914511568105054,0.073420119083165,0.05541376624632679,0.06961035242017799,0.10099176979977008,0.08734347767208794,0.045825663987233936,0.045084718002981264,0.07653684281119423,0.041496399536293256,-0.0021174427219599378,0.05939146884801295,0.2346009355803527,0.4162435262954722,0.58715225335296,0.7580466434916802,0.9138999686767002,0.9109651155772224,0.6870109115689487,0.36858596862722137,0.10368822951659902,-0.0562236522251889,-0.13263094537039485,-0.13628319452242238,-0.045738195579202834,0.016725671311521466,0.0,0.0,0.0,0.0,0.0,0.0,0.0,0.0,0.0,0.0,0.0,0.0,0.0,0.0,0.0,0.0,0.0,0.0,0.0,0.0,0.0,0.0,0.0,0.0,0.0,0.0,0.0,0.0,0.0,0.0,0.0,0.0,0.0,0.0,0.0,0.0,0.0,0.0,0.0,0.0,0.0,0.0,0.0,0.0,0.0,0.0,0.0,0.0,0.0,0.0,0.0,0.0,0.0,0.0,0.0,0.0,0.0,0.0,0.0,0.0,0.0,0.0,0.0,0.0,0.0,0.0,0.0,0.0,0.0,0.0,0.0,0.0,0.0,0.0,0.0,0.0,0.0,0.0,0.0,0.0,0.0,0.0,0.0,0.0,0.0,0.0,0.0,0.0,0.0,0.0,0.0,0.0,0.0,0.0,0.0,0.0,0.0,0.0,0.0,0.0,0.0,0.0,0.0,0.0,0.0,0.0,0.0,0.0,0.0,0.0,0.0,0.0,0.0,0.0,0.0,0.0,0.0,0.0,0.0,0.0,0.0,0.0,0.0,0.0,0.0,0.0,0.0,0.0,0.0,0.0,0.0,0.0,0.0,0.0,0.0,0.0,0.0,0.0,0.0,0.0,0.0,0.0,0.0,0.0,0.0,0.0,0.0,0.0,0.0,0.0,0.0,0.0,0.0,0.0,0.0,0.0,0.0,0.0,0.0,0.0,0.0,0
0.4112235772453528,0.5604654332512464,0.7601617332009636,0.7956075621595163,0.6040617248897487,0.3036927630053821,0.12603879247509173,0.01076228411665364,-0.0807652756594759,-0.0834485910514133,-0.014198910972293062,0.04736368878615537,0.009559567002832269,-0.0817967310464029,-0.07234247895031283,-0.06581074618273901,-0.08873787799618241,-0.11217376172305883,-0.06374056302408886,-0.015780762963580105,0.014849418646845115,0.016119626898411083,0.07972329583809692,0.15021062413861389,0.1841923261821064,0.14310273102796325,0.16687677879744786,0.20006188201838535,0.17514370450879432,0.12591859011494844,0.11271601848160648,0.15244554808729127,0.14864357916685514,0.09892088146952782,0.10702352759467328,0.14402703795221009,0.14482365485668108,0.1021972892518196,0.1030062597052024,0.16174288784248456,0.17228983699889694,0.13225282499807925,0.10677782843959613,0.13688833400706207,0.17194434561801406,0.14924426842240626,0.12910697397277274,0.17667495333067051,0.2147712629770184,0.18069117320906355,0.14681112091795898,0.17103354234789625,0.19547536215870207,0.17913792989876878,0.16062365229070094,0.1833584060978185,0.22805051047043454,0.21992716186763406,0.18070173110324972,0.2141007067715106,0.24293595906930154,0.22378884780252867,0.17354408972686536,0.18386295147440387,0.21614795723693195,0.1859692374530124,0.14397808227164227,0.12876393766971905,0.14514496962117324,0.13039758005513702,0.06762891961436204,0.06779117880837264,0.11399051814742205,0.10731854176966406,0.04535359846796223,0.014924266454223956,0.05461523986871415,0.06551671491496214,0.02349628354095577,0.0009085247184086713,0.012215511173236491,0.006750373728803328,-0.01791016056543223,-0.02559447256896029,0.00780984399807047,0.014754678013470019,-0.004767000469061368,-0.01699173505665844,0.021493114969318838,0.05037794133949282,0.019001759779641157,-0.002687522615039694,0.03113607759002265,0.050514021615288514,0.024082540843750375,0.0024918315044978896,0.03639196941391641,0.0751213375915682,0.05836940563643848,0.02472476501330708,0.05378282404802835,0.09246880985759327,0.06117366912786516,0.02743104097679098,0.0250036985414169,0.04905935196066402,0.027224466129850414,-0.01638742474516516,-0.009419265277204492,0.02882460784932612,0.02356054688102417,-0.03486630269862452,-0.011379941297917784,0.014414667972359374,0.02321821472540819,-0.030802695015917692,-0.01980440502669748,0.017619049476422764,0.035638966099727186,-0.013985628510930216,-0.01305526820693268,0.03360951567073708,0.048823946076100785,-0.0011776305111129651,-0.0006057740895905727,0.045719923957754836,0.04855352951516079,-0.006573451312097208,-0.018344977657630827,0.02289266694588769,0.0496050900528232,0.03044052773194337,0.001588088251675805,0.054716933577007236,0.08852158851788229,0.052352144468410335,0.035464856395343816,0.06681114587514995,0.07885494255271339,0.05712786505120439,0.013695149236088026,0.023338499828249083,0.06676442133070852,0.04990163273332997,0.023409491114821133,0.025886189719813383,0.06939579322847489,0.06227837368717715,0.033482799422450964,0.04814037034669614,0.07489490435101498,0.06550469856838026,0.0,0.0,0.0,0.0,0.0,0.0,0.0,0.0,0.0,0.0,0.0,0.0,0.0,0.0,0.0,0.0,0.0,0.0,0.0,0.0,0.0,0.0,0.0,0.0,0.0,0.0,0.0,0.0,0.0,0.0,0.0,0.0,0.0,0.0,0.0,0.0,0.0,0.0,0.0,0.0,0.0,0.0,0.0,0.0,0.0,0.0,0.0,0.0,0.0,0.0,0.0,0.0,0.0,0.0,0.0,0.0,0.0,0.0,0.0,0.0,0.0,0.0,0.0,0.0,0.0,0.0,0.0,0.0,0.0,0.0,0.0,0.0,0.0,0.0,0.0,0.0,0.0,0.0,0.0,0.0,0.0,0.0,0.0,0.0,0.0,0.0,0.0,0.0,0.0,0.0,0.0,0.0,0.0,0.0,0.0,0.0,0.0,0.0,0.0,0.0,0.0,0.0,0.0,0.0,0.0,0.0,0.0,0.0,0.0,0.0,0.0,0.0,0.0,0.0,0.0,0.0,0.0,0.0,0.0,0.0,0.0,0.0,0.0,0.0,0.0,0.0,0.0,0.0,0.0,0.0,0.0,0.0,0.0,0.0,0.0,0.0,0.0,0.0,0.0,0.0,0.0,0.0,0.0,0.0,0.0,0.0,0.0,0.0,0
0.032030313177324056,0.18546027471104126,0.39254186033589705,0.582486171175155,0.753151196342856,0.900246735937808,0.9379583140964928,0.7804669537217123,0.481391965909234,0.19303148230142056,0.011904036386990958,-0.08989884539664111,-0.0866537815228071,-0.021277700774604943,0.06975652992724476,0.07703866117476084,0.02845579617747088,0.024834056820430613,0.03828282764706633,0.017313326602368014,-0.01876929249835609,0.005117228787383619,0.04821199642848057,0.037574942042022004,-0.0031967975179008155,-0.0011649118312249008,0.032943426427155524,0.01975230454889109,-0.021431632010136027,-0.01337936877737455,0.016021592090271434,0.021722806800912018,-0.026307312454660968,-0.02938386703704135,0.01678837117525158,0.0221152520584581,-0.01983167166231588,-0.02966989446312584,0.016207781994966353,0.02771171571886669,-0.003727306117084748,-0.011593954443915084,0.023431369045125317,0.060601619719889185,0.0355715933652317,0.01700293098931274,0.06712126598919284,0.1044186155939868,0.10101857603591634,0.09769307215420406,0.14808518320145714,0.19857367074604854,0.2084082154367,0.20977690892261355,0.2241404178900268,0.29012057281565196,0.2790065098926691,0.2444344243834793,0.2400391165179341,0.267967526328704,0.27029764929030725,0.20412307713027308,0.1831412407474396,0.20091306170012066,0.19736663123098955,0.1381723550299408,0.1069898640944736,0.12526507761336533,0.13292286961972882,0.06774221123691129,0.017670769880334995,0.04705783182621357,0.05506629799984583,0.015943514490582913,-0.008107107984237577,0.012938612809487358,0.03187567224353012,0.010080107334109065,-0.028859183333972062,0.0008596693705006053,0.019854979204092228,0.015248629740722743,-0.027982871304961455,-0.009018156905079068,0.033523820356489376,0.015974156348842312,-0.0209101787841301,-0.010628975756789876,0.033944727561519,0.026999499185315388,-0.00572188020689115,0.0065740433378398645,0.05316075714472456,0.05251758838430564,0.013225214967194178,-0.0046493097588815365,0.03536295899957965,0.04530536582661256,-0.00485645373035133,-0.005714112666173754,0.042732131584136836,0.04394511812928886,0.008651301636206721,-0.013808104434981571,0.013036410613078923,-0.003060925814983735,-0.03421046277145602,0.007545485841897135,0.18442453710474468,0.4106201860472803,0.6003250055770123,0.7664122383818822,0.9517859977060884,0.9998358423855324,0.7753993381699017,0.4157591778456108,0.13327885765559516,-0.009849565859522498,-0.09731351029107596,-0.1119714580559011,-0.055980136046753406,0.05778798321023958,0.07273221414858416,0.042488687530862934,0.02283844704296518,0.05025483466794516,0.034639759718350954,-0.006841290548569118,-0.003391087464928558,0.017105524678397484,0.02032819399071072,-0.006590751102535972,0.005001426389484238,0.022930090113211773,0.023601685045464785,-0.010141628734256766,-0.016082575532911727,0.04439904136911882,0.04259337295468639,0.0,0.0,0.0,0.0,0.0,0.0,0.0,0.0,0.0,0.0,0.0,0.0,0.0,0.0,0.0,0.0,0.0,0.0,0.0,0.0,0.0,0.0,0.0,0.0,0.0,0.0,0.0,0.0,0.0,0.0,0.0,0.0,0.0,0.0,0.0,0.0,0.0,0.0,0.0,0.0,0.0,0.0,0.0,0.0,0.0,0.0,0.0,0.0,0.0,0.0,0.0,0.0,0.0,0.0,0.0,0.0,0.0,0.0,0.0,0.0,0.0,0.0,0.0,0.0,0.0,0.0,0.0,0.0,0.0,0.0,0.0,0.0,0.0,0.0,0.0,0.0,0.0,0.0,0.0,0.0,0.0,0.0,0.0,0.0,0.0,0.0,0.0,0.0,0.0,0.0,0.0,0.0,0.0,0.0,0.0,0.0,0.0,0.0,0.0,0.0,0.0,0.0,0.0,0.0,0.0,0.0,0.0,0.0,0.0,0.0,0.0,0.0,0.0,0.0,0.0,0.0,0.0,0.0,0.0,0.0,0.0,0.0,0.0,0.0,0.0,0.0,0.0,0.0,0.0,0.0,0.0,0.0,0.0,0.0,0.0,0.0,0.0,0.0,0.0,0.0,0.0,0.0,0.0,0.0,0.0,0.0,0.0,0.0,0.0,0.0,0.0,0.0,0.0,0.0,0.0,0.0,0.0,0.0,0.0,0.0,0.0,0
0.06010866256547572,0.17647376062384088,0.29766041054291115,0.4284895130998064,0.636497235264339,0.8276013495915272,0.8980677146894834,0.7972260741935865,0.5564158988168477,0.2479797818500095,-0.009910991057212043,-0.135269117131748,-0.11847183801185407,-0.05119522510732374,-0.034752826464069346,-0.03295890326621466,0.007260864876908269,0.06420626063111998,0.051048092997988494,0.028100004723911932,0.04361446898891056,0.0927757954389659,0.10322695542260404,0.0629150280389365,0.051449525129233,0.07848634086933019,0.07166689477123378,0.03582206560108549,0.024026031094203315,0.0507578640326567,0.05571884824770185,0.02444148821974234,0.01482349579041594,0.03651880329026876,0.03405233157244058,-0.007044072395843036,-0.02163669735799168,0.02163827701690768,0.048010680477986664,0.014068611830364132,-0.0005787440499352065,0.04267061866195125,0.08110708043390555,0.039959894054803886,0.008486341610530823,0.051821676735675636,0.05659957860961357,0.030062610562461668,-0.00607384988246108,0.0277978132494916,0.049669540981476745,0.03783770697714781,-0.002867551930539043,0.021634477914590056,0.0631059935403745,0.04677507228525631,0.0015933391605578026,0.01922893979698496,0.08280178292533501,0.07894436652440548,0.03178319787948238,0.045046424105041886,0.09220415867971522,0.10089481541154532,0.04941218725661433,0.07525363179897301,0.10364416742567496,0.12011300788517736,0.08124265432291003,0.07869724776948403,0.12453848849121575,0.1343403686608821,0.09604174371429272,0.08441938053198432,0.10912062842584716,0.12190002584648825,0.047977554124365,0.015195945765136647,0.04767383018384374,0.06821808047813248,0.03581807435423582,0.003537980170102067,0.031678335788855434,0.06475488385495863,0.047283208621195325,0.003380605116952826,0.03194180077623293,0.06783307129760112,0.03627180120988869,-0.004854906538391561,0.05058352694591733,0.08197295244493763,0.06759846529563973,0.04122495686942969,0.06315099206239462,0.10683634649926677,0.06855062836397761,0.025476626547414543,0.025850592805132955,0.05760407987999239,0.03147865957604819,-0.016350875333553377,-0.011114963626043773,0.11230877779377203,0.24536662164949324,0.4097621538406852,0.5958393561864327,0.8156498074816934,0.9389233182788762,0.8595074495331774,0.615976039494152,0.2975544690429404,0.003113770641215235,-0.139530316639506,-0.1521174069378747,-0.06843477333837412,0.005379276272696547,-0.0006243217097571198,0.002809411314834883,0.03015784443694712,0.0645399554526248,0.023945634008763112,-0.007194935249926818,0.0024802895590807124,0.04091474226387536,0.0019767125489808463,-0.027491085260189733,0.005583493165658768,0.03849042628016066,0.03022931040612713,-0.019193341877659163,-0.006047305936120118,0.02866849432235053,0.029482612292327518,-0.022893798996348545,0.006629969444782232,0.0432868922442058,0.0436682881279337,-0.001864180499928872,0.01766007368240816,0.04435901453110673,0.04688452911896796,0.008361379914815264,0.022874506763221843,0.051838750116823325,0.0566688360557214,0.006015780061814582,0.025322200509684357,0.07117788513223622,0.08328721499509541,0.032712592521834144,0.03765915847608268,0.0,0.0,0.0,0.0,0.0,0.0,0.0,0.0,0.0,0.0,0.0,0.0,0.0,0.0,0.0,0.0,0.0,0.0,0.0,0.0,0.0,0.0,0.0,0.0,0.0,0.0,0.0,0.0,0.0,0.0,0.0,0.0,0.0,0.0,0.0,0.0,0.0,0.0,0.0,0.0,0.0,0.0,0.0,0.0,0.0,0.0,0.0,0.0,0.0,0.0,0.0,0.0,0.0,0.0,0.0,0.0,0.0,0.0,0.0,0.0,0.0,0.0,0.0,0.0,0.0,0.0,0.0,0.0,0.0,0.0,0.0,0.0,0.0,0.0,0.0,0.0,0.0,0.0,0.0,0.0,0.0,0.0,0.0,0.0,0.0,0.0,0.0,0.0,0.0,0.0,0.0,0.0,0.0,0.0,0.0,0.0,0.0,0.0,0.0,0.0,0.0,0.0,0.0,0.0,0.0,0.0,0.0,0.0,0.0,0.0,0.0,0.0,0.0,0.0,0.0,0.0,0.0,0.0,0.0,0.0,0.0,0.0,0.0,0.0,0.0,0.0,0.0,0.0,0.0,0.0,0.0,0.0,0.0,0.0,0.0,0.0,0.0,0.0,0.0,0.0,0.0,0.0,0.0,0.0,0.0,0.0,0.0,0.0,0
0.12038486158159592,0.2357409516756507,0.4185883425879207,0.6351551301423646,0.8106602085131254,0.8558461989076004,0.7562293380528019,0.5359165092876681,0.15629406030970133,-0.03530508233694093,-0.13780260363716712,-0.10538586268211317,-0.027311367765790014,0.0047622016095637,0.012551355185225292,0.05154313900401907,0.08556158747505781,0.05189646577475187,0.018094985991429537,0.05411628359627266,0.08277624880939988,0.0413635984606068,-0.002575489781699661,0.0016196748766176678,0.04189327340647999,0.04106054132050637,0.0039507220811539154,0.0198192541295612,0.06454896148967816,0.0633667289203514,0.011452421525912844,0.0028850850495326964,0.035256393364972945,0.038616885695459915,-0.00873941771409661,-0.01032172930927272,0.03628643696692077,0.049076147454369605,0.013579407285885062,0.016639656551206538,0.05584950143128396,0.07090907614440453,0.023227881447990498,-0.012412341782338555,0.01706038540298698,0.041697895001698064,0.01567376236142379,-0.024824428243476568,0.019107583587289718,0.05340178736009776,0.04188246580778494,-0.010619256637645484,0.01168794684187597,0.053331428465841206,0.039541019092547744,0.006506694721546244,0.02177661089466436,0.06847249033886829,0.07423574099887202,0.02942418295168305,0.040180042624364316,0.07515097600766081,0.09574788959655683,0.05373258267042655,0.05765826200605927,0.11235400251448303,0.15028310485994031,0.11114485653220847,0.0914296798424038,0.13938378407370966,0.17058286377587198,0.1391968424226366,0.10794301950664337,0.1298892670755898,0.13990595706813308,0.09457245776323736,0.049366935382564286,0.05735490042030408,0.07752648479385195,0.0761080822416485,0.04827189325190046,0.06396740659306112,0.08459564074090438,0.05467201427789375,0.012786654550406756,0.02647560992693948,0.07161191596577994,0.07823700140869866,0.04152087429781391,0.05553264896271963,0.10579300319542527,0.11510558262995026,0.059341526969313135,0.03498054364774459,0.05648782597563524,0.08284818646145944,0.03686341219682408,0.005363310864814367,0.029346031392986725,0.055734564150225215,0.02180302131452674,-0.01697780321498949,0.02139678696269651,0.062141214903046985,0.01840888235167695,-0.02296995335873256,0.01277395873417503,0.04362016550146239,0.009257795731041041,-0.0203663651701496,-0.006663955331521443,0.0286507502926422,0.03009354971125957,-0.024049342207947612,-0.046943632131793284,-0.02170604512987423,-0.035172709829582684,-0.0246223551427077,0.08955491148267304,0.321842384362293,0.5564650353174723,0.7234777013960769,0.878365946310287,0.9439416587987368,0.7947686784666791,0.4646101943131184,0.11989547907870485,-0.029529225973597733,-0.07292895434085224,-0.08026847132219407,-0.05155231087580328,0.032520081466376,0.09959120876499697,0.07006686288475836,0.050090418353367895,0.06137849908283104,0.07981600409459366,0.06681442832651126,0.012731062018608682,0.016471090271982146,0.0611548570036572,0.0671858692804628,0.02250844862005295,0.016378260948400666,0.08739501948040307,0.093244640650964,0.0580532216174832,0.039716953426712116,0.07200990820746893,0.07533336484022654,0.040041545246209516,0.011968500579015913,0.0,0.0,0.0,0.0,0.0,0.0,0.0,0.0,0.0,0.0,0.0,0.0,0.0,0.0,0.0,0.0,0.0,0.0,0.0,0.0,0.0,0.0,0.0,0.0,0.0,0.0,0.0,0.0,0.0,0.0,0.0,0.0,0.0,0.0,0.0,0.0,0.0,0.0,0.0,0.0,0.0,0.0,0.0,0.0,0.0,0.0,0.0,0.0,0.0,0.0,0.0,0.0,0.0,0.0,0.0,0.0,0.0,0.0,0.0,0.0,0.0,0.0,0.0,0.0,0.0,0.0,0.0,0.0,0.0,0.0,0.0,0.0,0.0,0.0,0.0,0.0,0.0,0.0,0.0,0.0,0.0,0.0,0.0,0.0,0.0,0.0,0.0,0.0,0.0,0.0,0.0,0.0,0.0,0.0,0.0,0.0,0.0,0.0,0.0,0.0,0.0,0.0,0.0,0.0,0.0,0.0,0.0,0.0,0.0,0.0,0.0,0.0,0.0,0.0,0.0,0.0,0.0,0.0,0.0,0.0,0.0,0.0,0.0,0.0,0.0,0.0,0.0,0.0,0.0,0.0,0.0,0.0,0.0,0.0,0.0,0.0,0.0,0.0,0.0,0.0,0.0,0.0,0.0,0.0,0.0,0.0,0.0,0.0,0
0.0658915059145483,0.04708700730180479,-0.006652225260104159,0.0009145372163419458,0.04134498893589311,0.040260731782760906,-0.004531558337162932,-0.009915529575634342,0.032852886917110184,0.029709362720950743,-0.019350986603065064,-0.024648451294896557,0.035688101502394765,0.03697415200547289,0.005457861733437212,0.00019869858309299763,0.03869488091387999,0.06188447984532445,0.012892805772445849,-0.0010976840898061905,0.04834782401317088,0.060605715872002426,0.007237416284818659,0.0019871757645223416,0.03610297464266194,0.04395953181756622,0.005867473420542932,0.009321410530229302,0.04338145114249768,0.05117156889831546,-0.01762218121891246,-0.05800627484088725,0.01970245725862181,0.15207240240911465,0.3019210424265776,0.4539394262639621,0.6715646722653253,0.847611874585571,0.8573933075570593,0.6637143174486864,0.39124598705524266,0.1318445893514651,-0.051072184666515134,-0.10502446697500216,-0.04315052018968864,0.04704865690157289,0.05182697181157498,0.01930812030225748,0.02167729924957602,0.061121760992157485,0.01514498273796204,-0.011256857924491777,-0.004959834627303347,0.020911855400157803,0.0029235328651643377,-0.045799439837867766,-0.009322375686993777,0.037987114045413585,0.03707433296195591,-0.0011177572736082394,0.0065389003774397,0.04036312989556634,0.03036276931908853,-0.008144667883314962,0.00796859519001738,0.04589717343961665,0.03127441967498102,-0.01839436728455425,0.006268130503952376,0.04183379120641388,0.03581162539757945,-0.003041448519621545,0.006216589546238114,0.05265587312849069,0.03784919468161151,0.014301943123653285,0.03889418362649062,0.0853834653561689,0.07502875701026998,0.0340853723641396,0.036931770547088384,0.09232325776463338,0.09308101981885934,0.04358485114034612,0.06633544924905163,0.10665124099896237,0.11860005256640932,0.08249836987029117,0.0902211560740278,0.14177078635348514,0.14965187478283978,0.10511590557865436,0.117534983192595,0.16722215425283374,0.15574229871630893,0.10715569442345987,0.09802022650077792,0.11520850155047535,0.11496857757506375,0.04479820553495606,0.0490635090384725,0.07744887296200809,0.08401330236420801,0.04031487705853442,0.022908028787028432,0.06241089996949355,0.06257041899152131,0.008068213930419173,0.006081834005672228,0.04785485235111652,0.061195261944383926,-0.006402288762076018,-0.008387077051430498,0.03335990626846085,0.03789778291481975,-0.014466375197527227,-0.03624148089767947,0.009753974043259738,0.031646408550906766,-0.014314286721242441,-0.023132952358689382,0.009565024415007466,0.037845500759116135,0.0026496895083961435,-0.008523391486749209,0.03057714537849949,0.04558109093585778,0.012429036378961651,-0.0010664795083029346,0.020408633915222556,0.0506073463581932,0.019533870488139857,-0.0115618690702749,0.03825684938733839,0.06399606220162425,0.04159662617519615,0.012622060627288082,0.06457176464185539,0.08588869395185708,0.07438711892631525,0.0,0.0,0.0,0.0,0.0,0.0,0.0,0.0,0.0,0.0,0.0,0.0,0.0,0.0,0.0,0.0,0.0,0.0,0.0,0.0,0.0,0.0,0.0,0.0,0.0,0.0,0.0,0.0,0.0,0.0,0.0,0.0,0.0,0.0,0.0,0.0,0.0,0.0,0.0,0.0,0.0,0.0,0.0,0.0,0.0,0.0,0.0,0.0,0.0,0.0,0.0,0.0,0.0,0.0,0.0,0.0,0.0,0.0,0.0,0.0,0.0,0.0,0.0,0.0,0.0,0.0,0.0,0.0,0.0,0.0,0.0,0.0,0.0,0.0,0.0,0.0,0.0,0.0,0.0,0.0,0.0,0.0,0.0,0.0,0.0,0.0,0.0,0.0,0.0,0.0,0.0,0.0,0.0,0.0,0.0,0.0,0.0,0.0,0.0,0.0,0.0,0.0,0.0,0.0,0.0,0.0,0.0,0.0,0.0,0.0,0.0,0.0,0.0,0.0,0.0,0.0,0.0,0.0,0.0,0.0,0.0,0.0,0.0,0.0,0.0,0.0,0.0,0.0,0.0,0.0,0.0,0.0,0.0,0.0,0.0,0.0,0.0,0.0,0.0,0.0,0.0,0.0,0.0,0.0,0.0,0.0,0.0,0.0,0.0,0.0,0.0,0.0,0.0,0.0,0.0,0.0,0.0,0.0,0.0,0.0,0
0.4112235772453528,0.5604654332512464,0.7601617332009636,0.7956075621595163,0.6040617248897487,0.3036927630053821,0.12603879247509173,0.01076228411665364,-0.0807652756594759,-0.0834485910514133,-0.014198910972293062,0.04736368878615537,0.009559567002832269,-0.0817967310464029,-0.07234247895031283,-0.06581074618273901,-0.08873787799618241,-0.11217376172305883,-0.06374056302408886,-0.015780762963580105,0.014849418646845115,0.016119626898411083,0.07972329583809692,0.15021062413861389,0.1841923261821064,0.14310273102796325,0.16687677879744786,0.20006188201838535,0.17514370450879432,0.12591859011494844,0.11271601848160648,0.15244554808729127,0.14864357916685514,0.09892088146952782,0.10702352759467328,0.14402703795221009,0.14482365485668108,0.1021972892518196,0.1030062597052024,0.16174288784248456,0.17228983699889694,0.13225282499807925,0.10677782843959613,0.13688833400706207,0.17194434561801406,0.14924426842240626,0.12910697397277274,0.17667495333067051,0.2147712629770184,0.18069117320906355,0.14681112091795898,0.17103354234789625,0.19547536215870207,0.17913792989876878,0.16062365229070094,0.1833584060978185,0.22805051047043454,0.21992716186763406,0.18070173110324972,0.2141007067715106,0.24293595906930154,0.22378884780252867,0.17354408972686536,0.18386295147440387,0.21614795723693195,0.1859692374530124,0.14397808227164227,0.12876393766971905,0.14514496962117324,0.13039758005513702,0.06762891961436204,0.06779117880837264,0.11399051814742205,0.10731854176966406,0.04535359846796223,0.014924266454223956,0.05461523986871415,0.06551671491496214,0.02349628354095577,0.0009085247184086713,0.012215511173236491,0.006750373728803328,-0.01791016056543223,-0.02559447256896029,0.00780984399807047,0.014754678013470019,-0.004767000469061368,-0.01699173505665844,0.021493114969318838,0.05037794133949282,0.019001759779641157,-0.002687522615039694,0.03113607759002265,0.050514021615288514,0.024082540843750375,0.0024918315044978896,0.03639196941391641,0.0751213375915682,0.05836940563643848,0.02472476501330708,0.05378282404802835,0.09246880985759327,0.06117366912786516,0.02743104097679098,0.0250036985414169,0.04905935196066402,0.027224466129850414,-0.01638742474516516,-0.009419265277204492,0.02882460784932612,0.02356054688102417,-0.03486630269862452,-0.011379941297917784,0.014414667972359374,0.02321821472540819,-0.030802695015917692,-0.01980440502669748,0.017619049476422764,0.035638966099727186,-0.013985628510930216,-0.01305526820693268,0.03360951567073708,0.048823946076100785,-0.0011776305111129651,-0.0006057740895905727,0.045719923957754836,0.04855352951516079,-0.006573451312097208,-0.018344977657630827,0.02289266694588769,0.0496050900528232,0.03044052773194337,0.001588088251675805,0.054716933577007236,0.08852158851788229,0.052352144468410335,0.035464856395343816,0.06681114587514995,0.07885494255271339,0.05712786505120439,0.013695149236088026,0.023338499828249083,0.06676442133070852,0.04990163273332997,0.023409491114821133,0.025886189719813383,0.06939579322847489,0.06227837368717715,0.033482799422450964,0.04814037034669614,0.07489490435101498,0.06550469856838026,0.0,0.0,0.0,0.0,0.0,0.0,0.0,0.0,0.0,0.0,0.0,0.0,0.0,0.0,0.0,0.0,0.0,0.0,0.0,0.0,0.0,0.0,0.0,0.0,0.0,0.0,0.0,0.0,0.0,0.0,0.0,0.0,0.0,0.0,0.0,0.0,0.0,0.0,0.0,0.0,0.0,0.0,0.0,0.0,0.0,0.0,0.0,0.0,0.0,0.0,0.0,0.0,0.0,0.0,0.0,0.0,0.0,0.0,0.0,0.0,0.0,0.0,0.0,0.0,0.0,0.0,0.0,0.0,0.0,0.0,0.0,0.0,0.0,0.0,0.0,0.0,0.0,0.0,0.0,0.0,0.0,0.0,0.0,0.0,0.0,0.0,0.0,0.0,0.0,0.0,0.0,0.0,0.0,0.0,0.0,0.0,0.0,0.0,0.0,0.0,0.0,0.0,0.0,0.0,0.0,0.0,0.0,0.0,0.0,0.0,0.0,0.0,0.0,0.0,0.0,0.0,0.0,0.0,0.0,0.0,0.0,0.0,0.0,0.0,0.0,0.0,0.0,0.0,0.0,0.0,0.0,0.0,0.0,0.0,0.0,0.0,0.0,0.0,0.0,0.0,0.0,0.0,0.0,0.0,0.0,0.0,0.0,0.0,0
0.19059818446265908,0.31988680861749297,0.5134476526575046,0.7069184036183422,0.7672853305973119,0.7267174650967667,0.5701839173361027,0.3319915253880718,0.09793091443089856,-0.06980699274297159,-0.0961601034894008,-0.0691007139126286,-0.07230143173830789,-0.03925893921784675,0.04719558859268006,0.09482560043317248,0.07146205342815642,0.035037047118009666,0.04133704714846525,0.06891838694243138,0.042705278628143835,0.016338184804551768,0.02629514186919161,0.05971274308799355,0.05009553564174181,0.006032448600716461,0.009051564426353577,0.03770765936772722,0.036231039066049735,0.008919564986805876,0.015848108634099158,0.03986153987661914,0.04449716008311495,-0.0002720989322314665,0.002097790637232456,0.04517760639743894,0.03887232867464553,0.0046410942947064425,-0.0017327289281279645,0.03906450168050415,0.019775274925941902,-0.014543478218183463,-0.029561308576502673,0.01763472099429414,0.03909848431480577,0.009096787978972664,-0.014437970120964897,0.01784545608578339,0.05876223798018317,0.01822192602836995,0.014225605569904291,0.03605767577206817,0.0751477412584932,0.04140471615808793,0.0356667548706499,0.057943805306654425,0.10610036045842494,0.09004428363978194,0.05483533247852429,0.08629306948420473,0.12650325183642275,0.11540592866505305,0.07446102679005506,0.10235785303933397,0.14547070444486024,0.1480280896649618,0.11861608753576837,0.1344688874530406,0.16770153309760505,0.16468507679332156,0.1404385830564634,0.1357236119904497,0.154831319571367,0.15056554513218276,0.0993273962774186,0.09979799309338644,0.13052247030427847,0.14430214463179147,0.1089546162759132,0.08454365705413944,0.12040611108899732,0.12643542180019282,0.08975438761446547,0.05326236597526017,0.07916575481348093,0.08593715459491118,0.04782596115037455,-0.000851115012509011,0.036435418431021334,0.07172134840518987,0.06209308792905574,0.01612332943999529,0.0367766246225541,0.07470280705382984,0.041936547909002565,0.01998899501503737,0.02172223581608063,0.06214353439568115,0.059722599929222235,0.02732100058702403,0.0378677502889763,0.06131845029984698,0.04617574670187784,0.009590829685138302,0.00947491366413612,0.03723559098352894,0.032793768588346615,-0.008152641560521529,-0.0019495515115528625,0.04495628464386963,0.036016681477902684,-0.0030360059092044713,0.0050170355244494045,0.032276354606830635,0.04440664532759549,-0.01652560213352506,-0.05399420555484855,-0.03582971031381413,0.001493616961587794,0.04295767930962132,0.16364598884431975,0.4086079707100351,0.63196261581158,0.7865095948952774,0.8250454188943708,0.7067984959472621,0.4639325128340922,0.18867536670509166,-0.013875705445808188,-0.0965468777797018,-0.11728155890016205,-0.09754428352295592,-0.065224274368887,0.02044736324825467,0.08225550817998342,0.05800187313163953,0.018494907762425555,0.04312387805968845,0.06539914979856801,0.0,0.0,0.0,0.0,0.0,0.0,0.0,0.0,0.0,0.0,0.0,0.0,0.0,0.0,0.0,0.0,0.0,0.0,0.0,0.0,0.0,0.0,0.0,0.0,0.0,0.0,0.0,0.0,0.0,0.0,0.0,0.0,0.0,0.0,0.0,0.0,0.0,0.0,0.0,0.0,0.0,0.0,0.0,0.0,0.0,0.0,0.0,0.0,0.0,0.0,0.0,0.0,0.0,0.0,0.0,0.0,0.0,0.0,0.0,0.0,0.0,0.0,0.0,0.0,0.0,0.0,0.0,0.0,0.0,0.0,0.0,0.0,0.0,0.0,0.0,0.0,0.0,0.0,0.0,0.0,0.0,0.0,0.0,0.0,0.0,0.0,0.0,0.0,0.0,0.0,0.0,0.0,0.0,0.0,0.0,0.0,0.0,0.0,0.0,0.0,0.0,0.0,0.0,0.0,0.0,0.0,0.0,0.0,0.0,0.0,0.0,0.0,0.0,0.0,0.0,0.0,0.0,0.0,0.0,0.0,0.0,0.0,0.0,0.0,0.0,0.0,0.0,0.0,0.0,0.0,0.0,0.0,0.0,0.0,0.0,0.0,0.0,0.0,0.0,0.0,0.0,0.0,0.0,0.0,0.0,0.0,0.0,0.0,0.0,0.0,0.0,0.0,0.0,0.0,0.0,0.0,0.0,0.0,0.0,0.0,0.0,0
0.2179666218194705,0.40379161168647104,0.6154006604392521,0.7562541395257264,0.7877318111686958,0.7677471026172507,0.6619626093331946,0.418874875367798,0.10282207051566833,-0.08885258157156052,-0.08752296641525571,-0.021919974304262613,0.002831861582535016,0.05323221721401036,0.10567913785587467,0.12584401969086575,0.07081662416852218,0.017821572243422484,0.022630364943249628,0.04233169130646161,0.01256136137591681,-0.025926473829486586,-0.004489130500750228,0.016801943123489604,-0.009252615221740793,-0.048331741604786906,-0.033934344329885936,0.021070026192210826,0.009422873600854715,-0.02381976632393344,-0.02073024541023589,0.01869887961347409,0.01724706435444819,-0.020785818868116014,-0.016015303517131232,0.040150924312825735,0.053333423930893485,0.025690000188575517,0.010864829295314852,0.0539208526730437,0.0690590857725219,0.02840274221843763,0.017774349312056337,0.05649271822523071,0.08450133763610028,0.06963200935612057,0.04836496339013814,0.09364978351736973,0.13470228053892436,0.13506222235703313,0.10331951163445126,0.13601971568229854,0.1816838008920909,0.15450762820672614,0.14030827690029551,0.17770596885244472,0.2302355439482235,0.22496125160842015,0.1854836363730896,0.21692262818237265,0.2570656559767852,0.2243915748243051,0.1596587197741462,0.148675112189575,0.1656935927526307,0.13562489732910948,0.07562582644507522,0.0672108000334292,0.09750169018533172,0.06351841639408898,0.00386866521346944,-0.010661045629178295,0.03064803788759898,0.0355424065344706,-0.011001645120494612,-0.0167441710023868,0.0204542035761365,0.025504486961073887,-0.014469393825647216,-0.020096746156302824,0.027926752826675276,0.035207676199734014,-0.002545926050589884,-0.012396222938551695,0.027108220359508783,0.043027846595822095,0.022490707344086296,0.001966000479448289,0.03079447092978308,0.04890774798971216,0.013399519656522077,-0.01137294139236694,0.017494804679092358,0.05924249134565791,0.02805895633613741,0.016190697670212032,0.05367105212583456,0.0847222121523704,0.047130272090791854,0.018123880655546286,0.03631647239092597,0.08025364685925056,0.06626780109353109,0.03726224933681508,0.055447463752541934,0.1015132199865602,0.08320961257856559,0.045583929902312165,0.03368304428349099,0.05608389819372658,-0.0009174996200939523,-0.05580525165222446,-0.018482266896945012,0.14537665595655713,0.2963310706998745,0.4472544417321205,0.6238904113033198,0.800493747366229,0.8483428223714296,0.6387120063007659,0.32819321314417443,0.10126375892846756,-0.03780391437331625,-0.11048119011946267,-0.09318505202446516,-0.003082243192927497,0.059003559059767376,0.03944505508764426,0.0090406921208262,0.038588720164160616,0.0530085362813662,0.02441542944886517,-0.00857200228390001,0.024843865821028,0.05387321827291018,0.029178881205453137,-0.01705607840738393,0.0031284517077665034,0.04254177933593968,0.0,0.0,0.0,0.0,0.0,0.0,0.0,0.0,0.0,0.0,0.0,0.0,0.0,0.0,0.0,0.0,0.0,0.0,0.0,0.0,0.0,0.0,0.0,0.0,0.0,0.0,0.0,0.0,0.0,0.0,0.0,0.0,0.0,0.0,0.0,0.0,0.0,0.0,0.0,0.0,0.0,0.0,0.0,0.0,0.0,0.0,0.0,0.0,0.0,0.0,0.0,0.0,0.0,0.0,0.0,0.0,0.0,0.0,0.0,0.0,0.0,0.0,0.0,0.0,0.0,0.0,0.0,0.0,0.0,0.0,0.0,0.0,0.0,0.0,0.0,0.0,0.0,0.0,0.0,0.0,0.0,0.0,0.0,0.0,0.0,0.0,0.0,0.0,0.0,0.0,0.0,0.0,0.0,0.0,0.0,0.0,0.0,0.0,0.0,0.0,0.0,0.0,0.0,0.0,0.0,0.0,0.0,0.0,0.0,0.0,0.0,0.0,0.0,0.0,0.0,0.0,0.0,0.0,0.0,0.0,0.0,0.0,0.0,0.0,0.0,0.0,0.0,0.0,0.0,0.0,0.0,0.0,0.0,0.0,0.0,0.0,0.0,0.0,0.0,0.0,0.0,0.0,0.0,0.0,0.0,0.0,0.0,0.0,0.0,0.0,0.0,0.0,0.0,0.0,0.0,0.0,0.0,0.0,0.0,0.0,0.0,0
0.05946502995582216,0.1448709016077619,0.3203222753632156,0.5236014688125414,0.6881986447659664,0.7669088372857698,0.7404122350379149,0.5486249370410063,0.23228733971821436,-0.028419925647439608,-0.11123985698782493,-0.08055181518271455,-0.0650828908567917,-0.051964267643383834,-0.019739839963677255,0.04661560461343557,0.035557835325587865,0.007164515082587603,0.010786746083178788,0.0507247864316029,0.051903606676404486,0.014332604195407309,0.004524490964103373,0.05252220536054671,0.0746690041683302,0.04308507275383426,0.03071822260415968,0.06975579467787148,0.06366838127977324,0.031771161492078724,0.012686485314492513,0.062198756565931365,0.0666154654670651,0.023798173632409256,0.01098334322111838,0.03890374328577728,0.05393379043093026,0.011028813079915168,-0.023301747625253968,0.017451494313371608,0.06035716057522935,0.023902679244775137,0.00892368629274709,0.036880464554520695,0.08418244397511282,0.052154189644005984,0.02661363199492555,0.039746526081211764,0.07225185586298531,0.040470109036412384,0.00662021977604796,0.024339813568391856,0.05931014283936852,0.040742636381417466,0.002966979070760175,0.014637077420475788,0.0585957597336492,0.0554727601810313,0.033161349173448006,0.023845072926679284,0.08974118403104367,0.08712026375125781,0.06747261382446801,0.07370699404899198,0.15302238002883312,0.1402349969796547,0.11472183562425164,0.10866310065412976,0.15638369973599406,0.14418391289900068,0.0935156630695878,0.09662427953908584,0.13634551821725852,0.1375921841142802,0.08963469804405838,0.08042551574094364,0.12712251748133974,0.15249101170146287,0.11147481999060377,0.08129776679251065,0.09842286407365974,0.10492054759908456,0.0621682502788953,0.021644496964318083,0.045553884587214925,0.08454651946933449,0.05923840798171779,0.02539755857858924,0.053808619612775714,0.08439424080228518,0.06351263257515989,0.008315710672694699,0.032492519570007795,0.05451189298531384,0.03574803386177915,-0.004502659638703163,-0.0018931598224825035,0.0435656912254334,0.013873019129458777,-0.02233320547360816,-0.02859423007772692,0.014388606802642982,0.014362300717271018,-0.017952948676988625,-0.039657864769123606,0.0007296409195125126,0.015252446380183669,-0.017542999928349262,-0.03973509218759082,0.002308888837192712,0.012056076308069768,0.006673250814670446,-0.02027090976190876,0.008458025883895678,0.02850816022516177,0.00985197879487732,-0.0174704310522015,0.004469564375694267,0.04350064191743001,0.03741758388276447,0.014116571622100404,0.0422538545010932,0.10681982451181864,0.08768610974258366,0.06208924994530024,0.0729409210912919,0.12239223360246035,0.09674899763971828,0.04964798498425308,0.0518876963472837,0.09703642716251487,0.08856059688131587,0.039335245576170935,0.03731965096979161,0.07393544781167495,0.09340799939675898,0.05926978860213961,0.057333596574431815,0.09403667448934096,0.0,0.0,0.0,0.0,0.0,0.0,0.0,0.0,0.0,0.0,0.0,0.0,0.0,0.0,0.0,0.0,0.0,0.0,0.0,0.0,0.0,0.0,0.0,0.0,0.0,0.0,0.0,0.0,0.0,0.0,0.0,0.0,0.0,0.0,0.0,0.0,0.0,0.0,0.0,0.0,0.0,0.0,0.0,0.0,0.0,0.0,0.0,0.0,0.0,0.0,0.0,0.0,0.0,0.0,0.0,0.0,0.0,0.0,0.0,0.0,0.0,0.0,0.0,0.0,0.0,0.0,0.0,0.0,0.0,0.0,0.0,0.0,0.0,0.0,0.0,0.0,0.0,0.0,0.0,0.0,0.0,0.0,0.0,0.0,0.0,0.0,0.0,0.0,0.0,0.0,0.0,0.0,0.0,0.0,0.0,0.0,0.0,0.0,0.0,0.0,0.0,0.0,0.0,0.0,0.0,0.0,0.0,0.0,0.0,0.0,0.0,0.0,0.0,0.0,0.0,0.0,0.0,0.0,0.0,0.0,0.0,0.0,0.0,0.0,0.0,0.0,0.0,0.0,0.0,0.0,0.0,0.0,0.0,0.0,0.0,0.0,0.0,0.0,0.0,0.0,0.0,0.0,0.0,0.0,0.0,0.0,0.0,0.0,0.0,0.0,0.0,0.0,0.0,0.0,0.0,0.0,0.0,0.0,0.0,0.0,0.0,0
0.11228459491553583,0.24007785868263354,0.43220156977949775,0.667209312548554,0.852858383039922,0.9119196773478012,0.8400992311433103,0.6095004780710286,0.312358140004518,0.03661333814619554,-0.08474355982029518,-0.07961811310631177,-0.03812085123197576,-0.013885038062246237,0.016689641056373702,0.07291426668724205,0.07970766623290261,0.03707298297777732,0.009371259199281005,0.039510585966138864,0.06957100802503881,0.04806820232287139,0.015764391079718113,0.024147939096536248,0.05176772848349353,0.02568588258600272,-0.006900245364027298,0.011932952357786544,0.045717569286528266,0.042968703201877616,0.007978414489482293,0.011542122807175459,0.06653274014252618,0.06783290863172818,0.041186809394300486,0.02091939072272869,0.04779122472858386,0.07246116238262935,0.03486143277761754,0.018657433853779392,0.0388655385441028,0.04614372896308213,-0.013140760271236012,-0.03816101118427182,-0.013899920804318613,0.0017238352675586902,-0.01917322589594377,-0.02295408563496206,0.005405117648033325,0.044460724254290235,0.014846579681276338,-0.004053225633228911,0.004932303568708839,0.04395761151081666,0.027220777795827416,0.01908902314483935,0.04531445365626725,0.10161520780212553,0.11291507019770357,0.08565782758859572,0.1142430421045216,0.162207975939037,0.14589323521418254,0.09748355056850297,0.10279483778380348,0.14037869600526276,0.14373540213194372,0.1150133818695082,0.10570170368728936,0.154417201481446,0.14960681973319534,0.09556166639413066,0.06522095208182584,0.08003677158046328,0.07350455360998864,0.026315411562793926,0.007116431267979603,0.026632099199396443,0.052681334561189466,0.03163015755323286,0.012817601018846743,0.04772781623494092,0.05269246557463921,0.010546546887685884,-0.005773588894648772,0.01231005889484687,0.04334216723304494,0.0015090540151987198,-0.03167160599283172,0.003865088585768889,0.09739292064592836,0.20600650499146947,0.3575940967460685,0.5650259849102343,0.7510690539701382,0.8384873632820272,0.7929467485444274,0.5908352359409362,0.2964932268808849,0.015018423700596547,-0.11202325179532308,-0.08679948404767758,-0.008004761585336334,0.03211050276694822,0.0249624434274959,0.03061588496219153,0.06193944226839855,0.022392471360804182,-0.012943854692917924,0.003122929615641982,0.02339434974848055,0.011398298474833698,-0.028577193304639426,-0.006433088305673225,0.0241988344360712,0.02255906653458665,-0.01564231945588923,-0.006739023816975046,0.021382356802430374,0.032254759623180966,-0.0020078787081435536,-0.010609059937397816,0.008599054237961645,0.012714501709245457,-0.0154214036149772,-0.03289966703607659,0.013916554099807963,0.032788420177237265,0.004416425866835755,0.012474177947245587,0.052678921155503135,0.08213285933896056,0.038630443690966805,0.023006735153262257,0.06959302739966691,0.08400390400767667,0.031921344952219585,0.018469888173239524,0.047945912538214286,0.0,0.0,0.0,0.0,0.0,0.0,0.0,0.0,0.0,0.0,0.0,0.0,0.0,0.0,0.0,0.0,0.0,0.0,0.0,0.0,0.0,0.0,0.0,0.0,0.0,0.0,0.0,0.0,0.0,0.0,0.0,0.0,0.0,0.0,0.0,0.0,0.0,0.0,0.0,0.0,0.0,0.0,0.0,0.0,0.0,0.0,0.0,0.0,0.0,0.0,0.0,0.0,0.0,0.0,0.0,0.0,0.0,0.0,0.0,0.0,0.0,0.0,0.0,0.0,0.0,0.0,0.0,0.0,0.0,0.0,0.0,0.0,0.0,0.0,0.0,0.0,0.0,0.0,0.0,0.0,0.0,0.0,0.0,0.0,0.0,0.0,0.0,0.0,0.0,0.0,0.0,0.0,0.0,0.0,0.0,0.0,0.0,0.0,0.0,0.0,0.0,0.0,0.0,0.0,0.0,0.0,0.0,0.0,0.0,0.0,0.0,0.0,0.0,0.0,0.0,0.0,0.0,0.0,0.0,0.0,0.0,0.0,0.0,0.0,0.0,0.0,0.0,0.0,0.0,0.0,0.0,0.0,0.0,0.0,0.0,0.0,0.0,0.0,0.0,0.0,0.0,0.0,0.0,0.0,0.0,0.0,0.0,0.0,0.0,0.0,0.0,0.0,0.0,0.0,0.0,0.0,0.0,0.0,0.0,0.0,0.0,0
-0.004681700940848733,0.07372551038501172,0.2292466685874185,0.33644567788937685,0.4893939370121578,0.6929103964368896,0.8697973422588096,0.8801368415264279,0.6804939269088432,0.43246477393146,0.21080357250347748,0.005835949928837286,-0.13180894887681865,-0.15873855677314594,-0.0749670763429419,-0.013163687591148452,-0.009503134043154466,0.030098966045828287,0.08635530255474398,0.09414694042923874,0.029361621546548738,0.024678503286070904,0.06563344144296132,0.08710632825102714,0.05292292215905808,0.023395860691502925,0.04677660243228713,0.06759262578318455,0.04001990672368677,0.007484849281909438,0.0423598517686244,0.0626375716986766,0.024905380630572217,-0.020174531322923184,0.01665482726697271,0.0365021009252823,0.012841336858366852,-0.02778557720390194,-0.005768794704321648,0.03548284441983661,0.01879048815424336,-0.022064481131257297,-0.014705849176342113,0.02881829412363185,0.02650795283868641,-0.009561881310509229,-0.0021874117831226173,0.04140966605901583,0.03199364724198968,0.01299867732859023,0.01338564472227743,0.05970318996794196,0.0675394748838555,0.03690876305372781,0.023305186263092,0.05568868023665835,0.08341702962218281,0.0630842892195675,0.0429470456205019,0.0905590329166894,0.11909406709292455,0.09720571723803537,0.08038554011708438,0.11688805787100062,0.1488313446449819,0.14727908452612684,0.14118660620919096,0.18363033064533227,0.26255703549274984,0.25012780272922897,0.257308505200446,0.2816911704494855,0.33292745380281874,0.309707190332669,0.2650982538456715,0.2473426038821443,0.2636737657830338,0.23448544502969665,0.18148170907232566,0.1625481959116263,0.17526506451019574,0.1520827237297238,0.102640557792418,0.07999648208015234,0.1179104358505517,0.11505971792861,0.05454743786852959,0.04732182178059622,0.07889731404841567,0.07207136795173949,0.01718216250885926,0.008291379584074608,0.0429733005235722,0.06332195931744296,0.01384335795445777,-0.006577114814728488,0.03581692318382152,0.06140988428637454,0.03400529331786671,0.00906931693074799,0.044480134616184386,0.07750673725963166,0.06471535626733257,0.0181520414110412,0.051174199223395736,0.08657669912740891,0.06645161759655714,0.034202278558486794,0.045292588008668484,0.09970607503198206,0.07922908185642442,0.04173680133794021,0.07163804170407216,0.11102261345258838,0.1261017975428731,0.1216812456641636,0.17734364781736714,0.24723757660767215,0.29998381511312266,0.2945531787631496,0.3418825035746065,0.4130005466178671,0.4572247097641451,0.3611535753871755,0.1850606060302853,0.042285481502939364,-0.0672056383520055,-0.14103462225391786,-0.16716822292579234,-0.11908669761041507,-0.08121483436778885,-0.07766153639208115,-0.043277225456441235,0.04850012866901876,0.1277493529433047,0.12696121468996152,0.07028879136270504,0.08560838881202536,0.10540914936467206,0.086301615957276,0.07897093622283889,0.1027434490389102,0.1648841841024457,0.1761703427858553,0.13421688518719885,0.15001048521640015,0.18980617378800652,0.17885112305603626,0.11234485923393127,0.11091952326900882,0.15047572247333915,0.1514333036621784,0.0,0.0,0.0,0.0,0.0,0.0,0.0,0.0,0.0,0.0,0.0,0.0,0.0,0.0,0.0,0.0,0.0,0.0,0.0,0.0,0.0,0.0,0.0,0.0,0.0,0.0,0.0,0.0,0.0,0.0,0.0,0.0,0.0,0.0,0.0,0.0,0.0,0.0,0.0,0.0,0.0,0.0,0.0,0.0,0.0,0.0,0.0,0.0,0.0,0.0,0.0,0.0,0.0,0.0,0.0,0.0,0.0,0.0,0.0,0.0,0.0,0.0,0.0,0.0,0.0,0.0,0.0,0.0,0.0,0.0,0.0,0.0,0.0,0.0,0.0,0.0,0.0,0.0,0.0,0.0,0.0,0.0,0.0,0.0,0.0,0.0,0.0,0.0,0.0,0.0,0.0,0.0,0.0,0.0,0.0,0.0,0.0,0.0,0.0,0.0,0.0,0.0,0.0,0.0,0.0,0.0,0.0,0.0,0.0,0.0,0.0,0.0,0.0,0.0,0.0,0.0,0.0,0.0,0.0,0.0,0.0,0.0,0.0,0.0,0.0,0.0,0.0,0.0,0.0,0.0,0.0,0.0,0.0,0.0,0.0,0.0,0.0,0.0,0.0,0.0,0.0,0.0,0.0,0.0,0.0,0.0,0.0,0.0,0
0.06010866256547572,0.17647376062384088,0.29766041054291115,0.4284895130998064,0.636497235264339,0.8276013495915272,0.8980677146894834,0.7972260741935865,0.5564158988168477,0.2479797818500095,-0.009910991057212043,-0.135269117131748,-0.11847183801185407,-0.05119522510732374,-0.034752826464069346,-0.03295890326621466,0.007260864876908269,0.06420626063111998,0.051048092997988494,0.028100004723911932,0.04361446898891056,0.0927757954389659,0.10322695542260404,0.0629150280389365,0.051449525129233,0.07848634086933019,0.07166689477123378,0.03582206560108549,0.024026031094203315,0.0507578640326567,0.05571884824770185,0.02444148821974234,0.01482349579041594,0.03651880329026876,0.03405233157244058,-0.007044072395843036,-0.02163669735799168,0.02163827701690768,0.048010680477986664,0.014068611830364132,-0.0005787440499352065,0.04267061866195125,0.08110708043390555,0.039959894054803886,0.008486341610530823,0.051821676735675636,0.05659957860961357,0.030062610562461668,-0.00607384988246108,0.0277978132494916,0.049669540981476745,0.03783770697714781,-0.002867551930539043,0.021634477914590056,0.0631059935403745,0.04677507228525631,0.0015933391605578026,0.01922893979698496,0.08280178292533501,0.07894436652440548,0.03178319787948238,0.045046424105041886,0.09220415867971522,0.10089481541154532,0.04941218725661433,0.07525363179897301,0.10364416742567496,0.12011300788517736,0.08124265432291003,0.07869724776948403,0.12453848849121575,0.1343403686608821,0.09604174371429272,0.08441938053198432,0.10912062842584716,0.12190002584648825,0.047977554124365,0.015195945765136647,0.04767383018384374,0.06821808047813248,0.03581807435423582,0.003537980170102067,0.031678335788855434,0.06475488385495863,0.047283208621195325,0.003380605116952826,0.03194180077623293,0.06783307129760112,0.03627180120988869,-0.004854906538391561,0.05058352694591733,0.08197295244493763,0.06759846529563973,0.04122495686942969,0.06315099206239462,0.10683634649926677,0.06855062836397761,0.025476626547414543,0.025850592805132955,0.05760407987999239,0.03147865957604819,-0.016350875333553377,-0.011114963626043773,0.11230877779377203,0.24536662164949324,0.4097621538406852,0.5958393561864327,0.8156498074816934,0.9389233182788762,0.8595074495331774,0.615976039494152,0.2975544690429404,0.003113770641215235,-0.139530316639506,-0.1521174069378747,-0.06843477333837412,0.005379276272696547,-0.0006243217097571198,0.002809411314834883,0.03015784443694712,0.0645399554526248,0.023945634008763112,-0.007194935249926818,0.0024802895590807124,0.04091474226387536,0.0019767125489808463,-0.027491085260189733,0.005583493165658768,0.03849042628016066,0.03022931040612713,-0.019193341877659163,-0.006047305936120118,0.02866849432235053,0.029482612292327518,-0.022893798996348545,0.006629969444782232,0.0432868922442058,0.0436682881279337,-0.001864180499928872,0.01766007368240816,0.04435901453110673,0.04688452911896796,0.008361379914815264,0.022874506763221843,0.051838750116823325,0.0566688360557214,0.006015780061814582,0.025322200509684357,0.07117788513223622,0.08328721499509541,0.032712592521834144,0.03765915847608268,0.0,0.0,0.0,0.0,0.0,0.0,0.0,0.0,0.0,0.0,0.0,0.0,0.0,0.0,0.0,0.0,0.0,0.0,0.0,0.0,0.0,0.0,0.0,0.0,0.0,0.0,0.0,0.0,0.0,0.0,0.0,0.0,0.0,0.0,0.0,0.0,0.0,0.0,0.0,0.0,0.0,0.0,0.0,0.0,0.0,0.0,0.0,0.0,0.0,0.0,0.0,0.0,0.0,0.0,0.0,0.0,0.0,0.0,0.0,0.0,0.0,0.0,0.0,0.0,0.0,0.0,0.0,0.0,0.0,0.0,0.0,0.0,0.0,0.0,0.0,0.0,0.0,0.0,0.0,0.0,0.0,0.0,0.0,0.0,0.0,0.0,0.0,0.0,0.0,0.0,0.0,0.0,0.0,0.0,0.0,0.0,0.0,0.0,0.0,0.0,0.0,0.0,0.0,0.0,0.0,0.0,0.0,0.0,0.0,0.0,0.0,0.0,0.0,0.0,0.0,0.0,0.0,0.0,0.0,0.0,0.0,0.0,0.0,0.0,0.0,0.0,0.0,0.0,0.0,0.0,0.0,0.0,0.0,0.0,0.0,0.0,0.0,0.0,0.0,0.0,0.0,0.0,0.0,0.0,0.0,0.0,0.0,0.0,0
-0.01980684760879197,0.06269878464046585,0.1987595114663779,0.3240158284298818,0.4556277475007019,0.6236253200756849,0.7872421921284837,0.781282849612257,0.5821360968381162,0.3292278521156118,0.16198112307381082,-0.016163153079002863,-0.13657855204309527,-0.13063711401918968,-0.0476881163863264,-0.0057172766977928,0.006010812926828872,0.023975422521772368,0.06534830280780939,0.05719946808474525,0.027426605376612342,0.0232346049694999,0.05106796491329833,0.05730332272230392,0.00976982641476292,-0.010004003535685972,0.030168943054781936,0.040195961440811216,-0.00136695326758955,-0.0001190713838356164,0.03751246717347705,0.05361389577247462,0.016014579231477078,-0.002337833066178386,0.020017590164889968,0.04018370477288087,0.015263266518042157,-0.013975382967180887,0.02756044698336392,0.04334264794701288,0.009782377567701287,-0.008753083264398866,0.03279600816959924,0.046483077900089216,0.004429132339993071,-0.0011095657880182412,0.0363121607179654,0.06307185010603485,0.025546859063477145,0.005266653734109739,0.06230780668367988,0.09370584373197824,0.06729010644421865,0.04957219073775998,0.09204641998878643,0.12178082781863525,0.08729575346031844,0.08513501156475466,0.111013980838354,0.1542117845593363,0.16110145924846764,0.12525135522389566,0.1410570167622132,0.18921370291123066,0.15816907430544327,0.12300890835167196,0.13951070235196875,0.18407610494187746,0.17518359942523815,0.13857457794424008,0.14933091816375713,0.16454359273501235,0.15417448716090282,0.10320160031700408,0.12102820210034945,0.14328964306539527,0.12278288130060712,0.07666245597755944,0.06069727087221465,0.0856050381763283,0.08701848614209003,0.03703961693091553,0.02361493316817333,0.0596060718279357,0.05061072259073535,0.007344829741241967,-0.014425107217560754,0.017469332065010012,0.02364355593719407,-0.00449298731497241,-0.028334882766928693,0.016467030352210584,0.02693303104575069,-0.02268672698056584,-0.033716182792258305,-0.006159843097146568,0.02780183966865269,-0.002625980264677591,0.00552911565842264,0.030813753567744993,0.06035563828501276,0.00405236352559215,-0.011525843751217265,0.011474628089417977,0.043019890040580634,0.014461017203418431,0.0051729539016745155,0.021591168285171783,0.04226250704205646,0.019990389892103395,-0.006610911382348898,0.022525540892863398,0.040895993950214635,0.0249021140820241,-0.00400382862743182,0.009954736745592429,0.045324804450972964,0.018440298017955402,-0.019212660832456215,0.003159446678649358,0.042652305560956304,0.03276354259876312,-0.0007625355569281263,0.017159575367853366,0.04577051653157283,0.037875013541686126,-0.002235798821874197,-0.00805795420729667,0.03328081152868158,0.038116081737986834,-0.0021320461783007217,0.006929610650609049,0.050285331836642314,0.02496302238419536,-0.017549750053816503,-0.00645805338019276,0.03893309518466839,0.0263798880666058,-0.014080911664501681,0.0,0.0,0.0,0.0,0.0,0.0,0.0,0.0,0.0,0.0,0.0,0.0,0.0,0.0,0.0,0.0,0.0,0.0,0.0,0.0,0.0,0.0,0.0,0.0,0.0,0.0,0.0,0.0,0.0,0.0,0.0,0.0,0.0,0.0,0.0,0.0,0.0,0.0,0.0,0.0,0.0,0.0,0.0,0.0,0.0,0.0,0.0,0.0,0.0,0.0,0.0,0.0,0.0,0.0,0.0,0.0,0.0,0.0,0.0,0.0,0.0,0.0,0.0,0.0,0.0,0.0,0.0,0.0,0.0,0.0,0.0,0.0,0.0,0.0,0.0,0.0,0.0,0.0,0.0,0.0,0.0,0.0,0.0,0.0,0.0,0.0,0.0,0.0,0.0,0.0,0.0,0.0,0.0,0.0,0.0,0.0,0.0,0.0,0.0,0.0,0.0,0.0,0.0,0.0,0.0,0.0,0.0,0.0,0.0,0.0,0.0,0.0,0.0,0.0,0.0,0.0,0.0,0.0,0.0,0.0,0.0,0.0,0.0,0.0,0.0,0.0,0.0,0.0,0.0,0.0,0.0,0.0,0.0,0.0,0.0,0.0,0.0,0.0,0.0,0.0,0.0,0.0,0.0,0.0,0.0,0.0,0.0,0.0,0.0,0.0,0.0,0.0,0.0,0.0,0.0,0.0,0.0,0.0,0.0,0.0,0.0,0
