0.8407597683293451,0.20885538755918887,-0.4008102358979965,-0.6739870947336469,-0.6395878295887183,-0.5509974761403014,-0.4306623882243757,-0.32667011578273075,-0.29672512032985904,-0.2959035607937953,-0.2921106010795985,-0.2757018439970246,-0.2466547771321579,-0.23060457125765568,-0.24035850628858071,-0.23420318898063738,-0.22494737545241786,-0.2382291394091949,-0.2355444798629865,-0.24574012892869987,-0.23672783431575742,-0.23414860946164712,-0.23798705348781,-0.21615707754918015,-0.18788761074755117,-0.19485841982183008,-0.20498595229661754,-0.21825902964679103,-0.22183879083375818,-0.225337201946279,-0.23836703538861792,-0.24167756292886192,-0.25450449928888097,-0.26721997685256244,-0.29264677390379845,-0.30832967212984536,-0.3078496218600076,-0.3040308069244379,-0.3225263605078055,-0.3440898053241179,-0.33023210732528835,-0.32905729590253957,-0.3469768022432233,-0.38078089793779435,-0.4016028890158207,-0.4030260960248811,-0.3914606550109749,-0.3957648121337291,-0.3838602972777105,-0.3846033595425854,-0.3787430268801114,-0.36627104424234874,-0.34717917837568163,-0.3599449994602329,-0.3404176725443549,-0.32066077665961445,-0.2942523849791727,-0.2964637454345595,-0.28238796837254315,-0.2680543195231672,-0.2502497085463413,-0.21614019051996022,-0.2009996338822114,-0.19840987932699475,-0.18912510496633192,-0.18276470183193247,-0.1504633115599382,-0.14032801603144285,-0.13632419485460492,-0.13203987132683676,-0.11465001608745096,-0.10019514454548815,-0.056609965269990105,-0.028802039922737097,-0.01357341352576464,-0.020556475693534096,-0.014485457856813043,-0.03065355618586784,-0.03059151464742301,-0.0335604183691331,-0.036373112117494874,-0.04546561818624723,-0.03199711650681734,-0.06013563011746166,-0.04972949028218209,-0.03608580093479277,-0.009613327045030045,-0.01524400430904412,-0.01452591076022207,0.011748176638861341,0.028262202399766186,0.06704814552283882,0.19862164746745634,0.37483179783101356,0.5443176343199183,0.626850115512504,0.6319955745416439,0.4089581311155866,-0.11288458871245627,-0.6225088696676643,-0.8858637861207345,-0.7169828178788311,-0.529587474474711,-0.3749603568711687,-0.27229871716771464,-0.21193555871190722,-0.15213300613425967,-0.15057548136899537,-0.12383425716992696,-0.10393892676142334,-0.09726323351969167,-0.10376803008918008,-0.11700131176104417,-0.10164818103612157,-0.09936650947715248,-0.1069155700893453,-0.12426319782811136,-0.12572146239413565,-0.12408944696107402,-0.10651037541839446,-0.09220019945070657,-0.09396196715361753,-0.11497875131132079,-0.13919221076788146,-0.1505453449830664,-0.17788237879113228,-0.18911297761652535,-0.20987641190050826,-0.21770577292953763,-0.2189993075770945,-0.25222752243017216,-0.253233159843347,-0.263695344561671,0.0,0.0,0.0,0.0,0.0,0.0,0.0,0.0,0.0,0.0,0.0,0.0,0.0,0.0,0.0,0.0,0.0,0.0,0.0,0.0,0.0,0.0,0.0,0.0,0.0,0.0,0.0,0.0,0.0,0.0,0.0,0.0,0.0,0.0,0.0,0.0,0.0,0.0,0.0,0.0,0.0,0.0,0.0,0.0,0.0,0.0,0.0,0.0,0.0,0.0,0.0,0.0,0.0,0.0,0.0,0.0,0.0,0.0,0.0,0.0,0.0,0.0,0.0,0.0,0.0,0.0,0.0,0.0,0.0,0.0,0.0,0.0,0.0,0.0,0.0,0.0,0.0,0.0,0.0,0.0,0.0,0.0,0.0,0.0,0.0,0.0,0.0,0.0,0.0,0.0,0.0,0.0,0.0,0.0,0.0,0.0,0.0,0.0,0.0,0.0,0.0,0.0,0.0,0.0,0.0,0.0,0.0,0.0,0.0,0.0,0.0,0.0,0.0,0.0,0.0,0.0,0.0,0.0,0.0,0.0,0.0,0.0,0.0,0.0,0.0,0.0,0.0,0.0,0.0,0.0,0.0,0.0,0.0,0.0,0.0,0.0,0.0,0.0,0.0,0.0,0.0,0.0,0.0,0.0,0.0,0.0,0.0,0.0,0.0,0.0,0.0,0.0,0.0,0.0,0.0,0.0,0.0,0.0,0.0,0.0,0.0,0.0,0.0,0.0,0.0,0.0,0.0,0.0
1.0082209702007523,0.7851944036143623,0.19885417331711983,-0.6602368382385687,-0.7588154944516046,-0.7072769230652675,-0.632540387041875,-0.49228852088603253,-0.26230644109493656,-0.057354431685263794,0.0501075393610378,0.07826253997654171,0.07550645589868747,0.10231894565483644,0.10436112466311005,0.11189337780928467,0.08567966319640405,0.0710831605230062,0.06814258843212422,0.06480860193369045,0.04600825922736703,0.011773942612418771,-0.004627643270632863,-0.015253885308168413,-0.0170564991057395,-0.0402252204967,-0.05754327532943566,-0.05690288058351747,-0.09569187049924993,-0.12856910950021025,-0.13738811196787168,-0.1493257820953494,-0.1522808166726663,-0.16134629427818306,-0.17348739990357495,-0.18869176790637396,-0.21601238938442102,-0.2524171478740949,-0.28883165082718537,-0.31013904758710126,-0.3253946877162556,-0.3376111740591816,-0.36490867474426186,-0.35893479302156583,-0.3468732359062341,-0.3559072806974912,-0.34674759350593903,-0.3586632833796751,-0.3584078807264066,-0.3459708364712311,-0.37572793459981857,-0.35702376738147273,-0.3079743274607728,-0.3554687847534595,-0.35144149372187994,-0.33213723482264346,-0.3156718991222889,-0.2718177444186777,-0.24286283916727508,-0.22275192015232131,-0.19938731382121874,-0.20901574955894775,-0.22141208299147644,-0.22145931692331358,-0.22123447551580153,-0.1844715030511951,-0.14742062665647107,-0.1523758912384086,-0.1540093394982804,-0.17346667319502143,-0.195636787618327,-0.20238799874187455,-0.2088257408526319,-0.23307769239490167,-0.2358640629818091,-0.16581973273539527,-0.19516999347398842,-0.25442235677538677,-0.3103429389046399,-0.3568917124322618,-0.34572809371154917,-0.3010268804322999,-0.2741562700610918,-0.2983558227474983,-0.3131994946773884,-0.309626750994687,-0.3238995235030341,-0.31976435096989103,-0.36067689804211195,-0.36808325272260134,-0.36918084919802263,-0.3669939505155308,-0.3494379964310781,-0.35277097600457935,-0.3256278660035936,-0.33146004491776043,-0.34307451395502503,-0.35442877736037676,-0.3443729758636231,-0.300821700670113,-0.29931263033736577,-0.2794169295721831,-0.2502001714953241,-0.22677127228021823,-0.22726115319676563,-0.221457629076002,-0.20029953878046583,-0.19098419442176878,-0.16330148191135568,-0.16862217337676885,-0.17371644337575753,-0.14837687945253214,-0.14095555766616558,-0.10916106304897011,0.0,0.0,0.0,0.0,0.0,0.0,0.0,0.0,0.0,0.0,0.0,0.0,0.0,0.0,0.0,0.0,0.0,0.0,0.0,0.0,0.0,0.0,0.0,0.0,0.0,0.0,0.0,0.0,0.0,0.0,0.0,0.0,0.0,0.0,0.0,0.0,0.0,0.0,0.0,0.0,0.0,0.0,0.0,0.0,0.0,0.0,0.0,0.0,0.0,0.0,0.0,0.0,0.0,0.0,0.0,0.0,0.0,0.0,0.0,0.0,0.0,0.0,0.0,0.0,0.0,0.0,0.0,0.0,0.0,0.0,0.0,0.0,0.0,0.0,0.0,0.0,0.0,0.0,0.0,0.0,0.0,0.0,0.0,0.0,0.0,0.0,0.0,0.0,0.0,0.0,0.0,0.0,0.0,0.0,0.0,0.0,0.0,0.0,0.0,0.0,0.0,0.0,0.0,0.0,0.0,0.0,0.0,0.0,0.0,0.0,0.0,0.0,0.0,0.0,0.0,0.0,0.0,0.0,0.0,0.0,0.0,0.0,0.0,0.0,0.0,0.0,0.0,0.0,0.0,0.0,0.0,0.0,0.0,0.0,0.0,0.0,0.0,0.0,0.0,0.0,0.0,0.0,0.0,0.0,0.0,0.0,0.0,0.0,0.0,0.0,0.0,0.0,0.0,0.0,0.0,0.0,0.0,0.0,0.0,0.0,0.0,0.0,0.0,0.0,0.0,0.0,0.0,0.0,0.0,0.0,0.0,0.0,0.0,0.0,0.0,0.0,0.0,0.0,0.0,0.0,0.0,0.0,0.0,0.0,0.0,0.0,0.0
0.6804847504524121,0.4925529489083448,-0.04965303964603275,-0.6319817441947448,-0.8919394728741151,-0.8507346377229266,-0.641319495099091,-0.38753469853938866,-0.25247293783785607,-0.11218277228253455,0.021319947346333176,-0.03620643115440532,-0.055062125166339675,0.03129091874429523,0.10205724678516902,0.15427735421163163,0.1517531294955705,0.15497140694444567,0.16700829328292047,0.18489438024130578,0.2086791364910975,0.19913004165468207,0.18348440878120637,0.1708478789723307,0.17032340385033345,0.19101130874076008,0.2238803910548585,0.16320923181031344,0.0664336587249787,0.06954549645295305,0.13026690706329008,0.06732966700068103,-0.037667759202922,0.005644409718402517,0.03714222267318755,-0.10330007170942027,-0.18603874141000915,-0.2171070650853707,-0.26296884405572846,-0.21484249184389545,-0.18451521410507635,-0.21125929737959329,-0.22255296820940362,-0.22745523797704756,-0.26524061775746244,-0.28453973220703216,-0.29743481667618105,-0.30996548779403016,-0.3311931311129451,-0.34902896613526,-0.32721245613507116,-0.3201276124986837,-0.34590077412757925,-0.35618580246273385,-0.3540018301784217,-0.36956117774701447,-0.3031523539694986,-0.2756307633436694,-0.23562747638345732,-0.18011770214615477,-0.13024911592893074,-0.21896517397741325,-0.2589331451100433,-0.17763736889635134,-0.07176576853692379,-0.04405011918282051,-0.07334276357400421,-0.053896043137458445,-0.006866034323268697,0.022417811521436376,0.046032502082173216,0.0277094162582216,0.03692987212866491,0.06763617616841584,0.083553837745788,0.07559961235078665,0.05281696988683083,0.051440586561850056,0.04727342164178573,0.058417181692169,0.05764930425423413,0.03889555100589919,0.05348782008103416,0.06815448995869457,0.04055744750152727,-0.008192368417817442,0.024594075308466606,0.10563729889313715,0.16539811904135715,0.2280010574541485,0.28735319638469925,0.3887239347034036,0.43536971257780277,0.48766042457790953,0.4609307824483131,0.07411482497478812,-0.5580430765294433,-0.9944804170636967,-0.6823204371448064,-0.4252719046949396,-0.25049103800671274,-0.15491248323131612,-0.10827804976217766,-0.068244608327687,-0.07707181344304445,-0.07731177713807494,-0.06288322682070516,-0.05187814771723446,-0.038218110375245744,-0.07021291072874208,0.02137292520077103,0.05225981772016763,-0.025866909986090186,-0.049820085290662834,0.0,0.0,0.0,0.0,0.0,0.0,0.0,0.0,0.0,0.0,0.0,0.0,0.0,0.0,0.0,0.0,0.0,0.0,0.0,0.0,0.0,0.0,0.0,0.0,0.0,0.0,0.0,0.0,0.0,0.0,0.0,0.0,0.0,0.0,0.0,0.0,0.0,0.0,0.0,0.0,0.0,0.0,0.0,0.0,0.0,0.0,0.0,0.0,0.0,0.0,0.0,0.0,0.0,0.0,0.0,0.0,0.0,0.0,0.0,0.0,0.0,0.0,0.0,0.0,0.0,0.0,0.0,0.0,0.0,0.0,0.0,0.0,0.0,0.0,0.0,0.0,0.0,0.0,0.0,0.0,0.0,0.0,0.0,0.0,0.0,0.0,0.0,0.0,0.0,0.0,0.0,0.0,0.0,0.0,0.0,0.0,0.0,0.0,0.0,0.0,0.0,0.0,0.0,0.0,0.0,0.0,0.0,0.0,0.0,0.0,0.0,0.0,0.0,0.0,0.0,0.0,0.0,0.0,0.0,0.0,0.0,0.0,0.0,0.0,0.0,0.0,0.0,0.0,0.0,0.0,0.0,0.0,0.0,0.0,0.0,0.0,0.0,0.0,0.0,0.0,0.0,0.0,0.0,0.0,0.0,0.0,0.0,0.0,0.0,0.0,0.0,0.0,0.0,0.0,0.0,0.0,0.0,0.0,0.0,0.0,0.0,0.0,0.0,0.0,0.0,0.0,0.0,0.0,0.0,0.0,0.0,0.0,0.0,0.0,0.0,0.0,0.0,0.0,0.0,0.0,0.0,0.0,0.0,0.0,0.0,0.0,0.0
0.47308350027794677,0.18261304105993012,-0.4071203377139148,-0.7083117574205223,-0.5108154016890045,-0.34008224417293914,-0.15667724172218464,-0.1379101333704992,-0.13924998941742492,-0.14096220774249035,-0.12988109174393112,-0.1256826007469316,-0.1349070772128725,-0.13125469850478552,-0.14097189741530386,-0.16403310352055675,-0.14129974588250754,-0.15813401975525548,-0.16853503107382628,-0.21188897377980068,-0.21592338554626023,-0.2528663309590706,-0.2767187916514922,-0.24148189695145295,-0.19311146101190804,-0.1709953128603161,-0.14227164082748678,-0.14632927745965166,-0.14373947906316065,-0.13448332077829683,-0.12839485568776923,-0.11888840212817105,-0.10594723823047186,-0.07970317509645192,-0.05327757021618814,-0.01023594074970407,-0.006395036661158661,0.0009498773736704136,-0.004611551053131819,0.009770331942310575,0.007977798980808824,0.00972127461502498,0.00843697251297264,0.010696025194637106,0.016499921226486806,0.029132778539709622,0.022320366699067156,0.005911941161939051,-0.0036765765001164834,0.00011700908493199545,-0.02540792342182224,-0.057271510547320374,-0.08891564816104044,-0.10064697831656243,-0.11546634384071286,-0.11368226302658192,-0.13143370167169413,-0.15231495124991454,-0.14350058373708754,-0.1444159087262886,-0.1485096021376626,-0.14594693496696576,-0.10718927846126491,-0.06181239384027243,-0.01968834917662999,0.07499158191600092,0.20906881994488427,0.3759511881753864,0.4967939653367872,0.6011242691246024,0.5608287674222026,0.1624032438149594,-0.745262931729748,-0.38223482904111244,-0.209935184311359,-0.1823777040585769,-0.17475818024325657,-0.18050032032568736,-0.1798919905169124,-0.1663579460373607,-0.1990053520971622,-0.2121463490387063,-0.22547996085427569,-0.2390009936037287,-0.2921136764274404,-0.2928586606404738,-0.30691222907472865,-0.3014268253544448,-0.2960980828808651,-0.2843470690375901,-0.26616174013277927,-0.2743708167147985,-0.2958257723533018,-0.2976735515631811,-0.2864689623650534,-0.2819017417769032,-0.2773884817960566,-0.2860503461644521,-0.13053102118027665,-0.08339484420875724,-0.05595647615800809,-0.03178166015390885,-0.023994125406779754,0.00025847395137147894,0.024565768665342703,0.04893645051707449,0.06024129694867632,0.07490628253418341,0.09621928913015845,0.12418231716426367,0.11938633548739543,0.09824989282237488,0.09032590841869084,0.08904035466721398,0.08453324543178525,0.09649959118865094,0.10522342926750947,0.0975550922161153,0.09975211289275483,0.08552460641526577,0.07127401043976674,0.09967268194235536,0.10830017362542431,0.1037001200961338,0.15809609985778683,0.22219825065359958,0.3321009743703,0.4582142524537089,0.0,0.0,0.0,0.0,0.0,0.0,0.0,0.0,0.0,0.0,0.0,0.0,0.0,0.0,0.0,0.0,0.0,0.0,0.0,0.0,0.0,0.0,0.0,0.0,0.0,0.0,0.0,0.0,0.0,0.0,0.0,0.0,0.0,0.0,0.0,0.0,0.0,0.0,0.0,0.0,0.0,0.0,0.0,0.0,0.0,0.0,0.0,0.0,0.0,0.0,0.0,0.0,0.0,0.0,0.0,0.0,0.0,0.0,0.0,0.0,0.0,0.0,0.0,0.0,0.0,0.0,0.0,0.0,0.0,0.0,0.0,0.0,0.0,0.0,0.0,0.0,0.0,0.0,0.0,0.0,0.0,0.0,0.0,0.0,0.0,0.0,0.0,0.0,0.0,0.0,0.0,0.0,0.0,0.0,0.0,0.0,0.0,0.0,0.0,0.0,0.0,0.0,0.0,0.0,0.0,0.0,0.0,0.0,0.0,0.0,0.0,0.0,0.0,0.0,0.0,0.0,0.0,0.0,0.0,0.0,0.0,0.0,0.0,0.0,0.0,0.0,0.0,0.0,0.0,0.0,0.0,0.0,0.0,0.0,0.0,0.0,0.0,0.0,0.0,0.0,0.0,0.0,0.0,0.0,0.0,0.0,0.0,0.0,0.0,0.0,0.0,0.0,0.0,0.0,0.0,0.0,0.0,0.0,0.0,0.0,0.0,0.0,0.0,0.0,0.0,0.0,0.0,0.0,0.0,0.0,0.0,0.0,0.0
0.7906725005940587,0.6410153701094096,0.16262438107538194,-0.4113805745518443,-0.8478818299643148,-0.4802489427056011,-0.2838451856288326,-0.146979634081533,-0.04334769326902198,-0.01561143781926863,0.005225087971568061,0.002770039187865047,-0.0032448236549285033,-0.006225545402547405,0.00698862303940401,0.0035797216703946566,-0.0032943282832101862,-0.02018160474697457,-0.04377929658764212,-0.04122904994975445,-0.035503316917523564,-0.033155281100399926,-0.03745526574640382,-0.04510665061113798,-0.04296175558669754,-0.04743094089874528,-0.07492576399048693,-0.08274524949574603,-0.10372364148267928,-0.12143475925201809,-0.12273741038377418,-0.12076396627981703,-0.12536350181011882,-0.1135449513394752,-0.12799993186482622,0.0,0.0,0.0,0.0,0.0,0.0,0.0,0.0,0.0,0.0,0.0,0.0,0.0,0.0,0.0,0.0,0.0,0.0,0.0,0.0,0.0,0.0,0.0,0.0,0.0,0.0,0.0,0.0,0.0,0.0,0.0,0.0,0.0,0.0,0.0,0.0,0.0,0.0,0.0,0.0,0.0,0.0,0.0,0.0,0.0,0.0,0.0,0.0,0.0,0.0,0.0,0.0,0.0,0.0,0.0,0.0,0.0,0.0,0.0,0.0,0.0,0.0,0.0,0.0,0.0,0.0,0.0,0.0,0.0,0.0,0.0,0.0,0.0,0.0,0.0,0.0,0.0,0.0,0.0,0.0,0.0,0.0,0.0,0.0,0.0,0.0,0.0,0.0,0.0,0.0,0.0,0.0,0.0,0.0,0.0,0.0,0.0,0.0,0.0,0.0,0.0,0.0,0.0,0.0,0.0,0.0,0.0,0.0,0.0,0.0,0.0,0.0,0.0,0.0,0.0,0.0,0.0,0.0,0.0,0.0,0.0,0.0,0.0,0.0,0.0,0.0,0.0,0.0,0.0,0.0,0.0,0.0,0.0,0.0,0.0,0.0,0.0,0.0,0.0,0.0,0.0,0.0,0.0,0.0,0.0,0.0,0.0,0.0,0.0,0.0,0.0,0.0,0.0,0.0,0.0,0.0,0.0,0.0,0.0,0.0,0.0,0.0,0.0,0.0,0.0,0.0,0.0,0.0,0.0,0.0,0.0,0.0,0.0,0.0,0.0,0.0,0.0,0.0,0.0,0.0,0.0,0.0,0.0,0.0,0.0,0.0,0.0,0.0,0.0,0.0,0.0,0.0,0.0,0.0,0.0,0.0,0.0,0.0,0.0,0.0,0.0,0.0,0.0,0.0,0.0,0.0,0.0,0.0,0.0,0.0,0.0,0.0,0.0,0.0,0.0,0.0,0.0,0.0,0.0,0.0,0.0,0.0,0.0,0.0,0.0,0.0,0.0,0.0,0.0,0.0,0.0,0.0,0.0,0.0,0.0,0.0,0.0,0.0,0.0,0.0,0.0,0.0,0.0,0.0,0.0,0.0,0.0,0.0,0.0,0.0,0.0,0.0,0.0,0.0,0.0,0.0,0.0,0.0,0.0,0.0,0.0,0.0,0.0,0.0,0.0,0.0
0.9047792090352853,0.5382508001768026,-0.09866524427553153,-0.5847964208385565,-0.7323257369521108,-0.6625284855800837,-0.5511897037517643,-0.3558588109718427,-0.17649893181731297,-0.07064021312715782,-0.013987843470439708,0.011690664476356407,0.04584038990036305,0.04304865622078147,0.057910099585383734,0.057130865891509064,0.046812799565657086,0.04820882591931136,0.034080871195866086,0.022647764059330094,0.016973752383238977,-0.013214905739068073,-0.046673738233183194,-0.0470068404108567,-0.07782865999247167,-0.08153182388588723,-0.10658031101807315,-0.12264419457416116,-0.1266697359940177,-0.13075699388265402,-0.147006915419803,-0.14206265053548345,-0.14317968989940094,-0.1564002919436087,-0.1695840549698537,-0.17362189489436833,-0.17758886779177058,-0.16934663970280447,-0.1791855983428805,-0.1707240973816646,-0.19243729187543956,-0.21097540748473964,-0.2354173173026454,-0.2536283176208001,-0.2625657826452922,-0.2591873403640234,-0.28894007094007423,-0.2881704835916737,-0.30535653938419255,-0.3010895273702357,-0.30869450889683564,-0.30391558562847104,-0.2867410713362549,-0.2783733259845754,-0.26364786544534874,-0.23043091333980617,-0.22113929543902955,-0.2145480757395311,-0.19549388984983385,-0.16093613333165646,-0.13814052312610114,-0.12709829418411764,-0.10961804652218302,-0.08266215505142087,-0.05228570159375353,-0.03363660966135923,-0.035802907876223776,-0.03150704629016959,-0.02074801709676947,-0.030801376110654866,-0.04651600963417001,-0.025466972653292782,-0.01917851796619051,-0.04280936064905223,-0.041816354880387714,-0.004085750410908808,0.006730447853467738,0.014865486595925077,-0.0069687638492279234,-0.013328164777483116,-0.013320463029691412,-0.006963127651652716,0.017847227759918902,0.024723259419855845,0.050009877004484206,0.06034705772194022,0.0981374491211505,0.11486454431605791,0.14989657689370742,0.16683524188144294,0.16261631751829608,0.17660131363929008,0.19056842891613965,0.2408438555563652,0.309200912536165,0.41377712499957453,0.5484623286223199,0.6313783259575233,0.7291409622578725,0.8053217624145597,0.8507622829234499,0.5835465394193162,-0.011556391254091984,-0.5800513934188672,-0.897759656317901,-0.7010786708532829,-0.4385353150520164,-0.23434696790989587,-0.10664804487341252,-0.04932869003727473,0.004331517671493132,0.0543790148099671,0.046308295888456995,0.04683516930052014,0.025695203813453756,0.013233765946168678,0.0034276395076371998,-0.0036868244003135505,-0.04141116835543025,-0.03394764149318767,-0.03278407090343151,-0.03788981508796929,-0.05832732362928525,-0.06073229088858691,-0.09659781690507256,-0.08407280150799167,-0.0867749127029799,-0.11680309928183437,0.0,0.0,0.0,0.0,0.0,0.0,0.0,0.0,0.0,0.0,0.0,0.0,0.0,0.0,0.0,0.0,0.0,0.0,0.0,0.0,0.0,0.0,0.0,0.0,0.0,0.0,0.0,0.0,0.0,0.0,0.0,0.0,0.0,0.0,0.0,0.0,0.0,0.0,0.0,0.0,0.0,0.0,0.0,0.0,0.0,0.0,0.0,0.0,0.0,0.0,0.0,0.0,0.0,0.0,0.0,0.0,0.0,0.0,0.0,0.0,0.0,0.0,0.0,0.0,0.0,0.0,0.0,0.0,0.0,0.0,0.0,0.0,0.0,0.0,0.0,0.0,0.0,0.0,0.0,0.0,0.0,0.0,0.0,0.0,0.0,0.0,0.0,0.0,0.0,0.0,0.0,0.0,0.0,0.0,0.0,0.0,0.0,0.0,0.0,0.0,0.0,0.0,0.0,0.0,0.0,0.0,0.0,0.0,0.0,0.0,0.0,0.0,0.0,0.0,0.0,0.0,0.0,0.0,0.0,0.0,0.0,0.0,0.0,0.0,0.0,0.0,0.0,0.0,0.0,0.0,0.0,0.0,0.0,0.0,0.0,0.0,0.0,0.0,0.0,0.0,0.0,0.0,0.0,0.0,0.0,0.0,0.0,0.0,0.0,0.0,0.0,0.0,0.0,0.0,0.0,0.0,0.0,0.0,0.0,0.0,0.0,0.0,0.0,0.0,0.0,0.0,0.0,0.0,0.0,0.0,0.0,0.0,0.0
0.8407597683293451,0.20885538755918887,-0.4008102358979965,-0.6739870947336469,-0.6395878295887183,-0.5509974761403014,-0.4306623882243757,-0.32667011578273075,-0.29672512032985904,-0.2959035607937953,-0.2921106010795985,-0.2757018439970246,-0.2466547771321579,-0.23060457125765568,-0.24035850628858071,-0.23420318898063738,-0.22494737545241786,-0.2382291394091949,-0.2355444798629865,-0.24574012892869987,-0.23672783431575742,-0.23414860946164712,-0.23798705348781,-0.21615707754918015,-0.18788761074755117,-0.19485841982183008,-0.20498595229661754,-0.21825902964679103,-0.22183879083375818,-0.225337201946279,-0.23836703538861792,-0.24167756292886192,-0.25450449928888097,-0.26721997685256244,-0.29264677390379845,-0.30832967212984536,-0.3078496218600076,-0.3040308069244379,-0.3225263605078055,-0.3440898053241179,-0.33023210732528835,-0.32905729590253957,-0.3469768022432233,-0.38078089793779435,-0.4016028890158207,-0.4030260960248811,-0.3914606550109749,-0.3957648121337291,-0.3838602972777105,-0.3846033595425854,-0.3787430268801114,-0.36627104424234874,-0.34717917837568163,-0.3599449994602329,-0.3404176725443549,-0.32066077665961445,-0.2942523849791727,-0.2964637454345595,-0.28238796837254315,-0.2680543195231672,-0.2502497085463413,-0.21614019051996022,-0.2009996338822114,-0.19840987932699475,-0.18912510496633192,-0.18276470183193247,-0.1504633115599382,-0.14032801603144285,-0.13632419485460492,-0.13203987132683676,-0.11465001608745096,-0.10019514454548815,-0.056609965269990105,-0.028802039922737097,-0.01357341352576464,-0.020556475693534096,-0.014485457856813043,-0.03065355618586784,-0.03059151464742301,-0.0335604183691331,-0.036373112117494874,-0.04546561818624723,-0.03199711650681734,-0.06013563011746166,-0.04972949028218209,-0.03608580093479277,-0.009613327045030045,-0.01524400430904412,-0.01452591076022207,0.011748176638861341,0.028262202399766186,0.06704814552283882,0.19862164746745634,0.37483179783101356,0.5443176343199183,0.626850115512504,0.6319955745416439,0.4089581311155866,-0.11288458871245627,-0.6225088696676643,-0.8858637861207345,-0.7169828178788311,-0.529587474474711,-0.3749603568711687,-0.27229871716771464,-0.21193555871190722,-0.15213300613425967,-0.15057548136899537,-0.12383425716992696,-0.10393892676142334,-0.09726323351969167,-0.10376803008918008,-0.11700131176104417,-0.10164818103612157,-0.09936650947715248,-0.1069155700893453,-0.12426319782811136,-0.12572146239413565,-0.12408944696107402,-0.10651037541839446,-0.09220019945070657,-0.09396196715361753,-0.11497875131132079,-0.13919221076788146,-0.1505453449830664,-0.17788237879113228,-0.18911297761652535,-0.20987641190050826,-0.21770577292953763,-0.2189993075770945,-0.25222752243017216,-0.253233159843347,-0.263695344561671,0.0,0.0,0.0,0.0,0.0,0.0,0.0,0.0,0.0,0.0,0.0,0.0,0.0,0.0,0.0,0.0,0.0,0.0,0.0,0.0,0.0,0.0,0.0,0.0,0.0,0.0,0.0,0.0,0.0,0.0,0.0,0.0,0.0,0.0,0.0,0.0,0.0,0.0,0.0,0.0,0.0,0.0,0.0,0.0,0.0,0.0,0.0,0.0,0.0,0.0,0.0,0.0,0.0,0.0,0.0,0.0,0.0,0.0,0.0,0.0,0.0,0.0,0.0,0.0,0.0,0.0,0.0,0.0,0.0,0.0,0.0,0.0,0.0,0.0,0.0,0.0,0.0,0.0,0.0,0.0,0.0,0.0,0.0,0.0,0.0,0.0,0.0,0.0,0.0,0.0,0.0,0.0,0.0,0.0,0.0,0.0,0.0,0.0,0.0,0.0,0.0,0.0,0.0,0.0,0.0,0.0,0.0,0.0,0.0,0.0,0.0,0.0,0.0,0.0,0.0,0.0,0.0,0.0,0.0,0.0,0.0,0.0,0.0,0.0,0.0,0.0,0.0,0.0,0.0,0.0,0.0,0.0,0.0,0.0,0.0,0.0,0.0,0.0,0.0,0.0,0.0,0.0,0.0,0.0,0.0,0.0,0.0,0.0,0.0,0.0,0.0,0.0,0.0,0.0,0.0,0.0,0.0,0.0,0.0,0.0,0.0,0.0,0.0,0.0,0.0,0.0,0.0,0.0
0.668647511805394,0.06776469694631763,-0.5337602100449897,-0.8132761113962554,-0.8067110841575752,-0.7113212845214891,-0.5928430096279829,-0.3944665114895097,-0.21475456114293048,-0.09250503973285663,-0.042610844647637126,-0.014224991928024205,0.022579865952615474,0.03497578932009616,0.014038635584359273,-0.028240253371496712,-0.02608318956056531,-0.018303210959392458,-0.022797565776473124,-0.05148900450890806,-0.05952549673763009,-0.07078661418703397,-0.0852477209705743,-0.10587417296735417,-0.13264474425388603,-0.13565726828965458,-0.1537407748989079,-0.1689489486912133,-0.18126630442774813,-0.18470210592960712,-0.19418456017320027,-0.19774879000959836,-0.2312430525360851,-0.23190444033871369,-0.2415597569529947,-0.26318948325201535,-0.2937984861147391,-0.32142765964602105,-0.34308327591971155,-0.3856546012522588,-0.4192545196153923,-0.40204307924978994,-0.40872208011950056,-0.41239288557454296,-0.44592192304896117,-0.4555163847705027,-0.4441576686599003,-0.4626357149629494,-0.451172801866833,-0.4426228330177227,-0.4339776493493461,-0.4102738463808512,-0.42228811192443205,-0.40126715223629905,-0.38005788394799933,-0.3466835529523913,-0.32801485812786846,-0.28219309548130894,-0.23907803116513754,-0.21060061164555072,-0.19076317927783812,-0.17058086785024507,-0.158999456190605,-0.147036461501661,-0.131687202318948,-0.13086611148253102,-0.10870054709947674,-0.10701382442883825,-0.10487754703588785,-0.11124738479767209,-0.08428031753786894,-0.10764139042742282,-0.12454954262946902,-0.158908037214087,-0.1599153437871859,-0.16044225015973823,-0.15750183205712892,-0.15109670869221184,-0.14123080683604722,-0.14583889663163646,-0.1768806358726073,-0.18655203559841255,-0.1688858263516333,-0.1657279110836869,-0.16513693201987242,-0.17310230160141812,-0.18067344849549405,-0.18487753218783506,-0.18274290386430014,-0.17727558665316015,-0.17447103566688626,-0.1803259147073832,-0.18888510776333242,-0.1553474340536201,-0.13053688364225496,-0.12344325608450088,-0.13409304142451137,-0.13561995187535,-0.13402988119712222,-0.10843588443536453,-0.09771745418063323,-0.10489662833519374,-0.10012629433652498,-0.08344341651986051,-0.08476905996985849,-0.06828445373169657,-0.05196100943697217,-0.041818889836969304,-0.019974087894468147,0.007549512404010244,0.09747929513342907,0.28263450650299904,0.5271020457369708,0.7680710481375193,0.4406998123619277,-0.20406687599577233,-0.6792167300310957,-0.8025401019705447,-0.7563692017562968,-0.6632347916737524,-0.4992113042778195,-0.30011498372522477,-0.16151946800581624,-0.07142196687318413,-0.020809228182298335,0.01128326477975021,0.0,0.0,0.0,0.0,0.0,0.0,0.0,0.0,0.0,0.0,0.0,0.0,0.0,0.0,0.0,0.0,0.0,0.0,0.0,0.0,0.0,0.0,0.0,0.0,0.0,0.0,0.0,0.0,0.0,0.0,0.0,0.0,0.0,0.0,0.0,0.0,0.0,0.0,0.0,0.0,0.0,0.0,0.0,0.0,0.0,0.0,0.0,0.0,0.0,0.0,0.0,0.0,0.0,0.0,0.0,0.0,0.0,0.0,0.0,0.0,0.0,0.0,0.0,0.0,0.0,0.0,0.0,0.0,0.0,0.0,0.0,0.0,0.0,0.0,0.0,0.0,0.0,0.0,0.0,0.0,0.0,0.0,0.0,0.0,0.0,0.0,0.0,0.0,0.0,0.0,0.0,0.0,0.0,0.0,0.0,0.0,0.0,0.0,0.0,0.0,0.0,0.0,0.0,0.0,0.0,0.0,0.0,0.0,0.0,0.0,0.0,0.0,0.0,0.0,0.0,0.0,0.0,0.0,0.0,0.0,0.0,0.0,0.0,0.0,0.0,0.0,0.0,0.0,0.0,0.0,0.0,0.0,0.0,0.0,0.0,0.0,0.0,0.0,0.0,0.0,0.0,0.0,0.0,0.0,0.0,0.0,0.0,0.0,0.0,0.0,0.0,0.0,0.0,0.0,0.0,0.0,0.0,0.0,0.0,0.0,0.0,0.0,0.0,0.0,0.0,0.0,0.0,0.0,0.0,0.0,0.0,0.0,0.0,0.0,0.0
0.6063945054920806,0.19361941296779117,-0.41361239610442246,-0.8516932116644269,-0.5630479746963352,-0.3750236373659832,-0.2542585141440046,-0.1582924757224889,-0.11436893035284805,-0.07396757443393982,-0.07039465214203579,-0.0672542728104459,-0.05845749264805252,-0.0682223304412067,-0.07530936922405154,-0.0736332613051953,-0.1055990474504916,-0.10451212525133799,-0.10974910546630487,-0.12735124359876415,-0.11790210294181576,-0.13896461811712277,-0.142032436920227,-0.15133389886801607,-0.16079237831316381,-0.16130143716970868,-0.18315286531625974,-0.20814992496695245,-0.23627995065025606,-0.2584390249907879,-0.2564318380591847,-0.27873601889030797,-0.2829121055069382,-0.29016289571856796,-0.2913855177721334,-0.28353832640858007,-0.27873262982738195,-0.28301868507469663,-0.29032456668676215,-0.2915478783372498,-0.2897086047705718,-0.3029796833778659,-0.316197770312674,-0.32026068413860886,-0.3060651211757385,-0.294812046449203,-0.2804270661093778,-0.26289698955489366,-0.23008643520228095,-0.24865524891264398,-0.25191822956641696,-0.2398631639271395,-0.23975330032349332,-0.2515770104588543,-0.23592547919043824,-0.23824633080501753,-0.22822308957179296,-0.20281480968460094,-0.1801949699930337,-0.1573235133482353,-0.12206927047227226,-0.11685220585882203,-0.09620644249486167,-0.08740090565077531,-0.09952209533287798,-0.105290664155841,-0.07742828904726101,-0.0613915070258499,-0.06930163527430215,-0.0981283174784636,-0.08120024119600047,-0.06700907758303119,-0.07374183679243917,-0.07715862815951843,-0.10454053500701375,-0.11649706755198277,-0.1342502890830716,-0.15174800309410286,-0.13263308682542438,-0.14055824455469243,-0.1331068200785227,-0.12241337479148545,-0.11758274878490985,-0.08226202661850618,-0.08010829071556495,-0.07477067025872332,-0.07232750350816998,-0.08188885448668747,-0.048923815959537334,-0.03709512318029168,-0.031271768700724054,-0.040568703060738544,-0.031674154669194404,-0.0046140256328116155,0.007248063771087394,0.022066815185138974,0.0761788382435174,0.115001779546626,0.18699102442374022,0.2860494628060602,0.4303221492866067,0.5924925208995377,0.52703874728176,-0.03581010785617097,-1.0082209702007523,-0.4658320266302261,-0.2936507591019749,-0.2188979949847996,-0.17184332071749545,-0.12215426017534474,-0.10011055379129027,-0.10265649853240158,-0.08733990273332087,-0.07535171491300487,-0.08788396881429844,-0.09461002257164107,-0.08944893836337492,-0.08450429339638987,-0.11309478340408781,-0.12368402813059855,-0.11625642454276958,-0.10898073926596841,-0.12002667956684149,-0.13119799742122393,-0.12732994428749814,-0.12053383679034871,-0.1077689883654258,-0.08599563170259727,0.0,0.0,0.0,0.0,0.0,0.0,0.0,0.0,0.0,0.0,0.0,0.0,0.0,0.0,0.0,0.0,0.0,0.0,0.0,0.0,0.0,0.0,0.0,0.0,0.0,0.0,0.0,0.0,0.0,0.0,0.0,0.0,0.0,0.0,0.0,0.0,0.0,0.0,0.0,0.0,0.0,0.0,0.0,0.0,0.0,0.0,0.0,0.0,0.0,0.0,0.0,0.0,0.0,0.0,0.0,0.0,0.0,0.0,0.0,0.0,0.0,0.0,0.0,0.0,0.0,0.0,0.0,0.0,0.0,0.0,0.0,0.0,0.0,0.0,0.0,0.0,0.0,0.0,0.0,0.0,0.0,0.0,0.0,0.0,0.0,0.0,0.0,0.0,0.0,0.0,0.0,0.0,0.0,0.0,0.0,0.0,0.0,0.0,0.0,0.0,0.0,0.0,0.0,0.0,0.0,0.0,0.0,0.0,0.0,0.0,0.0,0.0,0.0,0.0,0.0,0.0,0.0,0.0,0.0,0.0,0.0,0.0,0.0,0.0,0.0,0.0,0.0,0.0,0.0,0.0,0.0,0.0,0.0,0.0,0.0,0.0,0.0,0.0,0.0,0.0,0.0,0.0,0.0,0.0,0.0,0.0,0.0,0.0,0.0,0.0,0.0,0.0,0.0,0.0,0.0,0.0,0.0,0.0,0.0,0.0,0.0,0.0,0.0,0.0,0.0,0.0,0.0,0.0,0.0,0.0,0.0,0.0,0.0
0.11283936742986864,0.32380628443157033,0.6111368355528612,0.5086860501448847,0.06359943915769949,-0.4763838987675339,-0.8871271921324098,-0.826491285006819,-0.6160391318204365,-0.4651979934291957,-0.38868011523466645,-0.2920463474572046,-0.2431064559640537,-0.24182151411161787,-0.23800400062388596,-0.23161697403128445,-0.19902470351255136,-0.19034189331418463,-0.20553487345902952,-0.18852169210067346,-0.1894206936990724,-0.15215236593885872,-0.15928730421003745,-0.19014840450374842,-0.16506046068499214,-0.1636481993943818,-0.16523855886302,-0.1993094479950202,-0.19504098639449446,-0.19371357215870644,-0.1687593959008855,-0.1614613217593755,-0.15115408885609405,-0.16732341792035854,-0.16275711504245638,-0.14334391413942169,-0.1533236221374106,-0.17498804802356188,-0.22013019437211767,-0.22089505441866697,-0.2333276979075289,-0.21907507806019902,-0.21943452567196897,-0.2314548481222603,-0.2551359360546302,-0.28457877668567616,-0.3197852375189074,-0.3489580659515752,-0.35735063983185145,-0.37741640560175893,-0.423909374678091,-0.44373443911651117,-0.43689613586964554,-0.43879844670812745,-0.4553456185305697,-0.48654195809063217,-0.4645409703539664,-0.44834077981458886,-0.432037811149912,-0.41857771648453923,-0.3784564618328491,-0.3824692932417181,-0.3686628705404006,-0.36653338754328174,-0.33182801141163654,-0.2940436697924324,-0.31807754245744935,-0.3036289141967002,-0.2683967055125323,-0.23893045025914186,-0.19163096120706177,-0.16189957197806557,-0.1644890342372624,-0.16105393552193836,-0.1427500011294224,-0.13023411129257975,-0.12351480869241199,-0.09900238550767843,-0.056708525488653495,-0.037946279698208844,-0.01913115890731439,0.023319310937522052,0.1129854946386508,0.18494616960009863,0.28932638905476493,0.6620965349769139,0.49198202471307256,0.02379399989849596,-0.5389607200662101,-0.774479450450121,-0.6532969439527887,-0.4969633590072656,-0.3349611066157706,-0.2439668879704512,-0.19740879082088658,-0.16576591245932462,-0.16081822545858426,-0.15894737211092547,-0.17783605294200594,-0.18501879464048718,-0.19818102362877432,-0.20550969084395818,-0.23354264311270848,-0.2527693695534499,-0.25138024965729433,-0.24706635927371975,-0.24276984460875375,-0.2502837480330472,-0.24600239661703105,-0.25057070386674907,-0.2580847784147483,-0.2803415341259593,-0.2966890685202519,-0.3071261110255557,-0.3175520635910496,-0.3220670953229827,-0.3413217722426727,-0.35171762199547996,-0.35915642582311813,-0.38134031340543806,-0.3917221905996815,-0.3991549678263927,-0.40364187521261585,-0.41108630307714805,-0.4185419018468633,-0.4201124958942289,-0.41285199731896716,-0.4469139821021565,-0.4810029254471655,-0.48857261660999096,-0.4755227736286084,-0.4713483976128273,-0.4789914284723031,0.0,0.0,0.0,0.0,0.0,0.0,0.0,0.0,0.0,0.0,0.0,0.0,0.0,0.0,0.0,0.0,0.0,0.0,0.0,0.0,0.0,0.0,0.0,0.0,0.0,0.0,0.0,0.0,0.0,0.0,0.0,0.0,0.0,0.0,0.0,0.0,0.0,0.0,0.0,0.0,0.0,0.0,0.0,0.0,0.0,0.0,0.0,0.0,0.0,0.0,0.0,0.0,0.0,0.0,0.0,0.0,0.0,0.0,0.0,0.0,0.0,0.0,0.0,0.0,0.0,0.0,0.0,0.0,0.0,0.0,0.0,0.0,0.0,0.0,0.0,0.0,0.0,0.0,0.0,0.0,0.0,0.0,0.0,0.0,0.0,0.0,0.0,0.0,0.0,0.0,0.0,0.0,0.0,0.0,0.0,0.0,0.0,0.0,0.0,0.0,0.0,0.0,0.0,0.0,0.0,0.0,0.0,0.0,0.0,0.0,0.0,0.0,0.0,0.0,0.0,0.0,0.0,0.0,0.0,0.0,0.0,0.0,0.0,0.0,0.0,0.0,0.0,0.0,0.0,0.0,0.0,0.0,0.0,0.0,0.0,0.0,0.0,0.0,0.0,0.0,0.0,0.0,0.0,0.0,0.0,0.0,0.0,0.0,0.0,0.0,0.0,0.0,0.0,0.0,0.0,0.0,0.0,0.0,0.0,0.0,0.0,0.0,0.0,0.0,0.0,0.0,0.0,0.0
0.6756301711175047,0.26676499732611403,-0.35678839173912347,-0.7515479179361813,-0.8400375855531762,-0.45478288137266965,-0.2502365637146627,-0.09297224293833574,-0.02326537566640706,0.04578219708869757,0.0894019930291851,0.10143485698566124,0.09743255980985781,0.09914865325178446,0.09731668607074911,0.08577018236365058,0.07384991869163707,0.0708948968540973,0.06763150153974505,0.076497135993901,0.06029844752624166,0.037673060900615084,0.03346058746119462,0.02597184940041864,0.049348861547639594,0.06639037215288841,0.06470807274468446,0.056726512922482486,0.03315585389258694,-0.005989921706993584,0.0013379969057419761,-0.01308920910007561,-0.021345384413277452,-0.02032019012114112,-0.03792269641192502,-0.06794323087502412,-0.09486782642208287,-0.12179442410967228,-0.12390548364072952,-0.14462417547444034,-0.15603260564419327,-0.17984257484063562,-0.20985009657688475,-0.23985163106403162,-0.24813485021500511,-0.25641301047930304,-0.2491776696425545,-0.28846587412882174,-0.2843257377910964,-0.3018943921157116,-0.3101512032071483,-0.318396050400916,-0.32041583601580065,-0.30378915306849696,-0.2778024463193253,-0.26724795782370026,-0.2565934898185728,-0.2178995862451306,-0.18526319382206996,-0.15866152877224352,-0.09774860602121072,-0.06764077081572233,-0.07141888573623671,-0.07494301716973985,-0.05337967129475343,-0.05633993328649317,-0.027974189614679082,-0.008590217703083018,-0.022987916056849217,0.009493291577105906,0.026829168862145175,0.029030425918435743,0.00990265882604163,0.0004717765025153251,-0.0023576944674930855,0.02313196016458012,0.002500793782052669,-0.011518105142480835,-0.03443298036876359,-0.053837011051511466,-0.041815465132858644,-0.051101929065075165,-0.04137661638278793,-0.034357170855936654,-0.030049656340288302,-0.03466494480001458,-0.035804201911620294,-0.02106976593773408,-0.02149057991469995,-0.02156957256529747,-0.0244218130204877,-0.008349072540572551,0.01732748389530821,0.02777630218400229,0.03228438258285051,0.0432390575485404,0.048211616271355125,0.05958632176908572,0.052524046190128355,0.04560945572429956,0.05122197404692584,0.060026731933268865,0.04407635618763914,0.04986543537077178,0.06805428590007401,0.10481071391345567,0.10426449953243914,0.10359806266529466,0.12138105403671336,0.14826490754487592,0.18730637223866684,0.319105534724223,0.5436129573806286,0.7118890455465827,0.7804519183031368,0.7802583971761984,0.5840673889442551,0.05532710220784407,-0.4865514228995808,-0.8090096445586791,-0.6701629198959267,-0.4825587076775359,-0.25547016457672167,-0.078797418279921,0.022697491792219828,0.08628791412940806,0.11512575091428351,0.11856476096247805,0.0,0.0,0.0,0.0,0.0,0.0,0.0,0.0,0.0,0.0,0.0,0.0,0.0,0.0,0.0,0.0,0.0,0.0,0.0,0.0,0.0,0.0,0.0,0.0,0.0,0.0,0.0,0.0,0.0,0.0,0.0,0.0,0.0,0.0,0.0,0.0,0.0,0.0,0.0,0.0,0.0,0.0,0.0,0.0,0.0,0.0,0.0,0.0,0.0,0.0,0.0,0.0,0.0,0.0,0.0,0.0,0.0,0.0,0.0,0.0,0.0,0.0,0.0,0.0,0.0,0.0,0.0,0.0,0.0,0.0,0.0,0.0,0.0,0.0,0.0,0.0,0.0,0.0,0.0,0.0,0.0,0.0,0.0,0.0,0.0,0.0,0.0,0.0,0.0,0.0,0.0,0.0,0.0,0.0,0.0,0.0,0.0,0.0,0.0,0.0,0.0,0.0,0.0,0.0,0.0,0.0,0.0,0.0,0.0,0.0,0.0,0.0,0.0,0.0,0.0,0.0,0.0,0.0,0.0,0.0,0.0,0.0,0.0,0.0,0.0,0.0,0.0,0.0,0.0,0.0,0.0,0.0,0.0,0.0,0.0,0.0,0.0,0.0,0.0,0.0,0.0,0.0,0.0,0.0,0.0,0.0,0.0,0.0,0.0,0.0,0.0,0.0,0.0,0.0,0.0,0.0,0.0,0.0,0.0,0.0,0.0,0.0,0.0,0.0,0.0,0.0,0.0,0.0,0.0,0.0,0.0,0.0,0.0
0.5482599757656054,0.3293803306065916,-0.33181649473368313,-0.8855307679470779,-0.5070441346258732,-0.388663097382604,-0.318207999181099,-0.2807238764063609,-0.24033851505129333,-0.2239336558151966,-0.24345067961539776,-0.25704343140395874,-0.2587256415231457,-0.2664178552162583,-0.27114716348357876,-0.25796491904077423,-0.23881746961723796,-0.2704757276554288,-0.2901814813237067,-0.2800010209494544,-0.2847545442784265,-0.2954744327542869,-0.303193739115345,-0.28400488063834817,-0.29169537011389246,-0.3232766333798308,-0.3458782265510034,-0.30272417937562685,-0.30736917326526975,-0.32694419014167664,-0.3465102739362098,-0.36905843271476607,-0.4214860421100627,-0.426101955432667,-0.43072131761593885,-0.42638183819173386,-0.4280261194975269,-0.4446195626134274,-0.45823245673598473,-0.430014904063798,-0.4227138024580457,-0.4183922375974594,-0.4529014549938592,-0.4276214248543612,-0.417247434646297,-0.3948734326156054,-0.3515228796265367,-0.30511361292572176,-0.26161080468734843,-0.23893319911031866,-0.19523531477981884,-0.12751982888999522,-0.08956729952149306,-0.08435948149018026,-0.07005601737249939,-0.04665373185379409,-0.04403370072021666,-0.03231384892956889,-0.038390738334221026,-0.01744484913219532,0.0006351695809874347,-0.0319708429214328,-0.040566869723959745,-0.007235591119955332,-0.00968559983909461,-0.006097522246345544,-0.008442542710396838,0.00417684676518959,0.02277359500866891,0.08915879562969554,0.15848206499334647,0.30840875448882515,0.5060360546675838,0.7154692683385825,0.8679383161182584,1.0082209702007525,0.23680136851372582,-0.45129258690960816,-0.742357417058719,-0.7290886622712893,-0.6565519274093501,-0.5426763122091617,-0.40238009962249555,-0.26252282715684483,-0.2067408774822769,-0.169258884154443,-0.15303230661309197,-0.14607659991415362,-0.13939679965074506,-0.1479053111511739,-0.16260993277629318,-0.16555506653370833,-0.1477511483427863,-0.16893964593604663,-0.1872628618916333,-0.18477035420765103,-0.16741884468608603,-0.20093123897157894,-0.17472491343208982,-0.16946637525333935,-0.17916408475461282,-0.1948394993593329,-0.2284330301573364,-0.24407419900668323,-0.2776114958201198,-0.284211518160235,-0.31167734017144677,-0.30920043917330203,-0.30366734558118985,-0.32495338950702335,-0.35512246769170747,-0.34635644086303696,-0.3524380106698354,-0.3584204775249711,-0.3792399810321551,-0.3820209536584315,-0.40560604189077576,-0.4440143177084683,-0.4255234062381821,-0.42483283846267117,-0.4509000130313012,-0.43797550996992884,-0.41891915091778925,-0.40268295106981594,-0.3773011716730842,-0.3816084163602812,0.0,0.0,0.0,0.0,0.0,0.0,0.0,0.0,0.0,0.0,0.0,0.0,0.0,0.0,0.0,0.0,0.0,0.0,0.0,0.0,0.0,0.0,0.0,0.0,0.0,0.0,0.0,0.0,0.0,0.0,0.0,0.0,0.0,0.0,0.0,0.0,0.0,0.0,0.0,0.0,0.0,0.0,0.0,0.0,0.0,0.0,0.0,0.0,0.0,0.0,0.0,0.0,0.0,0.0,0.0,0.0,0.0,0.0,0.0,0.0,0.0,0.0,0.0,0.0,0.0,0.0,0.0,0.0,0.0,0.0,0.0,0.0,0.0,0.0,0.0,0.0,0.0,0.0,0.0,0.0,0.0,0.0,0.0,0.0,0.0,0.0,0.0,0.0,0.0,0.0,0.0,0.0,0.0,0.0,0.0,0.0,0.0,0.0,0.0,0.0,0.0,0.0,0.0,0.0,0.0,0.0,0.0,0.0,0.0,0.0,0.0,0.0,0.0,0.0,0.0,0.0,0.0,0.0,0.0,0.0,0.0,0.0,0.0,0.0,0.0,0.0,0.0,0.0,0.0,0.0,0.0,0.0,0.0,0.0,0.0,0.0,0.0,0.0,0.0,0.0,0.0,0.0,0.0,0.0,0.0,0.0,0.0,0.0,0.0,0.0,0.0,0.0,0.0,0.0,0.0,0.0,0.0,0.0,0.0,0.0,0.0,0.0,0.0,0.0,0.0,0.0,0.0,0.0,0.0,0.0,0.0,0.0,0.0,0.0,0.0
0.8579770758432252,0.6572885069268447,0.06858230745905797,-0.48127414666679413,-0.7493245472805602,-0.801298611557916,-0.26938117634865233,-0.11905030132820475,-0.0743962499914698,-0.04013532052232084,-0.026075887027034297,-0.025607060605772614,-0.03211923400558424,-0.022583609608702843,0.0030386946743198714,-0.007760256114006371,-0.002398788273635174,0.002737406375940473,0.004397615467514511,-0.01052258369297245,-0.009151719617645729,-0.01116519817069891,-0.03295569661288249,-0.05479220482244436,-0.03724039069847106,-0.03938990634034435,-0.021808783536815694,-0.014032261447924778,-0.0127559335044485,0.011596023967155237,0.019632094099275983,0.014652523343028415,-0.016464426393097545,-0.06713740926254996,-0.11436593476713294,-0.14500287336142528,-0.13933374595432008,-0.13347437327649703,-0.1339844375757279,-0.16056074523890573,-0.17050304220489096,-0.20321405541430432,-0.19957422518387838,-0.21869180314838776,-0.26712993715913635,-0.3021906705672341,-0.284460217971593,-0.28618213997718517,-0.28107695583337666,-0.2724216798268344,-0.26677742775693414,-0.2707053653409734,-0.26449397746609954,-0.2776932305864528,-0.2905917576451088,-0.3097509741146437,-0.2924700946832575,-0.27814810797587447,-0.26020571826219036,-0.23863184084001546,-0.2002791225202237,-0.12871633410963923,-0.09618321856729296,-0.08624972577536766,-0.06935035724160787,-0.058613828576616296,-0.07045401553669733,-0.05231992054083484,-0.030479882672254675,-0.0344874863120676,-0.051204342143126164,-0.0609251106948394,-0.04394560850122652,-0.05281284666274,-0.05140446705661224,-0.05942887233199583,-0.08674333552852927,-0.10708120098497766,-0.140154119546082,-0.1761177648364,-0.18870804738037958,-0.17136597836696538,-0.17007855540985178,-0.17171962363816362,-0.15331130520106986,-0.1772627423262743,-0.19432449709161098,-0.19137270087035624,-0.1914089690224547,-0.17802623361666864,-0.17422702015723524,-0.18659390168771206,-0.18886904343121028,-0.19092013325048693,-0.18619485233356978,-0.19441409826347414,-0.19917420609244205,-0.18078785595737884,-0.1885341364449792,-0.1830220827074807,-0.16755443257792604,-0.1520026105475984,-0.1528068051042725,-0.1502828131661587,-0.1805766924535955,-0.18131231516417806,-0.13937548570585978,-0.14674354982867074,-0.131189824873203,-0.09602248852545257,-0.06753913864677887,-0.0457655460430867,-0.02087627123740931,0.023521131790962824,0.04141999886560804,0.0951872669266231,0.25047234865895573,0.5072408713615657,0.7340920030986839,0.8653028611271951,0.9139637571256471,0.6862612873484636,0.18542175847495795,-0.2864807328721527,-0.5850109830212618,-0.6544039626527378,-0.5800819743638261,-0.45400017061775216,0.0,0.0,0.0,0.0,0.0,0.0,0.0,0.0,0.0,0.0,0.0,0.0,0.0,0.0,0.0,0.0,0.0,0.0,0.0,0.0,0.0,0.0,0.0,0.0,0.0,0.0,0.0,0.0,0.0,0.0,0.0,0.0,0.0,0.0,0.0,0.0,0.0,0.0,0.0,0.0,0.0,0.0,0.0,0.0,0.0,0.0,0.0,0.0,0.0,0.0,0.0,0.0,0.0,0.0,0.0,0.0,0.0,0.0,0.0,0.0,0.0,0.0,0.0,0.0,0.0,0.0,0.0,0.0,0.0,0.0,0.0,0.0,0.0,0.0,0.0,0.0,0.0,0.0,0.0,0.0,0.0,0.0,0.0,0.0,0.0,0.0,0.0,0.0,0.0,0.0,0.0,0.0,0.0,0.0,0.0,0.0,0.0,0.0,0.0,0.0,0.0,0.0,0.0,0.0,0.0,0.0,0.0,0.0,0.0,0.0,0.0,0.0,0.0,0.0,0.0,0.0,0.0,0.0,0.0,0.0,0.0,0.0,0.0,0.0,0.0,0.0,0.0,0.0,0.0,0.0,0.0,0.0,0.0,0.0,0.0,0.0,0.0,0.0,0.0,0.0,0.0,0.0,0.0,0.0,0.0,0.0,0.0,0.0,0.0,0.0,0.0,0.0,0.0,0.0,0.0,0.0,0.0,0.0,0.0,0.0,0.0,0.0,0.0,0.0,0.0,0.0,0.0,0.0,0.0,0.0,0.0,0.0,0.0
0.8047876498020612,0.6334164352267126,0.1496501897749809,-0.764795511713041,-0.6157166729317225,-0.4014914777173797,-0.2534653993345129,-0.15847242352600785,-0.10991487047640792,-0.09134339542095994,-0.10272999040271308,-0.10463846432006113,-0.10032675777293283,-0.10619007967992392,-0.10906769551166234,-0.12207251078403172,-0.10905687463325987,-0.1291126891231743,-0.12967349743988488,-0.11728731691337636,-0.12149159263063394,-0.10614269784504775,-0.11720018215753064,-0.10538572521799594,-0.10680829935209935,-0.11488452865802566,-0.11646372547645101,-0.11153241923639569,-0.10993025368807409,-0.10836134746125853,-0.0871102072049415,-0.11184867643803151,-0.13987444440622393,-0.15147471723631947,-0.15977836242088492,-0.1811989969763886,-0.20259399721330792,-0.1779802967617909,-0.1598980744433194,-0.1647629876213799,-0.16958216774140839,-0.171067903687224,-0.16921714332929497,-0.20672062455005794,-0.2244627101663895,-0.19288499525886393,-0.19080449536932442,-0.21165220699062734,-0.21601863590780637,-0.20718787499634858,-0.21800120290538158,-0.2418911359169801,-0.29527917643169216,-0.2763596140587091,-0.2705189230420576,-0.25805257197668374,-0.2455288478585727,-0.22637977996250466,-0.21045805630117434,-0.18134388604536497,-0.1718792611693988,-0.15579297127349012,-0.1429394021707008,-0.12346900350855794,-0.11052158636206548,-0.10081728213169829,-0.09764527137865421,-0.08130697850587516,-0.08136617478376688,-0.06498983442199807,-0.04860735989318421,-0.03879695613358948,-0.0027288586150015096,0.026743581725919934,0.09886798734965148,0.1807880631932745,0.27248655653927856,0.41006894228634827,0.6066492567758991,0.7800993227144819,0.897547940603541,1.0082209702007523,0.8624857382216041,0.27966911054491306,-0.6384756124851879,-0.6736056846997911,-0.4464376611002061,-0.2722301096292998,-0.14766881264907258,-0.06943960339729842,-0.017808514438175767,0.01710507222229318,0.022191787496190718,0.03688628268258225,0.03165569380077574,0.009806509124010487,0.014052785074734977,0.008288840108531656,-0.02060382551109709,-0.033199647052504375,-0.04918807647223651,-0.04885067330092618,-0.04859520673797806,-0.04512604452875154,-0.051569197824726604,-0.06134729494648179,-0.11386144659126009,-0.14670692773998592,-0.1467412791601712,-0.15336823804967573,-0.17971946095695196,-0.17981354193458404,-0.17663558075867136,-0.18660300042159172,-0.19986099379480704,-0.20327113788993223,-0.20668408653810064,-0.21666679436991076,-0.22336612026601682,-0.2399179158975885,-0.266321948646849,-0.2828736291057633,-0.29614120725220716,-0.3126928885693905,-0.3161069095277676,-0.3063791036293106,-0.3097748616890188,-0.29672768419731366,0.0,0.0,0.0,0.0,0.0,0.0,0.0,0.0,0.0,0.0,0.0,0.0,0.0,0.0,0.0,0.0,0.0,0.0,0.0,0.0,0.0,0.0,0.0,0.0,0.0,0.0,0.0,0.0,0.0,0.0,0.0,0.0,0.0,0.0,0.0,0.0,0.0,0.0,0.0,0.0,0.0,0.0,0.0,0.0,0.0,0.0,0.0,0.0,0.0,0.0,0.0,0.0,0.0,0.0,0.0,0.0,0.0,0.0,0.0,0.0,0.0,0.0,0.0,0.0,0.0,0.0,0.0,0.0,0.0,0.0,0.0,0.0,0.0,0.0,0.0,0.0,0.0,0.0,0.0,0.0,0.0,0.0,0.0,0.0,0.0,0.0,0.0,0.0,0.0,0.0,0.0,0.0,0.0,0.0,0.0,0.0,0.0,0.0,0.0,0.0,0.0,0.0,0.0,0.0,0.0,0.0,0.0,0.0,0.0,0.0,0.0,0.0,0.0,0.0,0.0,0.0,0.0,0.0,0.0,0.0,0.0,0.0,0.0,0.0,0.0,0.0,0.0,0.0,0.0,0.0,0.0,0.0,0.0,0.0,0.0,0.0,0.0,0.0,0.0,0.0,0.0,0.0,0.0,0.0,0.0,0.0,0.0,0.0,0.0,0.0,0.0,0.0,0.0,0.0,0.0,0.0,0.0,0.0,0.0,0.0,0.0,0.0,0.0,0.0,0.0,0.0,0.0,0.0,0.0,0.0,0.0,0.0,0.0
0.3164288221240914,0.10260864120022886,-0.4093853397183192,-0.8921520150828994,-0.6908431535142147,-0.472156699786162,-0.31572173136912024,-0.21561507371377334,-0.16296420303925724,-0.1547976734559314,-0.14979574727231537,-0.050590582648770505,-0.08726307748473928,-0.2243982839491892,-0.3616835611464256,-0.3958573755664426,-0.32100778267268154,-0.27577186451020225,-0.23358867332173322,-0.19739784269589453,-0.18783989636384238,-0.20490674726566166,-0.23384169639975302,-0.22448951877978404,-0.22994516866184847,-0.23840522110517146,-0.29116686588697127,-0.33512908871080854,-0.30244174670371216,-0.28750388039473085,-0.28441605499697187,-0.30792943181987203,-0.31969639546262946,-0.3285696042614637,-0.3434023229775537,-0.3405986476028879,-0.3555626726213317,-0.3469996306549271,-0.3473645696649836,-0.3684631788127994,-0.37785198239634477,-0.38143754919239287,-0.38807673915456936,-0.4007267588960351,-0.4488948593216411,-0.4676892756548922,-0.47776678170445286,-0.4761818097909687,-0.4865350773910628,-0.4675244962850084,-0.4545430144280379,-0.4003817433448497,-0.3758295273986719,-0.43987551183164136,-0.4568107826765622,-0.45317508563614306,-0.458456638150356,-0.41954318442264993,-0.4219696584095449,-0.3978723737075315,-0.37968690698588825,-0.36739931963085687,-0.3668959305607358,-0.3309638670672624,-0.318589745943257,-0.33566117453224104,-0.2907171796516269,-0.2663458709797289,-0.25663684362106703,-0.25273059032791495,-0.2398685745156089,-0.23869290721140266,-0.25804680288730275,-0.29792456086823343,-0.2963719090256573,-0.27993455641000203,-0.2869588372383979,-0.3321920867235068,-0.3064834379379756,-0.2835810507502745,-0.32838383092913764,-0.34354281710445467,-0.33790872996769644,-0.31443282634352915,-0.33506638901646113,-0.36736211655931666,-0.36117338394094517,-0.381402979889832,-0.4280546305182687,-0.43033294711471765,-0.391191993847119,-0.36373547213268553,-0.36861760150749207,-0.3586435505511506,-0.3544682868482408,-0.3560973609637311,-0.339936951789471,-0.32369332005502965,-0.27492364770508226,-0.2585348956089559,-0.2509355890298429,-0.25508494523184366,-0.24149340087994428,-0.19247222424065222,-0.14933319161696218,-0.09143983573130127,-0.024706927315524714,0.10394852578730966,0.2709080705863218,0.4437006028515829,0.566251654667253,0.6267319676549575,0.4658084707797239,0.04509175116274346,-0.8921103272313373,-0.6525585055874134,-0.3424974456476288,-0.3070580226323241,-0.29252657162651274,-0.2693882375989413,-0.24647858968019573,-0.28868359003333804,-0.2720917394264415,-0.1996412478991594,-0.23356984855008375,-0.3060183898519382,-0.301929148857896,-0.30684341346440525,-0.3207538764641015,-0.33185399922017794,-0.34013774635269317,-0.3160998728203682,-0.2833351973370293,0.0,0.0,0.0,0.0,0.0,0.0,0.0,0.0,0.0,0.0,0.0,0.0,0.0,0.0,0.0,0.0,0.0,0.0,0.0,0.0,0.0,0.0,0.0,0.0,0.0,0.0,0.0,0.0,0.0,0.0,0.0,0.0,0.0,0.0,0.0,0.0,0.0,0.0,0.0,0.0,0.0,0.0,0.0,0.0,0.0,0.0,0.0,0.0,0.0,0.0,0.0,0.0,0.0,0.0,0.0,0.0,0.0,0.0,0.0,0.0,0.0,0.0,0.0,0.0,0.0,0.0,0.0,0.0,0.0,0.0,0.0,0.0,0.0,0.0,0.0,0.0,0.0,0.0,0.0,0.0,0.0,0.0,0.0,0.0,0.0,0.0,0.0,0.0,0.0,0.0,0.0,0.0,0.0,0.0,0.0,0.0,0.0,0.0,0.0,0.0,0.0,0.0,0.0,0.0,0.0,0.0,0.0,0.0,0.0,0.0,0.0,0.0,0.0,0.0,0.0,0.0,0.0,0.0,0.0,0.0,0.0,0.0,0.0,0.0,0.0,0.0,0.0,0.0,0.0,0.0,0.0,0.0,0.0,0.0,0.0,0.0,0.0,0.0,0.0,0.0,0.0,0.0,0.0,0.0,0.0,0.0,0.0,0.0,0.0,0.0,0.0,0.0,0.0,0.0,0.0,0.0,0.0,0.0,0.0,0.0,0.0,0.0,0.0,0.0,0.0,0.0,0.0,0.0
0.5365408294738985,0.29136931495610313,-0.2445178491086392,-0.679540824220588,-0.8193936024342036,-0.7105281090055207,-0.3413298637934394,-0.1904320995837671,-0.11273627059340742,-0.06178127388743069,-0.03172227424952462,-0.010913708070021804,-0.010920215445245811,0.00020805392965791465,-0.01230553006326211,-0.019415615486546668,-0.015287151192447718,-0.0027899603703283697,-0.019608464812896378,-0.03960508926737769,-0.03374281913212279,-0.04841421134522325,-0.05168428013282107,-0.06674001995214557,-0.05584726192377994,-0.0596023512138294,-0.05187829247597455,-0.055867858293414153,-0.07445775146872555,-0.07862427235429591,-0.10316880585720373,-0.12777359520878975,-0.15242965193329228,-0.1713269291999882,-0.19316174580595216,-0.20632375352445353,-0.21080768791565566,-0.23852084977962051,-0.26334965914315944,-0.2881918621070663,-0.3101434685368539,-0.3263007842126078,-0.33085922289052044,-0.34992616368152907,-0.3602907392069496,-0.3474450742476447,-0.34329731745499964,-0.35364590717822564,-0.34657528580817887,-0.3510919417674547,-0.3613894293108866,-0.3658587932017623,-0.35579082499181164,-0.37179288931859256,-0.3761424404233424,-0.36012539463095267,-0.3440357171426135,-0.2988478327834267,-0.2477555903216173,-0.22845847206230396,-0.20903058207610375,-0.19816171354124398,-0.17263049137214279,-0.1730400065180992,-0.16456619095853622,-0.17330849013585772,-0.19055432537018008,-0.17277905014783565,-0.15768899110958695,-0.15107948789004735,-0.17615329763536697,-0.17778504809640244,-0.17337717764227475,-0.17743189441031318,-0.1754414947214952,-0.16450343733294912,-0.1649246661116913,-0.18250764837926173,-0.18824282554253674,-0.17923116696794747,-0.17288198494472423,-0.16339680703666837,-0.19139528415849638,-0.19886132897999215,-0.22351521402274904,-0.21894668714299212,-0.21417414818606326,-0.23821663913775257,-0.2620723043782984,-0.2683441468003663,-0.2947560812372436,-0.3152086977058035,-0.32681147475987443,-0.3382783645054194,-0.3438180309627378,-0.32893594909288626,-0.3255548625276061,-0.3336857471079951,-0.327229984150809,-0.33230843066577814,-0.3402291062213782,-0.3539044184395549,-0.3704446543097367,-0.35794869870104495,-0.3483369648137977,-0.36482562678442404,-0.3552027346501839,-0.3513859478501924,-0.3504792440023476,-0.3669926887459019,-0.3777220364500679,-0.3797687250454623,-0.37893454401433496,-0.3462052672486313,-0.33669493769501496,-0.32718849327595917,-0.33218494165878404,-0.35167800054005366,-0.3305409781372475,-0.32678882289854017,0.0,0.0,0.0,0.0,0.0,0.0,0.0,0.0,0.0,0.0,0.0,0.0,0.0,0.0,0.0,0.0,0.0,0.0,0.0,0.0,0.0,0.0,0.0,0.0,0.0,0.0,0.0,0.0,0.0,0.0,0.0,0.0,0.0,0.0,0.0,0.0,0.0,0.0,0.0,0.0,0.0,0.0,0.0,0.0,0.0,0.0,0.0,0.0,0.0,0.0,0.0,0.0,0.0,0.0,0.0,0.0,0.0,0.0,0.0,0.0,0.0,0.0,0.0,0.0,0.0,0.0,0.0,0.0,0.0,0.0,0.0,0.0,0.0,0.0,0.0,0.0,0.0,0.0,0.0,0.0,0.0,0.0,0.0,0.0,0.0,0.0,0.0,0.0,0.0,0.0,0.0,0.0,0.0,0.0,0.0,0.0,0.0,0.0,0.0,0.0,0.0,0.0,0.0,0.0,0.0,0.0,0.0,0.0,0.0,0.0,0.0,0.0,0.0,0.0,0.0,0.0,0.0,0.0,0.0,0.0,0.0,0.0,0.0,0.0,0.0,0.0,0.0,0.0,0.0,0.0,0.0,0.0,0.0,0.0,0.0,0.0,0.0,0.0,0.0,0.0,0.0,0.0,0.0,0.0,0.0,0.0,0.0,0.0,0.0,0.0,0.0,0.0,0.0,0.0,0.0,0.0,0.0,0.0,0.0,0.0,0.0,0.0,0.0,0.0,0.0,0.0,0.0,0.0,0.0,0.0,0.0,0.0,0.0,0.0,0.0,0.0,0.0,0.0,0.0,0.0,0.0
0.7898002137582022,0.6044681833431839,-0.12361698608400973,-0.840401986488995,-0.8177699378002571,-0.2210892019352568,-0.14112739282983705,-0.10497161659339044,-0.07777281581787494,-0.05949608327626677,-0.047206781570912085,-0.058279259960667615,-0.04336457039436761,-0.03724647753103754,-0.0195897806524749,-0.0222802369297985,-0.019183678850413336,-0.018980502539640218,-0.021649510536985224,-0.012665756451152303,-0.04132964248674062,-0.05540550807823486,-0.031670004690138844,-0.0600432926702544,-0.06798673278589869,-0.08740193695746026,-0.09217035043685284,-0.10839412558801481,-0.11285836172962566,-0.11716229124883788,-0.14451063183661814,-0.1687909231789699,-0.19000142290653427,-0.19943804702791582,-0.2203093584032709,-0.2207041741481445,-0.2586453702986506,-0.2703111726656572,-0.278912596120107,-0.29895780630965885,-0.30434021666678873,-0.2979642645131722,-0.30014107142589413,-0.3311820060346006,-0.3417727968070306,-0.36092836404651535,-0.3828507179010688,-0.36402656458226046,-0.35087266368072834,-0.32598047289770193,-0.3067540558003697,-0.28448787930352704,-0.2504766134255743,-0.18441092989766059,-0.15301433035479337,-0.11857231675556432,-0.09849184828905741,-0.06956593363057023,-0.06080823311786832,-0.06642085796771595,-0.025486866801335835,-0.01634247567041168,-0.004183461029222799,0.03708951096514173,0.07555249459031936,0.0763785436220742,0.07726555171068153,0.10430498101807634,0.1139602941741166,0.1236153371990014,0.14194841489627025,0.1718333207580237,0.25675649618649,0.32125758114558534,0.43782818214503244,0.6006274516610276,0.7718987561701889,0.8761667057923413,0.9597955978579035,1.0082209702007523,0.7631812576463721,0.08825340061977217,-0.7700488934168251,-0.8051316118681826,-0.6900848545696948,-0.47712450384438654,-0.24744466636223703,-0.11994113891480415,-0.07425846528332998,-0.032020762808551116,-0.019292328908412766,-0.0157217868839743,-0.03577233861375066,-0.050392671534685844,-0.05954381290026147,-0.06318827487448576,-0.061290008776185824,-0.050913308676263806,-0.05813468087380896,-0.059713784907860286,-0.05562035196141466,-0.0632320206050373,-0.05931279365533083,-0.07864965825137336,-0.0864051655117249,-0.09125938288705959,-0.1309044644804552,-0.13279287411543872,-0.12011373792144496,-0.12185941129829157,-0.13221044778577368,-0.13374421577877446,-0.1496542540199087,-0.15381684033720558,-0.18973511749174174,-0.24289163242558126,-0.23784707848995507,-0.23261226775181396,-0.24748454357094815,-0.2795531976762154,0.0,0.0,0.0,0.0,0.0,0.0,0.0,0.0,0.0,0.0,0.0,0.0,0.0,0.0,0.0,0.0,0.0,0.0,0.0,0.0,0.0,0.0,0.0,0.0,0.0,0.0,0.0,0.0,0.0,0.0,0.0,0.0,0.0,0.0,0.0,0.0,0.0,0.0,0.0,0.0,0.0,0.0,0.0,0.0,0.0,0.0,0.0,0.0,0.0,0.0,0.0,0.0,0.0,0.0,0.0,0.0,0.0,0.0,0.0,0.0,0.0,0.0,0.0,0.0,0.0,0.0,0.0,0.0,0.0,0.0,0.0,0.0,0.0,0.0,0.0,0.0,0.0,0.0,0.0,0.0,0.0,0.0,0.0,0.0,0.0,0.0,0.0,0.0,0.0,0.0,0.0,0.0,0.0,0.0,0.0,0.0,0.0,0.0,0.0,0.0,0.0,0.0,0.0,0.0,0.0,0.0,0.0,0.0,0.0,0.0,0.0,0.0,0.0,0.0,0.0,0.0,0.0,0.0,0.0,0.0,0.0,0.0,0.0,0.0,0.0,0.0,0.0,0.0,0.0,0.0,0.0,0.0,0.0,0.0,0.0,0.0,0.0,0.0,0.0,0.0,0.0,0.0,0.0,0.0,0.0,0.0,0.0,0.0,0.0,0.0,0.0,0.0,0.0,0.0,0.0,0.0,0.0,0.0,0.0,0.0,0.0,0.0,0.0,0.0,0.0,0.0,0.0,0.0,0.0,0.0,0.0,0.0,0.0,0.0,0.0,0.0,0.0,0.0,0.0,0.0,0.0
0.85157266395165,0.614366519084977,-0.0020830310769092758,-0.5740842233447498,-0.8883252742629206,-0.7885760940858819,-0.38303125393706283,-0.23365986290415727,-0.14807201271769396,-0.0781377467940275,-0.032830795686139905,-0.03615328210537539,-0.036973851778490954,-0.035254590784010824,-0.042980779989038945,-0.060117678131510324,-0.07761588637850142,-0.04735723074917104,-0.02641402770804713,-0.02377367280620702,-0.054436002803914904,-0.06728363233023273,-0.05928712176313001,-0.08752652574836285,-0.10689966096215789,-0.144435349891089,-0.1520285676928164,-0.12365097889865834,-0.1344211409078409,-0.1662912608985461,-0.18618762489777874,-0.2121293085944174,-0.21404977261191846,-0.23701826355942804,-0.2569804513451343,-0.27993661957928756,-0.30587672749218,-0.3287802951533039,-0.33361087058155564,-0.3474077694447629,-0.35513476160761726,-0.3748150818785993,-0.34933671864783983,-0.3327855419906154,-0.3401772007390832,-0.3414463988596494,-0.3365819382260969,-0.32256727719176914,-0.3474778123184964,-0.36321619217631673,-0.35774993311809977,-0.3160402138846247,-0.2921720714413538,-0.26810105291132813,-0.24381543059358463,-0.21629849999345033,-0.19155031400768202,-0.1605445949950641,-0.1262774872206501,-0.10076230869510075,-0.1050297225102229,-0.11503060700823955,-0.11873869504060049,-0.10412891120653238,-0.09223678839442333,-0.09808829937040385,-0.1006458843463925,-0.06685164723659529,-0.05982185768282743,-0.07054454142731605,-0.09301459519306861,-0.08215808842085864,-0.06503206892145943,-0.08672735975155511,-0.10818493640910559,-0.11138492998088186,-0.11737893899012354,-0.10213872409737963,-0.10475069294370938,-0.08015122007817238,-0.06442380930710967,-0.07261550825677597,-0.06868295511782524,0.00445363042061588,0.08666188080236814,0.18693191265519532,0.3382948679106998,0.5226873327227429,0.857285578386592,0.8852294867119841,0.5523769135403683,-0.14432862411768646,-0.6910187894848163,-0.6760099994760809,-0.49303465005779046,-0.33443247368152096,-0.23023816340264672,-0.19245408787944457,-0.14292113580248095,-0.13571874081999555,-0.14077609957616954,-0.13703970659006262,-0.11547873215807568,-0.13618770163179572,-0.12401918635340362,-0.13305918076542758,-0.15127595595162574,-0.17565509416843442,-0.17913996267926777,-0.18576667159024673,-0.18050196074815228,-0.17836743995978696,-0.1913801802337049,-0.19248788618173365,-0.17267149155115247,-0.17700999195724423,-0.21151304509830735,-0.21607232035984208,-0.22975850170841017,-0.24656191181093104,-0.26948970101039776,-0.2714955218484881,-0.26159828459026857,-0.2578335184917793,-0.29626963085398955,-0.31980800784412716,0.0,0.0,0.0,0.0,0.0,0.0,0.0,0.0,0.0,0.0,0.0,0.0,0.0,0.0,0.0,0.0,0.0,0.0,0.0,0.0,0.0,0.0,0.0,0.0,0.0,0.0,0.0,0.0,0.0,0.0,0.0,0.0,0.0,0.0,0.0,0.0,0.0,0.0,0.0,0.0,0.0,0.0,0.0,0.0,0.0,0.0,0.0,0.0,0.0,0.0,0.0,0.0,0.0,0.0,0.0,0.0,0.0,0.0,0.0,0.0,0.0,0.0,0.0,0.0,0.0,0.0,0.0,0.0,0.0,0.0,0.0,0.0,0.0,0.0,0.0,0.0,0.0,0.0,0.0,0.0,0.0,0.0,0.0,0.0,0.0,0.0,0.0,0.0,0.0,0.0,0.0,0.0,0.0,0.0,0.0,0.0,0.0,0.0,0.0,0.0,0.0,0.0,0.0,0.0,0.0,0.0,0.0,0.0,0.0,0.0,0.0,0.0,0.0,0.0,0.0,0.0,0.0,0.0,0.0,0.0,0.0,0.0,0.0,0.0,0.0,0.0,0.0,0.0,0.0,0.0,0.0,0.0,0.0,0.0,0.0,0.0,0.0,0.0,0.0,0.0,0.0,0.0,0.0,0.0,0.0,0.0,0.0,0.0,0.0,0.0,0.0,0.0,0.0,0.0,0.0,0.0,0.0,0.0,0.0,0.0,0.0,0.0,0.0,0.0,0.0,0.0,0.0,0.0,0.0,0.0,0.0,0.0,0.0,0.0,0.0
0.23682797484412177,0.44115760811445015,0.6392443256720078,0.33251005213673396,-0.22225724615288522,-0.689714452426221,-0.5653160044443082,-0.4231542884610716,-0.329692336081106,-0.3121073558211522,-0.27369583415401666,-0.24767828279263715,-0.23403929258822811,-0.24787140825787823,-0.26498848385968055,-0.24005451787209453,-0.24557183344811082,-0.28757067664568714,-0.3086306728811613,-0.302697010454657,-0.3029943990901419,-0.2974255464840188,-0.28597935357799326,-0.2777094583633465,-0.3088631973518403,-0.3492156416855014,-0.3201983456078672,-0.3184889636610275,-0.3078200236931203,-0.36069765860444475,-0.35927473973314644,-0.34584219534869737,-0.3294541672698248,-0.35542264864149814,-0.3542433638755661,-0.32892755828143905,-0.3127013184089462,-0.25116782106775243,-0.22891871745781053,-0.32752469095731596,-0.32338716436921955,-0.2890131308493805,-0.3210816109950948,-0.31685400575599887,-0.2884082762506338,-0.29616631602469107,-0.3189702795600873,-0.2963833200446265,-0.285806645431665,-0.3114054293754062,-0.3097221513944529,-0.3411803516771911,-0.3544088843789557,-0.34335893041051246,-0.35938986745535395,-0.34508770302001673,-0.31253210458282155,-0.3221465308807523,-0.3074523203680261,-0.2865725259432652,-0.3048237916607383,-0.3017711593697704,-0.29251701985781786,-0.27101363883394747,-0.26142843187936543,-0.2758432954044616,-0.25684645781503307,-0.24673551367740998,-0.24550776882311065,-0.26222551958339274,-0.2968871546880382,-0.24978255047689724,-0.24781317391063823,-0.2607638450150331,-0.24935546468735154,-0.22265314670281766,-0.2108729183966,-0.2472529499354621,-0.20489347505944036,-0.15933469398049344,-0.21935387894043287,-0.25201055436573416,-0.24824576561040862,-0.23525887851291413,-0.20399198126033802,-0.23301079496242466,-0.2830439152667381,-0.27554125230433507,-0.24676946656365595,-0.24810303308416826,-0.25537986411559327,-0.2686102757697454,-0.23643985063662554,-0.18003021727195492,-0.22025256740921167,-0.32690476268862245,-0.3338185537453631,-0.30143713174738795,-0.29926824294719073,-0.27898202090933266,-0.2798719120742098,-0.3261243198295014,-0.35430298310095293,-0.3493155268898896,-0.33837035329992005,-0.3124180814344759,-0.2956457350424511,-0.36964874459948177,-0.3924330154506023,-0.3881846275989846,-0.4082794053606637,-0.3651016987619307,-0.4248353997341533,-0.40921420407787124,0.0,0.0,0.0,0.0,0.0,0.0,0.0,0.0,0.0,0.0,0.0,0.0,0.0,0.0,0.0,0.0,0.0,0.0,0.0,0.0,0.0,0.0,0.0,0.0,0.0,0.0,0.0,0.0,0.0,0.0,0.0,0.0,0.0,0.0,0.0,0.0,0.0,0.0,0.0,0.0,0.0,0.0,0.0,0.0,0.0,0.0,0.0,0.0,0.0,0.0,0.0,0.0,0.0,0.0,0.0,0.0,0.0,0.0,0.0,0.0,0.0,0.0,0.0,0.0,0.0,0.0,0.0,0.0,0.0,0.0,0.0,0.0,0.0,0.0,0.0,0.0,0.0,0.0,0.0,0.0,0.0,0.0,0.0,0.0,0.0,0.0,0.0,0.0,0.0,0.0,0.0,0.0,0.0,0.0,0.0,0.0,0.0,0.0,0.0,0.0,0.0,0.0,0.0,0.0,0.0,0.0,0.0,0.0,0.0,0.0,0.0,0.0,0.0,0.0,0.0,0.0,0.0,0.0,0.0,0.0,0.0,0.0,0.0,0.0,0.0,0.0,0.0,0.0,0.0,0.0,0.0,0.0,0.0,0.0,0.0,0.0,0.0,0.0,0.0,0.0,0.0,0.0,0.0,0.0,0.0,0.0,0.0,0.0,0.0,0.0,0.0,0.0,0.0,0.0,0.0,0.0,0.0,0.0,0.0,0.0,0.0,0.0,0.0,0.0,0.0,0.0,0.0,0.0,0.0,0.0,0.0,0.0,0.0,0.0,0.0,0.0,0.0,0.0,0.0,0.0,0.0,0.0,0.0,0.0,0.0,0.0,0.0
0.8878559036954524,0.7496039927620789,0.24063822023176365,-0.8648460368506788,-0.6977748875628043,-0.4591060656066579,-0.26921082350336467,-0.1370801744965502,-0.06267566149325889,-0.018870696567534435,0.015440311575963636,0.016213209419528554,0.02862962769190792,0.02563229516477501,0.037350111476567534,0.04876200893771698,0.056884744248838784,0.04368385971674821,0.04831092723944155,0.022629045113202625,0.0027763658190783002,-0.020258910473639924,-0.02840115204536153,-0.021635483323976513,-0.04509672589814497,-0.047604750006600256,-0.0532279081537514,-0.05292709567157408,-0.052713912336258696,-0.05860122958088631,-0.06757353098651214,-0.0856462039952451,-0.09174685274941027,-0.10995249232684304,-0.11317313877276687,-0.12247798439475102,-0.13786798391909755,-0.1382758079666129,-0.12671406897677231,-0.1302753191685989,-0.1640134660500298,-0.17074601744611614,-0.18057791629699313,-0.21157524067196756,-0.2366563991689717,-0.22573039194382508,-0.2420130647693213,-0.2524042915937843,-0.2508932543170798,-0.27962759884242316,-0.2844388734342485,-0.30747514397624237,-0.32767696642626615,-0.33602442359161316,-0.3385450928141521,-0.3623330266784524,-0.35923213408332927,-0.35331837644372116,-0.3506034565271638,-0.339035380260765,-0.32160747008964946,-0.29830014279453826,-0.27210233885977125,-0.2550327041361748,-0.23202107853075266,-0.2060568842290213,-0.18313980646175007,-0.18130958390076546,-0.167438499220514,-0.15354776771405187,-0.13059009576636613,-0.11359805318219311,-0.11459520624988147,-0.09142812611088875,-0.08622117925477775,-0.09595150844868766,-0.10856770107139752,-0.11502928789478992,-0.1273660011525527,-0.14857887364947037,-0.16662040336130293,-0.17847354223664308,-0.19015160598926723,-0.19261911996622197,-0.19189062934027942,-0.19398125248098078,-0.18985725030570144,-0.18553488440931007,-0.19606066396762473,-0.1883235170419707,-0.20446009913965793,-0.22340003641895334,-0.21805369531344174,-0.2094900512813332,-0.1886796572219553,-0.19174185775090916,-0.19459885321232936,-0.17919319524998514,-0.20271517026268407,-0.2079800043610831,-0.2040209572544602,-0.20890144561927196,-0.2226260811698928,-0.2421900805475596,-0.2615791966971946,-0.2597300736142985,-0.26373777342319604,-0.2705987273074379,-0.27128981033752136,-0.27183751517406246,-0.26321908002960703,-0.2785503362373777,-0.26366061643751915,-0.25768588941746445,-0.26364369965460327,-0.28455183948924667,-0.2933294507528015,-0.2899847705343424,-0.28957553985944595,-0.3041496992639269,-0.3156564091154947,-0.3090547321840085,-0.3084314625930675,-0.3228237895303256,-0.3191303747336058,-0.3154164778264414,-0.3267363437434883,-0.3229951395348462,-0.3192444847271206,-0.32451473014710525,-0.33278565365915763,-0.32599584635016027,-0.31317045594939513,-0.29731307641918503,-0.29346628751664683,-0.2805540764265544,0.0,0.0,0.0,0.0,0.0,0.0,0.0,0.0,0.0,0.0,0.0,0.0,0.0,0.0,0.0,0.0,0.0,0.0,0.0,0.0,0.0,0.0,0.0,0.0,0.0,0.0,0.0,0.0,0.0,0.0,0.0,0.0,0.0,0.0,0.0,0.0,0.0,0.0,0.0,0.0,0.0,0.0,0.0,0.0,0.0,0.0,0.0,0.0,0.0,0.0,0.0,0.0,0.0,0.0,0.0,0.0,0.0,0.0,0.0,0.0,0.0,0.0,0.0,0.0,0.0,0.0,0.0,0.0,0.0,0.0,0.0,0.0,0.0,0.0,0.0,0.0,0.0,0.0,0.0,0.0,0.0,0.0,0.0,0.0,0.0,0.0,0.0,0.0,0.0,0.0,0.0,0.0,0.0,0.0,0.0,0.0,0.0,0.0,0.0,0.0,0.0,0.0,0.0,0.0,0.0,0.0,0.0,0.0,0.0,0.0,0.0,0.0,0.0,0.0,0.0,0.0,0.0,0.0,0.0,0.0,0.0,0.0,0.0,0.0,0.0,0.0,0.0,0.0,0.0,0.0,0.0,0.0,0.0,0.0,0.0,0.0,0.0,0.0,0.0,0.0,0.0,0.0,0.0,0.0,0.0,0.0,0.0,0.0,0.0,0.0,0.0,0.0,0.0,0.0,0.0,0.0,0.0,0.0,0.0,0.0,0.0,0.0,0.0,0.0,0.0
0.7895870855849144,0.2771437233070899,-0.3592463840771938,-0.7409784215208953,-0.8050143515578753,-0.6896413285675801,-0.5571468271955357,-0.37142976678552625,-0.20756962685067798,-0.07753070521730186,-0.017321254278440983,0.02120038362476713,0.029071525260764834,0.048419468712630566,0.04623452007358417,0.037591427466799374,0.0375629409420377,0.05821445250185467,0.07554456116220734,0.05953900158746477,0.05231104036054239,0.050890831629683324,0.05531190427637427,0.03555173393456341,0.009672203805975345,0.01677107475765082,0.011793003095608873,0.012794261344076194,-0.02227876762368422,-0.036303226561052476,-0.05029839664905983,-0.06424732212861879,-0.11119399773129522,-0.11298394585035365,-0.11168002738015465,-0.16136791795316865,-0.2139507932678088,-0.2273435954622236,-0.2436132531205984,-0.25974627717110055,-0.29677295289049777,-0.30359435718282024,-0.3132631392873363,-0.30172953677646036,-0.3411168898639406,-0.3202192024719867,-0.3171709407623507,-0.35901488248421776,-0.3796264875659197,-0.3639725348547411,-0.3541199703929501,-0.34404828291931777,-0.300688262187539,-0.28113284028841073,-0.21925368201270068,-0.1781551505258303,-0.1428017967049454,-0.10416985393076442,-0.035204189340292825,-0.02005083412458112,-0.007614266837987318,0.008118319479636866,0.0511904220945032,0.09455187656304871,0.09912888283176034,0.08595346497206753,0.13315804510605336,0.17461349560333678,0.17724769122432432,0.18011554330329696,0.16216124625013115,0.12636955251022952,0.12681449103931822,0.13341640274535768,0.11609322756304147,0.10486853522937446,0.11473653216812768,0.11560808572073203,0.10444035134845725,0.10523676827464437,0.11795526110601098,0.20566492833901512,0.4254217054144844,0.27827914253527897,-0.38608633415128724,-0.6811373565008191,-0.6730462602770148,-0.5391541623126296,-0.40868536013300744,-0.28161416559545,-0.169931249320498,-0.10967086627272993,-0.09178714082243686,-0.0621543680475382,-0.05079944029025183,-0.04868046456142851,-0.03774085120775876,-0.03298496915624704,-0.025375540016399134,-0.01489309694145694,-0.0015198131077741178,-0.030320601965883823,-0.017129799130021717,-0.016031902218039504,-0.011988816746697844,-0.029034376434396957,-0.010058235846330291,0.008880829856416956,0.0067493448494115645,-0.03147717161822711,-0.030662905267210907,-0.053922198039019244,-0.05918189383742813,-0.11256484866928082,-0.13593603644843547,-0.14733453722153697,-0.1918491469591712,-0.2304184025608584,-0.2420140677167367,-0.23265714962905448,-0.2414286474123585,-0.29538855103923156,-0.304386685858815,-0.29848929474857977,-0.31377367193189265,-0.3472471446261198,0.0,0.0,0.0,0.0,0.0,0.0,0.0,0.0,0.0,0.0,0.0,0.0,0.0,0.0,0.0,0.0,0.0,0.0,0.0,0.0,0.0,0.0,0.0,0.0,0.0,0.0,0.0,0.0,0.0,0.0,0.0,0.0,0.0,0.0,0.0,0.0,0.0,0.0,0.0,0.0,0.0,0.0,0.0,0.0,0.0,0.0,0.0,0.0,0.0,0.0,0.0,0.0,0.0,0.0,0.0,0.0,0.0,0.0,0.0,0.0,0.0,0.0,0.0,0.0,0.0,0.0,0.0,0.0,0.0,0.0,0.0,0.0,0.0,0.0,0.0,0.0,0.0,0.0,0.0,0.0,0.0,0.0,0.0,0.0,0.0,0.0,0.0,0.0,0.0,0.0,0.0,0.0,0.0,0.0,0.0,0.0,0.0,0.0,0.0,0.0,0.0,0.0,0.0,0.0,0.0,0.0,0.0,0.0,0.0,0.0,0.0,0.0,0.0,0.0,0.0,0.0,0.0,0.0,0.0,0.0,0.0,0.0,0.0,0.0,0.0,0.0,0.0,0.0,0.0,0.0,0.0,0.0,0.0,0.0,0.0,0.0,0.0,0.0,0.0,0.0,0.0,0.0,0.0,0.0,0.0,0.0,0.0,0.0,0.0,0.0,0.0,0.0,0.0,0.0,0.0,0.0,0.0,0.0,0.0,0.0,0.0,0.0,0.0,0.0,0.0,0.0,0.0,0.0,0.0,0.0,0.0,0.0,0.0,0.0,0.0
0.7631812576463721,0.08825340061977217,-0.7700488934168251,-0.8051316118681826,-0.6900848545696948,-0.47712450384438654,-0.24744466636223703,-0.11994113891480415,-0.07425846528332998,-0.032020762808551116,-0.019292328908412766,-0.0157217868839743,-0.03577233861375066,-0.050392671534685844,-0.05954381290026147,-0.06318827487448576,-0.061290008776185824,-0.050913308676263806,-0.05813468087380896,-0.059713784907860286,-0.05562035196141466,-0.0632320206050373,-0.05931279365533083,-0.07864965825137336,-0.0864051655117249,-0.09125938288705959,-0.1309044644804552,-0.13279287411543872,-0.12011373792144496,-0.12185941129829157,-0.13221044778577368,-0.13374421577877446,-0.1496542540199087,-0.15381684033720558,-0.18973511749174174,-0.24289163242558126,-0.23784707848995507,-0.23261226775181396,-0.24748454357094815,-0.2795531976762154,-0.29109508308242243,-0.28500248643835757,-0.29027767941519067,-0.29820922919989135,-0.3000859884649164,-0.2959002902517644,-0.305952251308919,-0.286718525787732,-0.30781802398913727,-0.29671712865402183,-0.2882223129831216,-0.25911873985671824,-0.23551019698480313,-0.21449013155320448,-0.2076579409728234,-0.18019643619083134,-0.17561823761031684,-0.1620087688347679,-0.16547587585906337,-0.16861215880160066,-0.183021909079629,-0.16228874831479267,-0.16153485620829044,-0.1894660870045072,-0.19386658235830126,-0.189246071617979,-0.19011505167281856,-0.1993804973338851,-0.21124693516956491,-0.21701855353920702,-0.21090129962180282,-0.23642010144485062,-0.23556283308801862,-0.24315242517826333,-0.23308972561313024,-0.2169901197475744,-0.20066740800093766,-0.1957381990767159,-0.20221552249351,-0.2056077750506354,-0.2001273138849833,-0.197393674051062,-0.1916206577580857,-0.20313252074469512,-0.20583704663317007,-0.20265352206141765,-0.21390841043860423,-0.21931380425408376,-0.19568138514860747,-0.17784503867648377,-0.16872754887419697,-0.1712525474269222,-0.15063054291032238,-0.14750095720251058,-0.12997724139190037,-0.06037168957513445,0.10770555170477161,0.3191051645741504,0.41423674126204174,0.47139495239342666,0.3861027351683084,-0.02154909975325991,-0.9836928163466097,-0.4580170142546213,-0.3186053864933129,-0.2260084633944336,-0.19470845714972218,-0.16085907591074647,-0.1331417456715408,-0.12894205954594834,-0.1250315872868814,-0.11268838171301217,-0.1354110146067857,-0.13516149486740636,-0.11482553300201934,-0.12080607329070028,-0.1414856591510487,-0.14494041958113837,-0.14856584209202175,-0.14654980092305922,0.0,0.0,0.0,0.0,0.0,0.0,0.0,0.0,0.0,0.0,0.0,0.0,0.0,0.0,0.0,0.0,0.0,0.0,0.0,0.0,0.0,0.0,0.0,0.0,0.0,0.0,0.0,0.0,0.0,0.0,0.0,0.0,0.0,0.0,0.0,0.0,0.0,0.0,0.0,0.0,0.0,0.0,0.0,0.0,0.0,0.0,0.0,0.0,0.0,0.0,0.0,0.0,0.0,0.0,0.0,0.0,0.0,0.0,0.0,0.0,0.0,0.0,0.0,0.0,0.0,0.0,0.0,0.0,0.0,0.0,0.0,0.0,0.0,0.0,0.0,0.0,0.0,0.0,0.0,0.0,0.0,0.0,0.0,0.0,0.0,0.0,0.0,0.0,0.0,0.0,0.0,0.0,0.0,0.0,0.0,0.0,0.0,0.0,0.0,0.0,0.0,0.0,0.0,0.0,0.0,0.0,0.0,0.0,0.0,0.0,0.0,0.0,0.0,0.0,0.0,0.0,0.0,0.0,0.0,0.0,0.0,0.0,0.0,0.0,0.0,0.0,0.0,0.0,0.0,0.0,0.0,0.0,0.0,0.0,0.0,0.0,0.0,0.0,0.0,0.0,0.0,0.0,0.0,0.0,0.0,0.0,0.0,0.0,0.0,0.0,0.0,0.0,0.0,0.0,0.0,0.0,0.0,0.0,0.0,0.0,0.0,0.0,0.0,0.0,0.0,0.0,0.0,0.0,0.0,0.0,0.0,0.0,0.0,0.0,0.0,0.0,0.0,0.0,0.0,0.0,0.0
0.7349828438591637,0.3300589559715919,-0.348648816371789,-0.8834508444656655,-0.6763333319060452,-0.4546149320363936,-0.29341112558033794,-0.22274672811953117,-0.1824847594031061,-0.15155913380770494,-0.13895865207955305,-0.12061368898819426,-0.11152593287106191,-0.09964960719464479,-0.07895095107509299,-0.09749472968795558,-0.08613635597382195,-0.07791623073517683,-0.05478423677617085,-0.06481050438426302,-0.05989375477032191,-0.055047618967899205,-0.06829259863184138,-0.0815858488086301,-0.08289675636107946,-0.09626090539465285,-0.10965039416076167,-0.13207642883190052,-0.1394919991475796,-0.1439160396370589,-0.15736855427041466,-0.1888651911490796,-0.21135774016144496,-0.24287986160961036,-0.2894443131507591,-0.290945534779928,-0.295472800984646,-0.31204545696524066,-0.33165071832330656,-0.34527600733396485,-0.3318872421625298,-0.3455854612265115,-0.35030971473031614,-0.37611796201550607,-0.39897092036925896,-0.40384335655555403,-0.40575973810892635,-0.41673433537120425,-0.40670079797492326,-0.3756407887987493,-0.34757413077501825,-0.3104536938054712,-0.29731342466085914,-0.2690578082021124,-0.24669967340898583,-0.2181928357911804,-0.18351325701786916,-0.15766459064114224,-0.14062432360133226,-0.10532229271331911,-0.08479746235631283,-0.07301979573853336,-0.04592817984615952,-0.024543951306055387,-0.011857564869456992,0.02520371880242626,0.035559642136206174,0.04025773118125285,0.012257116259804312,0.0026554424253088307,0.0024404627596846746,0.014619762923853339,-0.005887301552498581,-0.02602273221863327,-0.012730268088116886,-0.011095767882343599,-0.006098729787041976,-0.000752782545454627,-0.013100307254270896,-0.025120609875997322,-0.036827116907956724,-0.04222408976672077,-0.053349791769629284,-0.0672170260681013,-0.06881848320838148,-0.06418610687719356,-0.05935326356965759,-0.05734936256191375,-0.03115125137202836,-0.03187774059274399,-0.014476349905139985,-1.5076666054814102e-05,0.0024580000056383606,-0.01009615945584871,0.004362674031736005,-0.0022890825470746855,0.017996101134288657,0.041134323404832265,0.0700884544155565,0.12585181088057415,0.2714912368205092,0.48291448760767125,0.681928936850751,0.8264026149562719,0.8441443438926919,0.5998435797401888,0.006270241984519392,-0.5549676184832064,-0.7984366510801186,-0.8203705594506309,-0.6989283477371863,-0.2717924008539565,-0.07987662292359862,0.009114988385952233,0.07337981048244058,0.10395671580940896,0.11592566852458998,0.10633192696578511,0.09626162845569496,0.09778240218880288,0.09290559725806984,0.06965111332214745,0.049096053692714275,0.03428298738952964,0.028252471051272567,0.0370485261901296,0.0,0.0,0.0,0.0,0.0,0.0,0.0,0.0,0.0,0.0,0.0,0.0,0.0,0.0,0.0,0.0,0.0,0.0,0.0,0.0,0.0,0.0,0.0,0.0,0.0,0.0,0.0,0.0,0.0,0.0,0.0,0.0,0.0,0.0,0.0,0.0,0.0,0.0,0.0,0.0,0.0,0.0,0.0,0.0,0.0,0.0,0.0,0.0,0.0,0.0,0.0,0.0,0.0,0.0,0.0,0.0,0.0,0.0,0.0,0.0,0.0,0.0,0.0,0.0,0.0,0.0,0.0,0.0,0.0,0.0,0.0,0.0,0.0,0.0,0.0,0.0,0.0,0.0,0.0,0.0,0.0,0.0,0.0,0.0,0.0,0.0,0.0,0.0,0.0,0.0,0.0,0.0,0.0,0.0,0.0,0.0,0.0,0.0,0.0,0.0,0.0,0.0,0.0,0.0,0.0,0.0,0.0,0.0,0.0,0.0,0.0,0.0,0.0,0.0,0.0,0.0,0.0,0.0,0.0,0.0,0.0,0.0,0.0,0.0,0.0,0.0,0.0,0.0,0.0,0.0,0.0,0.0,0.0,0.0,0.0,0.0,0.0,0.0,0.0,0.0,0.0,0.0,0.0,0.0,0.0,0.0,0.0,0.0,0.0,0.0,0.0,0.0,0.0,0.0,0.0,0.0,0.0,0.0,0.0,0.0,0.0,0.0,0.0,0.0,0.0,0.0,0.0,0.0,0.0,0.0,0.0,0.0,0.0,0.0,0.0
0.7391911011145854,0.38549021446179615,-0.23479242782918686,-0.8940146822249867,-0.7166922055346038,-0.5302851959698769,-0.3668506288864638,-0.25522435395282195,-0.1889637260875133,-0.14559102323032946,-0.10583663728518204,-0.1017464400829935,-0.10122482431512222,-0.1010418789098109,-0.11400481854709817,-0.11443654892758538,-0.11514704051674093,-0.12253332056016342,-0.13016518298454008,-0.1251994380128304,-0.13327987983103834,-0.1383587295846435,-0.1243894575291847,-0.13946962310184688,-0.1707623571094421,-0.16373914596733222,-0.17291540908047295,-0.19187194047500422,-0.19815486874302032,-0.2077969979058731,-0.23041777017344564,-0.2403589282738801,-0.23441298126896887,-0.24465172794153126,-0.24221198832639465,-0.22709556416883153,-0.24741211076300762,-0.26467919505584825,-0.2756936384493927,-0.3029100006454977,-0.3367119456543685,-0.3642763951723735,-0.36957335957231935,-0.410337238640207,-0.41601676887302597,-0.4379295437948921,-0.4407971616377084,-0.4406503043790953,-0.4470998863994425,-0.4248513491538475,-0.4059540630270365,-0.3871748561990652,-0.3909355320800447,-0.3658932118627452,-0.3569185707428515,-0.3351180746737364,-0.3036697532582954,-0.2657518760185088,-0.22775025291034098,-0.189636994093251,-0.17062784612464268,-0.16107523342678154,-0.1609540726120366,-0.17986182024594363,-0.18891132435363223,-0.18808073862021502,-0.1741420444103496,-0.1823539174739602,-0.18062606962107985,-0.1785620789544059,-0.169730819589287,-0.16053076143330255,-0.1445328681562251,-0.13775921919652118,-0.14019737047131584,-0.16145753443097197,-0.1758725620422487,-0.18664070195331767,-0.17771837931924775,-0.17475586415384994,-0.14888301774253634,-0.1385807518399845,-0.15025971656232354,-0.13901749225871327,-0.14013140532148366,-0.1407728534655851,-0.1505644521714421,-0.1759228852913786,-0.1879874233587063,-0.20600552190114568,-0.19149703309950677,-0.19257556299532663,-0.18679852364201582,-0.18058856918425442,-0.17716219201027084,-0.1765297538016142,-0.1594597862985812,-0.13558614356178414,-0.14020094404869643,-0.16049039469615528,-0.15798477075940176,-0.15835832601699767,-0.14559357728031605,-0.15498845745122697,-0.16411350805392025,-0.15054041117975686,-0.13353480641480922,-0.11632777978609307,-0.11818738152250959,-0.11027584662414243,-0.09582816739654376,-0.09732355991524205,-0.10837838716476098,-0.13223187084115845,-0.12081031388534652,-0.09980556887405256,-0.0884965132953092,-0.06767772183926189,-0.06304524804903298,-0.029739570576174865,0.04502579891162408,0.11630700301581745,0.20330090916524207,0.35406617720388694,0.581379958955527,0.7985942789315468,0.9799920614266227,0.45521452432292675,-0.19852519665662738,-0.6541753326879659,-0.7963564938677488,-0.7534064270859148,-0.6215521873122759,0.0,0.0,0.0,0.0,0.0,0.0,0.0,0.0,0.0,0.0,0.0,0.0,0.0,0.0,0.0,0.0,0.0,0.0,0.0,0.0,0.0,0.0,0.0,0.0,0.0,0.0,0.0,0.0,0.0,0.0,0.0,0.0,0.0,0.0,0.0,0.0,0.0,0.0,0.0,0.0,0.0,0.0,0.0,0.0,0.0,0.0,0.0,0.0,0.0,0.0,0.0,0.0,0.0,0.0,0.0,0.0,0.0,0.0,0.0,0.0,0.0,0.0,0.0,0.0,0.0,0.0,0.0,0.0,0.0,0.0,0.0,0.0,0.0,0.0,0.0,0.0,0.0,0.0,0.0,0.0,0.0,0.0,0.0,0.0,0.0,0.0,0.0,0.0,0.0,0.0,0.0,0.0,0.0,0.0,0.0,0.0,0.0,0.0,0.0,0.0,0.0,0.0,0.0,0.0,0.0,0.0,0.0,0.0,0.0,0.0,0.0,0.0,0.0,0.0,0.0,0.0,0.0,0.0,0.0,0.0,0.0,0.0,0.0,0.0,0.0,0.0,0.0,0.0,0.0,0.0,0.0,0.0,0.0,0.0,0.0,0.0,0.0,0.0,0.0,0.0,0.0,0.0,0.0,0.0,0.0,0.0,0.0,0.0,0.0,0.0,0.0,0.0,0.0,0.0,0.0,0.0,0.0,0.0,0.0,0.0,0.0,0.0,0.0,0.0,0.0,0.0,0.0,0.0
1.0082209702007523,0.7851944036143623,0.19885417331711983,-0.6602368382385687,-0.7588154944516046,-0.7072769230652675,-0.632540387041875,-0.49228852088603253,-0.26230644109493656,-0.057354431685263794,0.0501075393610378,0.07826253997654171,0.07550645589868747,0.10231894565483644,0.10436112466311005,0.11189337780928467,0.08567966319640405,0.0710831605230062,0.06814258843212422,0.06480860193369045,0.04600825922736703,0.011773942612418771,-0.004627643270632863,-0.015253885308168413,-0.0170564991057395,-0.0402252204967,-0.05754327532943566,-0.05690288058351747,-0.09569187049924993,-0.12856910950021025,-0.13738811196787168,-0.1493257820953494,-0.1522808166726663,-0.16134629427818306,-0.17348739990357495,-0.18869176790637396,-0.21601238938442102,-0.2524171478740949,-0.28883165082718537,-0.31013904758710126,-0.3253946877162556,-0.3376111740591816,-0.36490867474426186,-0.35893479302156583,-0.3468732359062341,-0.3559072806974912,-0.34674759350593903,-0.3586632833796751,-0.3584078807264066,-0.3459708364712311,-0.37572793459981857,-0.35702376738147273,-0.3079743274607728,-0.3554687847534595,-0.35144149372187994,-0.33213723482264346,-0.3156718991222889,-0.2718177444186777,-0.24286283916727508,-0.22275192015232131,-0.19938731382121874,-0.20901574955894775,-0.22141208299147644,-0.22145931692331358,-0.22123447551580153,-0.1844715030511951,-0.14742062665647107,-0.1523758912384086,-0.1540093394982804,-0.17346667319502143,-0.195636787618327,-0.20238799874187455,-0.2088257408526319,-0.23307769239490167,-0.2358640629818091,-0.16581973273539527,-0.19516999347398842,-0.25442235677538677,-0.3103429389046399,-0.3568917124322618,-0.34572809371154917,-0.3010268804322999,-0.2741562700610918,-0.2983558227474983,-0.3131994946773884,-0.309626750994687,-0.3238995235030341,-0.31976435096989103,-0.36067689804211195,-0.36808325272260134,-0.36918084919802263,-0.3669939505155308,-0.3494379964310781,-0.35277097600457935,-0.3256278660035936,-0.33146004491776043,-0.34307451395502503,-0.35442877736037676,-0.3443729758636231,-0.300821700670113,-0.29931263033736577,-0.2794169295721831,-0.2502001714953241,-0.22677127228021823,-0.22726115319676563,-0.221457629076002,-0.20029953878046583,-0.19098419442176878,-0.16330148191135568,-0.16862217337676885,-0.17371644337575753,-0.14837687945253214,-0.14095555766616558,-0.10916106304897011,0.0,0.0,0.0,0.0,0.0,0.0,0.0,0.0,0.0,0.0,0.0,0.0,0.0,0.0,0.0,0.0,0.0,0.0,0.0,0.0,0.0,0.0,0.0,0.0,0.0,0.0,0.0,0.0,0.0,0.0,0.0,0.0,0.0,0.0,0.0,0.0,0.0,0.0,0.0,0.0,0.0,0.0,0.0,0.0,0.0,0.0,0.0,0.0,0.0,0.0,0.0,0.0,0.0,0.0,0.0,0.0,0.0,0.0,0.0,0.0,0.0,0.0,0.0,0.0,0.0,0.0,0.0,0.0,0.0,0.0,0.0,0.0,0.0,0.0,0.0,0.0,0.0,0.0,0.0,0.0,0.0,0.0,0.0,0.0,0.0,0.0,0.0,0.0,0.0,0.0,0.0,0.0,0.0,0.0,0.0,0.0,0.0,0.0,0.0,0.0,0.0,0.0,0.0,0.0,0.0,0.0,0.0,0.0,0.0,0.0,0.0,0.0,0.0,0.0,0.0,0.0,0.0,0.0,0.0,0.0,0.0,0.0,0.0,0.0,0.0,0.0,0.0,0.0,0.0,0.0,0.0,0.0,0.0,0.0,0.0,0.0,0.0,0.0,0.0,0.0,0.0,0.0,0.0,0.0,0.0,0.0,0.0,0.0,0.0,0.0,0.0,0.0,0.0,0.0,0.0,0.0,0.0,0.0,0.0,0.0,0.0,0.0,0.0,0.0,0.0,0.0,0.0,0.0,0.0,0.0,0.0,0.0,0.0,0.0,0.0,0.0,0.0,0.0,0.0,0.0,0.0,0.0,0.0,0.0,0.0,0.0,0.0
0.5958040355606002,0.04858500223751882,-0.5560450298711096,-0.9014025361638338,-0.8560625131852165,-0.5784144417600892,-0.4090895715670295,-0.27333717143455727,-0.20996008380211306,-0.1770791124441177,-0.13879260766464574,-0.10701213954122352,-0.10560368178111786,-0.11659925925932335,-0.1280089651624985,-0.13979740727378398,-0.14296589650480288,-0.14644664363562634,-0.14722023715879798,-0.148245129663716,-0.17937538838813613,-0.1838071661022971,-0.17047932765662765,-0.16924966835256297,-0.1830829704800905,-0.20598051325416367,-0.20505049986007404,-0.19222595811820786,-0.1824292362951722,-0.193572067226503,-0.2106966097240397,-0.20091664601853437,-0.1881237619207635,-0.2111518868824049,-0.23114158838851714,-0.23612872891426762,-0.2410443659764252,-0.2787499753035987,-0.310389907317463,-0.3180269681766544,-0.32854826662793285,-0.38079441887599685,-0.403041220091519,-0.4191886767437388,-0.4142896169555739,-0.4241971129386201,-0.4429287516848142,-0.44358387332086197,-0.4171890498101456,-0.4025805290296981,-0.4206650641905524,-0.41166672362193346,-0.3755744313789962,-0.3512244064582322,-0.34159407747510795,-0.30782570315148294,-0.28277994445866705,-0.26943551199329147,-0.25583054436286756,-0.22701567743336035,-0.2009131199302622,-0.17452828614857466,-0.18670318972400765,-0.21352780345979536,-0.1952342541343547,-0.1766444680518053,-0.17269898409883339,-0.18937480111309307,-0.1758733875089784,-0.16805662820348066,-0.16891686686913762,-0.17248295006865438,-0.13991421790288588,-0.11604226080318643,-0.11581755838365763,-0.11534484690687606,-0.11463638366581654,-0.09278818987711547,-0.07969806937585806,-0.11124195838625275,-0.10675571508676313,-0.0871772579794278,-0.0435635605415474,0.018085491411735783,0.16348614996818617,0.3836462159369203,0.5261345473239968,0.5729872672479106,0.6018597932903468,0.6246610691395235,0.34849336971932415,-0.22072118528378548,-0.7543332455314367,-0.7832466724731123,-0.5824078793868227,-0.43270517865936786,-0.3699748084380335,-0.34936893911157174,-0.2991457305798827,-0.2581289643255971,-0.28307252495817703,-0.29327157246739427,-0.26479870854346876,-0.26038643189536026,-0.2620852452593234,-0.26987594829493783,-0.262822370883453,-0.25285984553862617,-0.25192448572972703,-0.23908247874928196,-0.21133035112287313,-0.22543054165811477,-0.2514872592689966,-0.2685704326782264,-0.24379782571416986,-0.2309472227296322,-0.24793827657942105,-0.26487957034795057,-0.2459040412329125,-0.22088691099127894,-0.24361027197800586,-0.29315094139703773,-0.29180985147261956,-0.3113010953093039,-0.35162138687728167,-0.3679442192383401,0.0,0.0,0.0,0.0,0.0,0.0,0.0,0.0,0.0,0.0,0.0,0.0,0.0,0.0,0.0,0.0,0.0,0.0,0.0,0.0,0.0,0.0,0.0,0.0,0.0,0.0,0.0,0.0,0.0,0.0,0.0,0.0,0.0,0.0,0.0,0.0,0.0,0.0,0.0,0.0,0.0,0.0,0.0,0.0,0.0,0.0,0.0,0.0,0.0,0.0,0.0,0.0,0.0,0.0,0.0,0.0,0.0,0.0,0.0,0.0,0.0,0.0,0.0,0.0,0.0,0.0,0.0,0.0,0.0,0.0,0.0,0.0,0.0,0.0,0.0,0.0,0.0,0.0,0.0,0.0,0.0,0.0,0.0,0.0,0.0,0.0,0.0,0.0,0.0,0.0,0.0,0.0,0.0,0.0,0.0,0.0,0.0,0.0,0.0,0.0,0.0,0.0,0.0,0.0,0.0,0.0,0.0,0.0,0.0,0.0,0.0,0.0,0.0,0.0,0.0,0.0,0.0,0.0,0.0,0.0,0.0,0.0,0.0,0.0,0.0,0.0,0.0,0.0,0.0,0.0,0.0,0.0,0.0,0.0,0.0,0.0,0.0,0.0,0.0,0.0,0.0,0.0,0.0,0.0,0.0,0.0,0.0,0.0,0.0,0.0,0.0,0.0,0.0,0.0,0.0,0.0,0.0,0.0,0.0,0.0,0.0,0.0,0.0,0.0,0.0,0.0,0.0,0.0,0.0,0.0,0.0,0.0,0.0,0.0,0.0
1.0016525317845901,0.7502698762038278,0.10422412852741685,-0.4790491623955401,-0.6865910743262688,-0.6478797330773504,-0.5676043993212412,-0.25010702255985406,-0.12576128595387384,-0.05908242906508213,-0.025952412697463914,0.00376533518132713,0.024087337774002834,0.0500977711721728,0.03969130443111753,0.022998104423552126,0.01810705584019109,0.00397686293125141,-0.0043167545813692495,-0.01878861487695309,0.005732799463893054,-0.005977910819829364,-0.026811556764051267,-0.05072966381545992,-0.03557651735599813,-0.03250417801825875,-0.03848810139562271,-0.062544664286059,-0.07757294504006892,-0.10162154845136244,-0.10157215115057641,-0.13159417684301947,-0.15556147191729014,-0.15841796909141329,-0.18229620987569425,-0.20913174281741262,-0.21484096755861204,-0.20543964295776523,-0.21403297168537275,-0.21954870205709456,-0.24907323824853997,-0.2845451201100145,-0.2778043098352271,-0.29807647065747456,-0.29118205189149793,-0.2932381545103775,-0.3132729781448052,-0.3302159239442948,-0.3169760479638805,-0.3096678493246477,-0.2992566011039625,-0.2947666686381695,-0.28114336240675664,-0.2674111502144568,-0.2565748567250042,-0.24862961898047325,-0.23755105372446844,-0.21129529712831316,-0.15480894704215312,-0.1162467051558432,-0.07453663766649041,-0.05676595556248335,-0.0238055225592873,-0.008764739433616579,-0.014655555644166653,-0.00837277081897552,-0.007980724191387706,-0.013485928273597776,-0.018876618249992833,0.002926709840255009,0.030843928316257353,0.08894166144536994,0.15914642696705397,0.21134321418698532,0.32076072042604686,0.43019002823247454,0.5576662515154694,0.6429637586265103,0.7010997647503852,0.6297011464879001,0.18492505630962983,-0.45870176481138786,-0.804597142984079,-0.3832534989292087,-0.275207738206841,-0.2125602343413468,-0.16218269605641483,-0.12706594786625997,-0.11321142652226282,-0.11759180916360107,-0.12213130887330102,-0.11778474764254394,-0.11356719424800012,-0.10645511740186019,-0.1054655017058218,-0.11058667520353183,-0.1067585406121096,-0.11805051316527389,-0.12940448143880237,-0.1257632800482755,-0.13119916203684184,-0.13968641934084391,-0.1391804504766278,-0.15074624726186311,-0.1472914521718967,-0.14386290625909218,-0.1585181372691976,-0.16115730019335966,-0.16682959659856858,-0.1755355242662949,-0.19028616998067224,-0.20506361856574892,-0.2078307659905372,-0.2467487563638737,-0.2826925120430876,-0.28255703165065016,-0.28246483437922143,-0.28843969434589783,-0.30650550963597184,-0.3095775169875813,-0.3127093729195686,-0.33095451364166145,-0.3342175546539989,-0.33754916320708406,-0.33191835057250846,-0.3323703452725778,-0.3539480331412922,-0.34848429036102463,-0.3460646159212117,-0.3165728551931572,-0.284067130413645,-0.2545453578035505,-0.22196602210735558,-0.2103867402178965,-0.2017271394743826,-0.17790733157469094,0.0,0.0,0.0,0.0,0.0,0.0,0.0,0.0,0.0,0.0,0.0,0.0,0.0,0.0,0.0,0.0,0.0,0.0,0.0,0.0,0.0,0.0,0.0,0.0,0.0,0.0,0.0,0.0,0.0,0.0,0.0,0.0,0.0,0.0,0.0,0.0,0.0,0.0,0.0,0.0,0.0,0.0,0.0,0.0,0.0,0.0,0.0,0.0,0.0,0.0,0.0,0.0,0.0,0.0,0.0,0.0,0.0,0.0,0.0,0.0,0.0,0.0,0.0,0.0,0.0,0.0,0.0,0.0,0.0,0.0,0.0,0.0,0.0,0.0,0.0,0.0,0.0,0.0,0.0,0.0,0.0,0.0,0.0,0.0,0.0,0.0,0.0,0.0,0.0,0.0,0.0,0.0,0.0,0.0,0.0,0.0,0.0,0.0,0.0,0.0,0.0,0.0,0.0,0.0,0.0,0.0,0.0,0.0,0.0,0.0,0.0,0.0,0.0,0.0,0.0,0.0,0.0,0.0,0.0,0.0,0.0,0.0,0.0,0.0,0.0,0.0,0.0,0.0,0.0,0.0,0.0,0.0,0.0,0.0,0.0,0.0,0.0,0.0,0.0,0.0,0.0,0.0,0.0,0.0,0.0,0.0,0.0,0.0,0.0,0.0,0.0,0.0,0.0,0.0,0.0,0.0,0.0,0.0,0.0,0.0,0.0,0.0,0.0,0.0,0.0
0.5056457006303489,0.10018350320710556,-0.5176813185606144,-0.7951700757459266,-0.588885042472006,-0.4367139019332728,-0.29979582767396196,-0.2528218356890049,-0.24796526217609213,-0.27923578313004294,-0.27490241589696834,-0.2379411424952544,-0.24005843001969313,-0.2543493800920837,-0.23299223468997154,-0.21482532742060453,-0.20880541568389435,-0.20596077403236532,-0.2003089786901833,-0.19184517240771673,-0.1984950952459257,-0.22324436995051014,-0.2601149699650018,-0.2702590906335671,-0.2775829850513014,-0.2940406475598021,-0.2927395214455199,-0.3005761862233875,-0.3085888452018616,-0.32574579766395256,-0.34009814059634114,-0.3845211967943811,-0.42316091910897263,-0.42613993411510415,-0.4293219882701828,-0.46259364975513684,-0.4841224922895074,-0.48195445578960705,-0.46803529986577297,-0.4841873110485411,-0.4586745948035165,-0.43330858907313524,-0.3781789488408251,-0.347044988731904,-0.3249364630231933,-0.29688348583393925,-0.2658461454565569,-0.23179689020204605,-0.19769718484939947,-0.1934036859427025,-0.180044392086365,-0.16058393877267552,-0.14695290823338808,-0.15108317484792957,-0.13709596319690584,-0.1288788501394743,-0.1025088120206959,-0.09980578974851269,-0.13270880044064431,-0.14442869273211087,-0.13794275940835615,-0.15208867375496232,-0.18387000557214023,-0.19144440107651084,-0.20767694798585762,-0.22658661365573715,-0.24219342212433329,-0.24254185830142266,-0.2246420430910969,-0.2363052404885233,-0.2596021724562559,-0.24373371755313056,-0.26041982727995894,-0.2588630536508607,-0.27193775932606884,-0.25781284193409126,-0.2583289521598882,-0.2764802884839898,-0.28836759712735466,-0.28503359013363144,-0.2694746353012616,-0.22974651717133807,-0.22861203376296807,-0.22424615733268663,-0.23160157413993288,-0.24770244049260792,-0.2695738497581101,-0.2822887493335897,-0.2828738363397272,-0.2743329927835293,-0.25070602947612897,-0.21798648315647454,-0.20607473715155739,-0.21200142297843694,-0.19395097864026611,-0.1818268923529202,-0.1547335169117482,-0.1366001505152986,-0.10055715202890218,-0.07053655311750429,0.0669875513145784,0.24624428609725083,0.43731935363152974,0.5594948692966346,0.651578692061767,0.6149142593121801,0.28808639221388654,-0.3618304805575864,-0.8478098559706274,-0.8621205547897667,-0.3569684670508919,-0.23776933901874456,-0.20567422274786062,-0.21284812954709556,-0.21444538805291075,-0.19550386404201678,-0.17990970433913941,-0.1855736720543458,-0.20351347013437143,-0.2008419636741351,-0.18949685473886646,-0.20532294130216697,-0.23934240945043764,-0.22879000235838687,-0.21549013365339623,-0.23230341618614347,0.0,0.0,0.0,0.0,0.0,0.0,0.0,0.0,0.0,0.0,0.0,0.0,0.0,0.0,0.0,0.0,0.0,0.0,0.0,0.0,0.0,0.0,0.0,0.0,0.0,0.0,0.0,0.0,0.0,0.0,0.0,0.0,0.0,0.0,0.0,0.0,0.0,0.0,0.0,0.0,0.0,0.0,0.0,0.0,0.0,0.0,0.0,0.0,0.0,0.0,0.0,0.0,0.0,0.0,0.0,0.0,0.0,0.0,0.0,0.0,0.0,0.0,0.0,0.0,0.0,0.0,0.0,0.0,0.0,0.0,0.0,0.0,0.0,0.0,0.0,0.0,0.0,0.0,0.0,0.0,0.0,0.0,0.0,0.0,0.0,0.0,0.0,0.0,0.0,0.0,0.0,0.0,0.0,0.0,0.0,0.0,0.0,0.0,0.0,0.0,0.0,0.0,0.0,0.0,0.0,0.0,0.0,0.0,0.0,0.0,0.0,0.0,0.0,0.0,0.0,0.0,0.0,0.0,0.0,0.0,0.0,0.0,0.0,0.0,0.0,0.0,0.0,0.0,0.0,0.0,0.0,0.0,0.0,0.0,0.0,0.0,0.0,0.0,0.0,0.0,0.0,0.0,0.0,0.0,0.0,0.0,0.0,0.0,0.0,0.0,0.0,0.0,0.0,0.0,0.0,0.0,0.0,0.0,0.0,0.0,0.0,0.0,0.0,0.0,0.0,0.0,0.0,0.0,0.0,0.0,0.0,0.0,0.0,0.0,0.0
0.7336873238789974,0.0010917113190642303,-0.5957466239946773,-0.8857336560063134,-0.6803452942518342,-0.5278801620041251,-0.347071285182571,-0.1842819816340862,-0.09167772708391293,-0.02568923276692257,0.007933182529374487,0.044052686115834294,0.0653112615156911,0.07465648237790772,0.054726311658212755,0.051980322125603065,0.022942652450156534,0.014068868119933568,-0.015219662377193785,-0.030075345080274655,-0.04206949769088589,-0.02215992988167651,0.006474614900483754,-0.011258092850291222,-0.028914315571629993,-0.026161699908493697,-0.03778997023640913,-0.05797536247020095,-0.06639026954655315,-0.042708531399220824,-0.04203342557579855,-0.061448189346412975,-0.10383974304881602,-0.13728349848847982,-0.13565824150691463,-0.10765674656723882,-0.10839009760220292,-0.1059382317216662,-0.14090923546975231,-0.14947358807765943,-0.1664394592390733,-0.183099835447102,-0.17624321696926756,-0.1458675508912765,-0.161597516287068,-0.1567081252862779,-0.17761736794179905,-0.18951399858760928,-0.17499408942733888,-0.14566528377285637,-0.12764147774164072,-0.11802679419428828,-0.13423400192093393,-0.1211500619407566,-0.09618995548767813,-0.05936332583658598,-0.0164832285473435,0.003427215319453222,0.03516695021503173,0.03520405570892086,0.03253165317288303,0.0329323256410406,0.05088999115667029,0.03706294625797261,0.04364523247452429,0.0648074055385921,0.07441051881935352,0.06372003385768274,0.038504694170149865,0.06255275140796661,0.11842033877281724,0.17125507074613688,0.24422379644247755,0.34018322456411065,0.4010644640313115,0.46743184410913086,0.617559968212066,0.7556546748954263,0.6031490526734067,0.09615046026511548,-0.5130209745620999,-0.7747740253975153,-0.7384871764763896,-0.6159586872097069,-0.43618173596308885,-0.2571347674350116,-0.12518347694108756,-0.048979994651324375,0.00633861101429183,0.023414372414039306,0.0051951006023002125,0.0010440035746668345,-0.0006001153117846905,-0.0025969602525760605,-0.004906891136101348,-0.016195226281141343,-0.024821449082861963,-0.04525640245809401,-0.05715960392509029,-0.08080717612006115,-0.08425728550725617,-0.09359099499762276,-0.10007774492434791,-0.10079040090039701,-0.11891276864780705,-0.11670724502136498,-0.1347664800576361,-0.13535516625910668,-0.13585954459800648,-0.15366691614461767,-0.20326456136494866,-0.22661377475344227,-0.22369813496431346,-0.24382015352417757,-0.2434484585689474,-0.22837052507504246,-0.2362862076352553,-0.24397331407450748,-0.2485177549236093,-0.26151134862285824,0.0,0.0,0.0,0.0,0.0,0.0,0.0,0.0,0.0,0.0,0.0,0.0,0.0,0.0,0.0,0.0,0.0,0.0,0.0,0.0,0.0,0.0,0.0,0.0,0.0,0.0,0.0,0.0,0.0,0.0,0.0,0.0,0.0,0.0,0.0,0.0,0.0,0.0,0.0,0.0,0.0,0.0,0.0,0.0,0.0,0.0,0.0,0.0,0.0,0.0,0.0,0.0,0.0,0.0,0.0,0.0,0.0,0.0,0.0,0.0,0.0,0.0,0.0,0.0,0.0,0.0,0.0,0.0,0.0,0.0,0.0,0.0,0.0,0.0,0.0,0.0,0.0,0.0,0.0,0.0,0.0,0.0,0.0,0.0,0.0,0.0,0.0,0.0,0.0,0.0,0.0,0.0,0.0,0.0,0.0,0.0,0.0,0.0,0.0,0.0,0.0,0.0,0.0,0.0,0.0,0.0,0.0,0.0,0.0,0.0,0.0,0.0,0.0,0.0,0.0,0.0,0.0,0.0,0.0,0.0,0.0,0.0,0.0,0.0,0.0,0.0,0.0,0.0,0.0,0.0,0.0,0.0,0.0,0.0,0.0,0.0,0.0,0.0,0.0,0.0,0.0,0.0,0.0,0.0,0.0,0.0,0.0,0.0,0.0,0.0,0.0,0.0,0.0,0.0,0.0,0.0,0.0,0.0,0.0,0.0,0.0,0.0,0.0,0.0,0.0,0.0,0.0,0.0,0.0,0.0,0.0,0.0,0.0,0.0,0.0,0.0,0.0,0.0,0.0,0.0,0.0
0.949481797302987,0.6613364886548422,-0.08060826360001173,-0.8594667264761698,-0.8534756746455804,-0.7032221778857832,-0.23646668811732285,-0.15414540780039065,-0.08758977896259662,-0.05790368612056674,-0.046913055379500204,-0.04248826346348334,-0.020415288428703753,-0.004825412587209925,-0.0017226839920066854,0.02518787793348675,0.024576453162221464,-0.00956641572972846,-0.01980091626610185,-0.021204577155658315,-0.037921052279884376,-0.045751916914878066,-0.06884407342865521,-0.0678948026471938,-0.1002903025131245,-0.10860181003278077,-0.09583151361812282,-0.1405199317291499,-0.17919912584609884,-0.20883190770668725,-0.24753235339027185,-0.22579222971429738,-0.24934991221120242,-0.2940206057900424,-0.3054052002677497,-0.30162050437532717,-0.29776208783512415,-0.299861332204336,-0.29279951400712667,-0.309801927158178,-0.32366449283213855,-0.3283337435312898,-0.3630786260926377,-0.35235182422218664,-0.3716794002453858,-0.37874954922628906,-0.3856355384951688,-0.3651290307446713,-0.329298014900577,-0.3143813340400865,-0.3233816323677743,-0.3200224617190108,-0.2982423694782439,-0.2670874951749006,-0.2537331634238396,-0.24305435889992066,-0.21992656966952456,-0.1782902927045458,-0.10302224528139811,-0.1059023549619524,-0.09929385961484745,-0.10433466509392675,-0.09382020820123345,-0.07076201652272335,-0.0895381492804804,-0.0806472383042516,-0.0501263407901271,-0.05235762739518422,-0.0812951094023333,-0.0795290796838551,-0.09540313809347294,-0.11683257809704868,-0.08339024356225086,-0.07363843209073799,-0.10571111559048783,-0.0950132124749941,-0.08385321433909285,-0.10245497360893548,-0.12967846682210854,-0.16855680261858952,-0.1677375005835382,-0.16953501481513136,-0.14072763178162953,-0.1387390835332588,-0.13337113337971263,-0.13974888359245577,-0.13674073316474347,-0.1001946703627612,-0.11171171320601818,-0.13505627323839833,-0.1037791351026567,-0.10854935029700301,-0.10709192572174749,-0.10849832626761735,-0.06747454070322863,-0.07167308512246663,-0.07580261254428883,-0.06176654603947576,-0.053770478282944255,-0.036742172654348114,-0.01978276805820852,-0.008973507705531718,-0.06780550471063239,-0.09358997717817195,-0.08637003360228822,-0.058276022744531496,0.054097467426128976,0.2567461715036889,0.5677497176974288,0.7876378275491498,0.9405254307539904,1.0082209702007523,0.7851944036143623,0.19885417331711983,0.0,0.0,0.0,0.0,0.0,0.0,0.0,0.0,0.0,0.0,0.0,0.0,0.0,0.0,0.0,0.0,0.0,0.0,0.0,0.0,0.0,0.0,0.0,0.0,0.0,0.0,0.0,0.0,0.0,0.0,0.0,0.0,0.0,0.0,0.0,0.0,0.0,0.0,0.0,0.0,0.0,0.0,0.0,0.0,0.0,0.0,0.0,0.0,0.0,0.0,0.0,0.0,0.0,0.0,0.0,0.0,0.0,0.0,0.0,0.0,0.0,0.0,0.0,0.0,0.0,0.0,0.0,0.0,0.0,0.0,0.0,0.0,0.0,0.0,0.0,0.0,0.0,0.0,0.0,0.0,0.0,0.0,0.0,0.0,0.0,0.0,0.0,0.0,0.0,0.0,0.0,0.0,0.0,0.0,0.0,0.0,0.0,0.0,0.0,0.0,0.0,0.0,0.0,0.0,0.0,0.0,0.0,0.0,0.0,0.0,0.0,0.0,0.0,0.0,0.0,0.0,0.0,0.0,0.0,0.0,0.0,0.0,0.0,0.0,0.0,0.0,0.0,0.0,0.0,0.0,0.0,0.0,0.0,0.0,0.0,0.0,0.0,0.0,0.0,0.0,0.0,0.0,0.0,0.0,0.0,0.0,0.0,0.0,0.0,0.0,0.0,0.0,0.0,0.0,0.0,0.0,0.0,0.0,0.0,0.0,0.0,0.0,0.0,0.0,0.0,0.0,0.0,0.0,0.0,0.0,0.0,0.0,0.0,0.0,0.0,0.0,0.0,0.0,0.0,0.0,0.0,0.0,0.0,0.0,0.0,0.0,0.0
0.8579770758432252,0.6572885069268447,0.06858230745905797,-0.48127414666679413,-0.7493245472805602,-0.801298611557916,-0.26938117634865233,-0.11905030132820475,-0.0743962499914698,-0.04013532052232084,-0.026075887027034297,-0.025607060605772614,-0.03211923400558424,-0.022583609608702843,0.0030386946743198714,-0.007760256114006371,-0.002398788273635174,0.002737406375940473,0.004397615467514511,-0.01052258369297245,-0.009151719617645729,-0.01116519817069891,-0.03295569661288249,-0.05479220482244436,-0.03724039069847106,-0.03938990634034435,-0.021808783536815694,-0.014032261447924778,-0.0127559335044485,0.011596023967155237,0.019632094099275983,0.014652523343028415,-0.016464426393097545,-0.06713740926254996,-0.11436593476713294,-0.14500287336142528,-0.13933374595432008,-0.13347437327649703,-0.1339844375757279,-0.16056074523890573,-0.17050304220489096,-0.20321405541430432,-0.19957422518387838,-0.21869180314838776,-0.26712993715913635,-0.3021906705672341,-0.284460217971593,-0.28618213997718517,-0.28107695583337666,-0.2724216798268344,-0.26677742775693414,-0.2707053653409734,-0.26449397746609954,-0.2776932305864528,-0.2905917576451088,-0.3097509741146437,-0.2924700946832575,-0.27814810797587447,-0.26020571826219036,-0.23863184084001546,-0.2002791225202237,-0.12871633410963923,-0.09618321856729296,-0.08624972577536766,-0.06935035724160787,-0.058613828576616296,-0.07045401553669733,-0.05231992054083484,-0.030479882672254675,-0.0344874863120676,-0.051204342143126164,-0.0609251106948394,-0.04394560850122652,-0.05281284666274,-0.05140446705661224,-0.05942887233199583,-0.08674333552852927,-0.10708120098497766,-0.140154119546082,-0.1761177648364,-0.18870804738037958,-0.17136597836696538,-0.17007855540985178,-0.17171962363816362,-0.15331130520106986,-0.1772627423262743,-0.19432449709161098,-0.19137270087035624,-0.1914089690224547,-0.17802623361666864,-0.17422702015723524,-0.18659390168771206,-0.18886904343121028,-0.19092013325048693,-0.18619485233356978,-0.19441409826347414,-0.19917420609244205,-0.18078785595737884,-0.1885341364449792,-0.1830220827074807,-0.16755443257792604,-0.1520026105475984,-0.1528068051042725,-0.1502828131661587,-0.1805766924535955,-0.18131231516417806,-0.13937548570585978,-0.14674354982867074,-0.131189824873203,-0.09602248852545257,-0.06753913864677887,-0.0457655460430867,-0.02087627123740931,0.023521131790962824,0.04141999886560804,0.0951872669266231,0.25047234865895573,0.5072408713615657,0.7340920030986839,0.8653028611271951,0.9139637571256471,0.6862612873484636,0.18542175847495795,-0.2864807328721527,-0.5850109830212618,-0.6544039626527378,-0.5800819743638261,-0.45400017061775216,0.0,0.0,0.0,0.0,0.0,0.0,0.0,0.0,0.0,0.0,0.0,0.0,0.0,0.0,0.0,0.0,0.0,0.0,0.0,0.0,0.0,0.0,0.0,0.0,0.0,0.0,0.0,0.0,0.0,0.0,0.0,0.0,0.0,0.0,0.0,0.0,0.0,0.0,0.0,0.0,0.0,0.0,0.0,0.0,0.0,0.0,0.0,0.0,0.0,0.0,0.0,0.0,0.0,0.0,0.0,0.0,0.0,0.0,0.0,0.0,0.0,0.0,0.0,0.0,0.0,0.0,0.0,0.0,0.0,0.0,0.0,0.0,0.0,0.0,0.0,0.0,0.0,0.0,0.0,0.0,0.0,0.0,0.0,0.0,0.0,0.0,0.0,0.0,0.0,0.0,0.0,0.0,0.0,0.0,0.0,0.0,0.0,0.0,0.0,0.0,0.0,0.0,0.0,0.0,0.0,0.0,0.0,0.0,0.0,0.0,0.0,0.0,0.0,0.0,0.0,0.0,0.0,0.0,0.0,0.0,0.0,0.0,0.0,0.0,0.0,0.0,0.0,0.0,0.0,0.0,0.0,0.0,0.0,0.0,0.0,0.0,0.0,0.0,0.0,0.0,0.0,0.0,0.0,0.0,0.0,0.0,0.0,0.0,0.0,0.0,0.0,0.0,0.0,0.0,0.0,0.0,0.0,0.0,0.0,0.0,0.0,0.0,0.0,0.0,0.0,0.0,0.0,0.0,0.0,0.0,0.0,0.0,0.0
0.6241614882369538,0.18210364147198024,-0.4138594950684825,-0.780289796804953,-0.8228468766905312,-0.6890561068252882,-0.5146066799684877,-0.35551488247568597,-0.2441902020610105,-0.18944274953249038,-0.16763388882597588,-0.13742638839153917,-0.15483357590106064,-0.19032100643641056,-0.18780588605006568,-0.16495606234210117,-0.1512405509094094,-0.14368001664740204,-0.15699642633463914,-0.16461357583894484,-0.1665064607213979,-0.1715013849716174,-0.1913760004836832,-0.2113595267832369,-0.2137324558930262,-0.1955263055942401,-0.21867319156893514,-0.2920068972376767,-0.2916134187197593,-0.3000777840948708,-0.30558655132805396,-0.3494265424392665,-0.39028594158746904,-0.3868533907058463,-0.3951669776891274,-0.4122655504754691,-0.3968385041873154,-0.39607464342112675,-0.4099633850105351,-0.43849437032289157,-0.42855783627865884,-0.45684295554580556,-0.44959021088884005,-0.4156378930584607,-0.402173156854883,-0.3914838221395822,-0.3865077315239805,-0.39608292616698093,-0.3877480621781767,-0.34379189780860514,-0.3999021850269726,-0.45576911936321224,-0.4110831017432678,-0.389731268525444,-0.43595156625412324,-0.44943339676272187,-0.39771562421979917,-0.38108520869526186,-0.34938057456661636,-0.2760402499308833,-0.32625163032795174,-0.32890572560303255,-0.3075925042187534,-0.2564027397177726,-0.22842738318371916,-0.22955870011621515,-0.22439036136731494,-0.1981669236113023,-0.1951335370741462,-0.1887371533382671,-0.1760257574639588,-0.17174844891165122,-0.13165614132336784,-0.13835004228841796,-0.21838337095561264,-0.2272122789004777,-0.15599290506069785,-0.11388147841260951,-0.1775859220468553,-0.28221696912188937,-0.297987208117281,-0.2455587733559064,-0.1927941226087811,-0.1898568375810241,-0.2131623526683835,-0.27157708871746117,-0.32086904613313216,-0.2519076106855537,-0.22991049298057015,-0.19884818425582734,-0.18824152146844686,-0.18631289482397723,-0.19013588481677893,-0.1613856389257417,-0.10598819180468387,-0.10952031539151506,-0.11596163115838976,-0.08404329553196051,-0.04919745381318222,-0.032108158344329826,-0.015111738499584432,0.01945343198072807,0.02139741282199957,0.002477447701908684,0.03049800347086084,0.10836186802887601,0.08852071985780469,0.047621630990130455,0.13900838972332294,0.2888742255430231,0.6476076082528968,0.30065219211072347,-0.25941548384285235,-0.6432717322790549,-0.8126408617481292,-0.8000273759334103,-0.7381996388823008,-0.5769934224239593,-0.3635654551379564,-0.2512586635343219,-0.16331826987618095,-0.0701900535175216,-0.027870472492924007,-0.059908107965531476,-0.05710470781081249,-0.016463044344430956,-0.05298683045855886,-0.11648327196672814,-0.1538115391254269,-0.1560820576291362,-0.1262065911408891,-0.1172479118274388,-0.1321207817224473,0.0,0.0,0.0,0.0,0.0,0.0,0.0,0.0,0.0,0.0,0.0,0.0,0.0,0.0,0.0,0.0,0.0,0.0,0.0,0.0,0.0,0.0,0.0,0.0,0.0,0.0,0.0,0.0,0.0,0.0,0.0,0.0,0.0,0.0,0.0,0.0,0.0,0.0,0.0,0.0,0.0,0.0,0.0,0.0,0.0,0.0,0.0,0.0,0.0,0.0,0.0,0.0,0.0,0.0,0.0,0.0,0.0,0.0,0.0,0.0,0.0,0.0,0.0,0.0,0.0,0.0,0.0,0.0,0.0,0.0,0.0,0.0,0.0,0.0,0.0,0.0,0.0,0.0,0.0,0.0,0.0,0.0,0.0,0.0,0.0,0.0,0.0,0.0,0.0,0.0,0.0,0.0,0.0,0.0,0.0,0.0,0.0,0.0,0.0,0.0,0.0,0.0,0.0,0.0,0.0,0.0,0.0,0.0,0.0,0.0,0.0,0.0,0.0,0.0,0.0,0.0,0.0,0.0,0.0,0.0,0.0,0.0,0.0,0.0,0.0,0.0,0.0,0.0,0.0,0.0,0.0,0.0,0.0,0.0,0.0,0.0,0.0,0.0,0.0,0.0,0.0,0.0,0.0,0.0,0.0,0.0,0.0,0.0,0.0,0.0,0.0,0.0,0.0,0.0,0.0,0.0,0.0,0.0,0.0,0.0,0.0,0.0,0.0,0.0,0.0,0.0,0.0,0.0
0.9047792090352853,0.5382508001768026,-0.09866524427553153,-0.5847964208385565,-0.7323257369521108,-0.6625284855800837,-0.5511897037517643,-0.3558588109718427,-0.17649893181731297,-0.07064021312715782,-0.013987843470439708,0.011690664476356407,0.04584038990036305,0.04304865622078147,0.057910099585383734,0.057130865891509064,0.046812799565657086,0.04820882591931136,0.034080871195866086,0.022647764059330094,0.016973752383238977,-0.013214905739068073,-0.046673738233183194,-0.0470068404108567,-0.07782865999247167,-0.08153182388588723,-0.10658031101807315,-0.12264419457416116,-0.1266697359940177,-0.13075699388265402,-0.147006915419803,-0.14206265053548345,-0.14317968989940094,-0.1564002919436087,-0.1695840549698537,-0.17362189489436833,-0.17758886779177058,-0.16934663970280447,-0.1791855983428805,-0.1707240973816646,-0.19243729187543956,-0.21097540748473964,-0.2354173173026454,-0.2536283176208001,-0.2625657826452922,-0.2591873403640234,-0.28894007094007423,-0.2881704835916737,-0.30535653938419255,-0.3010895273702357,-0.30869450889683564,-0.30391558562847104,-0.2867410713362549,-0.2783733259845754,-0.26364786544534874,-0.23043091333980617,-0.22113929543902955,-0.2145480757395311,-0.19549388984983385,-0.16093613333165646,-0.13814052312610114,-0.12709829418411764,-0.10961804652218302,-0.08266215505142087,-0.05228570159375353,-0.03363660966135923,-0.035802907876223776,-0.03150704629016959,-0.02074801709676947,-0.030801376110654866,-0.04651600963417001,-0.025466972653292782,-0.01917851796619051,-0.04280936064905223,-0.041816354880387714,-0.004085750410908808,0.006730447853467738,0.014865486595925077,-0.0069687638492279234,-0.013328164777483116,-0.013320463029691412,-0.006963127651652716,0.017847227759918902,0.024723259419855845,0.050009877004484206,0.06034705772194022,0.0981374491211505,0.11486454431605791,0.14989657689370742,0.16683524188144294,0.16261631751829608,0.17660131363929008,0.19056842891613965,0.2408438555563652,0.309200912536165,0.41377712499957453,0.5484623286223199,0.6313783259575233,0.7291409622578725,0.8053217624145597,0.8507622829234499,0.5835465394193162,-0.011556391254091984,-0.5800513934188672,-0.897759656317901,-0.7010786708532829,-0.4385353150520164,-0.23434696790989587,-0.10664804487341252,-0.04932869003727473,0.004331517671493132,0.0543790148099671,0.046308295888456995,0.04683516930052014,0.025695203813453756,0.013233765946168678,0.0034276395076371998,-0.0036868244003135505,-0.04141116835543025,-0.03394764149318767,-0.03278407090343151,-0.03788981508796929,-0.05832732362928525,-0.06073229088858691,-0.09659781690507256,-0.08407280150799167,-0.0867749127029799,-0.11680309928183437,0.0,0.0,0.0,0.0,0.0,0.0,0.0,0.0,0.0,0.0,0.0,0.0,0.0,0.0,0.0,0.0,0.0,0.0,0.0,0.0,0.0,0.0,0.0,0.0,0.0,0.0,0.0,0.0,0.0,0.0,0.0,0.0,0.0,0.0,0.0,0.0,0.0,0.0,0.0,0.0,0.0,0.0,0.0,0.0,0.0,0.0,0.0,0.0,0.0,0.0,0.0,0.0,0.0,0.0,0.0,0.0,0.0,0.0,0.0,0.0,0.0,0.0,0.0,0.0,0.0,0.0,0.0,0.0,0.0,0.0,0.0,0.0,0.0,0.0,0.0,0.0,0.0,0.0,0.0,0.0,0.0,0.0,0.0,0.0,0.0,0.0,0.0,0.0,0.0,0.0,0.0,0.0,0.0,0.0,0.0,0.0,0.0,0.0,0.0,0.0,0.0,0.0,0.0,0.0,0.0,0.0,0.0,0.0,0.0,0.0,0.0,0.0,0.0,0.0,0.0,0.0,0.0,0.0,0.0,0.0,0.0,0.0,0.0,0.0,0.0,0.0,0.0,0.0,0.0,0.0,0.0,0.0,0.0,0.0,0.0,0.0,0.0,0.0,0.0,0.0,0.0,0.0,0.0,0.0,0.0,0.0,0.0,0.0,0.0,0.0,0.0,0.0,0.0,0.0,0.0,0.0,0.0,0.0,0.0,0.0,0.0,0.0,0.0,0.0,0.0,0.0,0.0,0.0,0.0,0.0,0.0,0.0,0.0
0.3761828643000771,0.10482220472187131,-0.47754802144244585,-0.4946027504814261,-0.37353978023672274,-0.2651261858036536,-0.18819846931776515,-0.14902912073143265,-0.10991642662540263,-0.07085216320584226,-0.06952179186781028,-0.0556623512084088,-0.05439745797925466,-0.07828776406796716,-0.0864972142474804,-0.08530676937104538,-0.09984484708064165,-0.1081251185224147,-0.11014970247577896,-0.09021643295961083,-0.09230423109422753,-0.09128984387686602,-0.09660273397192802,-0.09882710587694699,-0.11053562793329076,-0.14116096054266886,-0.1373156035531441,-0.16811414051201262,-0.16760653611085047,-0.18606258880915902,-0.21093165115825138,-0.20767628609614291,-0.20143963975254695,-0.23307065156784182,-0.24918707008165847,-0.26236923149573177,-0.2851977698550213,-0.2925608601444549,-0.32216794679276856,-0.3426252883834818,-0.34452527241702136,-0.35929081735949514,-0.3649434646630853,-0.35834630044147403,-0.35206236088564463,-0.35864997108096286,-0.34982959340628034,-0.3350096412785692,-0.33929991400987275,-0.35639714096219566,-0.32031505572725627,-0.29070516926947126,-0.2392682821001717,-0.1973853790547955,-0.16502721657890404,-0.12017770489080984,-0.07537310626106261,-0.024304280354038043,0.011067228008507362,0.04018902757468472,0.09135347347411504,0.10176050621428637,0.146814599395726,0.1699937555642811,0.18701802381642213,0.2041818867531541,0.2089310026105627,0.22011904076376673,0.2189043911618468,0.2272765479552586,0.21068333050525165,0.17540362658691488,0.16226536018985482,0.14613182527018312,0.13955665167108522,0.1299627341364122,0.14560447442333513,0.142489756294585,0.1394453433660271,0.1364493975299462,0.13975995483874296,0.133645422240327,0.16833417334104522,0.2155259301739552,0.22807168382644746,0.26247470420692315,0.27786279202296127,0.32445156172846396,0.3896325430307158,0.46707621476602584,0.531603218333188,0.34443840034746664,-0.29864596096079576,-1.0082209702007523,-0.6849787688391932,-0.29321988098027746,-0.15015122750099802,-0.09868011196919356,-0.10107481911789781,-0.08819410823111797,-0.08512950447846478,-0.06985777209702122,-0.07689582994359727,-0.0905048700414515,-0.09180618613056353,-0.08390956628406704,-0.07620799848814822,-0.0780955949597367,-0.07383916999271202,-0.09168149733941158,-0.09704537368081523,-0.11503477514036972,-0.1424852181488914,-0.16052789982837523,-0.1502948486533007,-0.11176517973344792,-0.06376514597915352,-0.07223784899399222,-0.07120319686081049,-0.07949083498479635,-0.11593159653372857,-0.13339525176299954,-0.15071474428538076,-0.183582836933256,-0.19429510383789136,-0.22995629972795556,-0.24658108173675292,-0.24730036473522585,-0.25409171996370855,-0.2606635076949485,-0.2638654191043732,-0.2542652706630382,-0.2632648518686326,-0.27200930334780077,-0.2459387052679822,-0.27299456725413596,-0.2495142004713174,-0.21946480127741505,-0.20168540157625722,-0.18360490389919942,-0.15893486129457246,-0.13081062531287524,-0.11179146935698762,-0.11129649897253364,-0.10733522869932435,-0.1124697937829963,-0.13926333657161755,-0.13745882918877958,-0.13846758837027337,-0.14857332667468592,-0.1552142626050127,-0.1740989338205277,-0.1769618395299094,-0.18265401596630385,0.0,0.0,0.0,0.0,0.0,0.0,0.0,0.0,0.0,0.0,0.0,0.0,0.0,0.0,0.0,0.0,0.0,0.0,0.0,0.0,0.0,0.0,0.0,0.0,0.0,0.0,0.0,0.0,0.0,0.0,0.0,0.0,0.0,0.0,0.0,0.0,0.0,0.0,0.0,0.0,0.0,0.0,0.0,0.0,0.0,0.0,0.0,0.0,0.0,0.0,0.0,0.0,0.0,0.0,0.0,0.0,0.0,0.0,0.0,0.0,0.0,0.0,0.0,0.0,0.0,0.0,0.0,0.0,0.0,0.0,0.0,0.0,0.0,0.0,0.0,0.0,0.0,0.0,0.0,0.0,0.0,0.0,0.0,0.0,0.0,0.0,0.0,0.0,0.0,0.0,0.0,0.0,0.0,0.0,0.0,0.0,0.0,0.0,0.0,0.0,0.0,0.0,0.0,0.0,0.0,0.0,0.0,0.0,0.0,0.0,0.0,0.0,0.0,0.0,0.0,0.0,0.0,0.0,0.0,0.0,0.0,0.0,0.0,0.0,0.0,0.0,0.0,0.0,0.0,0.0,0.0,0.0,0.0,0.0,0.0,0.0,0.0,0.0,0.0,0.0,0.0,0.0,0.0,0.0,0.0,0.0,0.0
0.6568856555009893,0.15614667286015274,-0.44159711692020026,-0.8285434118994164,-0.9021415225811181,-0.8291984774810173,-0.34992194100208096,-0.19548446981878675,-0.09963722851161988,-0.0334609219717668,0.003098038126643761,0.013298635177926047,0.032469354309662996,0.05424383609400973,0.06263221342701614,0.0512638622959681,0.02980164638408488,0.01432054409239932,-0.011177963428664027,-0.021001519588066554,-0.0087024870541612,-0.022356474643122348,-0.026655238062560923,-0.01836376948009107,-0.023113132756221205,-0.02163620961598595,-0.023531971187840735,-0.04481548247523516,-0.07584646014488718,-0.0685005930160594,-0.08690512075038484,-0.11180313091040346,-0.13356062186238524,-0.14895923501298747,-0.1740247191149677,-0.21516256381449103,-0.25632930123054304,-0.2622394435389979,-0.2777867186109769,-0.30296545280375686,-0.31852763941072926,-0.33088281859381463,-0.34323371011290293,-0.35236900827666623,-0.3839418961943105,-0.4122914182667903,-0.4438279718275482,-0.41760917246587326,-0.4105940275449863,-0.4099382545842629,-0.39317352953029566,-0.3827289847012852,-0.3529256465104589,-0.3069488326952051,-0.28326258788034775,-0.28825990472308766,-0.27701998270447586,-0.2591439311614586,-0.23140481674736,-0.21944061536493276,-0.20719719884951127,-0.21389983334902113,-0.19142465579572432,-0.14937722805142686,-0.12943550309703208,-0.13479288325725994,-0.1654368959154816,-0.17324916090073347,-0.19670525474590914,-0.2197603676015957,-0.21354204850839767,-0.2133215286803763,-0.21909231112459818,-0.22443446120336205,-0.20368600468711826,-0.16325719341638742,-0.15766632541050205,-0.17408278917315836,-0.180434240746133,-0.17992795727292482,-0.21746509178808077,-0.24173351499706583,-0.23349335852226244,-0.23444118302048048,-0.24458143463840218,-0.24467644318650286,-0.24114637726387705,-0.24682638414344546,-0.2617237477825336,-0.26339643060296225,-0.2518530048303144,-0.25596693067710435,-0.2725408918673628,-0.3079996376198009,-0.3174541775854604,-0.30091590275273805,-0.2904679650815196,-0.2700867783622583,-0.2526135090146666,-0.2412684587141484,-0.232858295031437,-0.22739753797772277,-0.21848717223559516,-0.20293610428270412,-0.19679692331004786,-0.2000874029711027,-0.17434052916468526,-0.15485449814776697,-0.14806426052450605,-0.15719876486273668,-0.16624527527869795,-0.13032789594463712,-0.10078611351463736,-0.09368210250655074,-0.08338658646432706,-0.044271736030861986,-0.008439799344829451,0.01766242749065299,0.043621991428464485,0.07902393559988875,0.13986545606337705,0.2581771546147034,0.47240130475948633,0.6991055292230247,0.8516460299413433,0.8978950334593228,0.7768543031226091,0.3569620452798031,-0.2463993014580003,-0.6933509696689663,-0.8043720391088001,-0.7238335864732689,-0.6121023841605914,0.0,0.0,0.0,0.0,0.0,0.0,0.0,0.0,0.0,0.0,0.0,0.0,0.0,0.0,0.0,0.0,0.0,0.0,0.0,0.0,0.0,0.0,0.0,0.0,0.0,0.0,0.0,0.0,0.0,0.0,0.0,0.0,0.0,0.0,0.0,0.0,0.0,0.0,0.0,0.0,0.0,0.0,0.0,0.0,0.0,0.0,0.0,0.0,0.0,0.0,0.0,0.0,0.0,0.0,0.0,0.0,0.0,0.0,0.0,0.0,0.0,0.0,0.0,0.0,0.0,0.0,0.0,0.0,0.0,0.0,0.0,0.0,0.0,0.0,0.0,0.0,0.0,0.0,0.0,0.0,0.0,0.0,0.0,0.0,0.0,0.0,0.0,0.0,0.0,0.0,0.0,0.0,0.0,0.0,0.0,0.0,0.0,0.0,0.0,0.0,0.0,0.0,0.0,0.0,0.0,0.0,0.0,0.0,0.0,0.0,0.0,0.0,0.0,0.0,0.0,0.0,0.0,0.0,0.0,0.0,0.0,0.0,0.0,0.0,0.0,0.0,0.0,0.0,0.0,0.0,0.0,0.0,0.0,0.0,0.0,0.0,0.0,0.0,0.0,0.0,0.0,0.0,0.0,0.0,0.0,0.0,0.0,0.0,0.0,0.0,0.0,0.0,0.0,0.0,0.0,0.0,0.0,0.0,0.0,0.0,0.0,0.0,0.0,0.0,0.0,0.0,0.0,0.0
0.7652824577617824,0.53583455836274,0.009613305612088755,-0.46598851422287463,-0.7369549135580834,-0.770118666589642,-0.6893933759657718,-0.6156316681107978,-0.3826133623686944,-0.20177896716314342,-0.10629875337840919,-0.005462909421665857,0.04640590181681862,0.103756698143627,0.19686462095857502,0.21399277094111663,0.12196007743000455,0.14743025518194353,0.22398068521687825,0.22173507450634766,0.1588669560206397,0.09282627451720203,0.09012486048133436,0.1326707550899044,0.12381119179839796,0.0756643940908289,0.057754391097725497,0.030829636130665264,0.04325955883164419,0.10111088607727857,0.06239563842954007,-0.02150146260200465,-0.0025102902636373217,0.019675926369150793,0.005791879514782903,-0.12875186964513852,-0.22682783774654222,-0.1675674782032273,-0.17153057886601836,-0.18432281416659207,-0.1545722569810589,-0.17896054858830893,-0.20007464342379266,-0.21186760185738654,-0.2626799686629089,-0.25582176741398405,-0.2607851025411841,-0.25339656618389017,-0.31523516001296104,-0.30731205585448795,-0.29005656805544394,-0.3661990230197216,-0.40581579784647676,-0.3514977667768608,-0.27877621840021277,-0.27224690799434625,-0.28053918721376836,-0.29458359509564486,-0.2569672953987028,-0.20696524030071306,-0.18687435324029794,-0.15136925772750456,-0.10649064363778288,-0.04921576393766197,-0.018823887757651477,0.011876838673001626,0.10331291562704208,0.1678562939761702,0.19643522100991215,0.134653072079135,0.03990537778089497,0.03001490418935109,0.03244895127506183,-0.0011552308033528286,0.04399781197009579,0.13464904937069952,0.17408629428756117,0.21666911630670138,0.20193804900570922,0.1510108396389852,0.16356103875308886,0.14286320718368953,0.15837093810337774,0.17378339691171835,0.15581866913623732,0.18903007688975068,0.28847425821461914,0.3302168681059383,0.2235566715700653,0.22223819103054523,0.32317691567107215,0.4779631908271962,0.6804847504524121,0.4925529489083448,-0.04965303964603275,-0.6319817441947448,-0.8919394728741151,-0.8507346377229266,-0.641319495099091,-0.38753469853938866,-0.25247293783785607,-0.11218277228253455,0.021319947346333176,-0.03620643115440532,-0.055062125166339675,0.03129091874429523,0.10205724678516902,0.15427735421163163,0.1517531294955705,0.15497140694444567,0.16700829328292047,0.18489438024130578,0.2086791364910975,0.19913004165468207,0.0,0.0,0.0,0.0,0.0,0.0,0.0,0.0,0.0,0.0,0.0,0.0,0.0,0.0,0.0,0.0,0.0,0.0,0.0,0.0,0.0,0.0,0.0,0.0,0.0,0.0,0.0,0.0,0.0,0.0,0.0,0.0,0.0,0.0,0.0,0.0,0.0,0.0,0.0,0.0,0.0,0.0,0.0,0.0,0.0,0.0,0.0,0.0,0.0,0.0,0.0,0.0,0.0,0.0,0.0,0.0,0.0,0.0,0.0,0.0,0.0,0.0,0.0,0.0,0.0,0.0,0.0,0.0,0.0,0.0,0.0,0.0,0.0,0.0,0.0,0.0,0.0,0.0,0.0,0.0,0.0,0.0,0.0,0.0,0.0,0.0,0.0,0.0,0.0,0.0,0.0,0.0,0.0,0.0,0.0,0.0,0.0,0.0,0.0,0.0,0.0,0.0,0.0,0.0,0.0,0.0,0.0,0.0,0.0,0.0,0.0,0.0,0.0,0.0,0.0,0.0,0.0,0.0,0.0,0.0,0.0,0.0,0.0,0.0,0.0,0.0,0.0,0.0,0.0,0.0,0.0,0.0,0.0,0.0,0.0,0.0,0.0,0.0,0.0,0.0,0.0,0.0,0.0,0.0,0.0,0.0,0.0,0.0,0.0,0.0,0.0,0.0,0.0,0.0,0.0,0.0,0.0,0.0,0.0,0.0,0.0,0.0,0.0,0.0,0.0,0.0,0.0,0.0,0.0,0.0,0.0,0.0,0.0,0.0,0.0,0.0,0.0,0.0,0.0,0.0,0.0,0.0,0.0,0.0,0.0,0.0,0.0
