0.8413589432579318,0.209004230209182,-0.40109587687835435,-0.6744674176327289,-0.6400436375454671,-0.551390149393535,-0.4309693036066639,-0.3269029201469125,-0.2969365841266304,-0.29611443909885443,-0.2923187762981738,-0.2758983253688871,-0.2468305578534065,-0.2307689136568997,-0.24052979991639886,-0.2343700959668162,-0.22510768620074292,-0.2383989155247629,-0.23571234273204522,-0.24591525781776927,-0.23689654051289444,-0.23431547755124618,-0.23815665707869244,-0.21631112381350298,-0.18802151052486293,-0.19499728740824337,-0.20513203735914698,-0.2184145738859759,-0.22199688622159972,-0.22549779050792293,-0.23853690977698241,-0.24184979659412956,-0.25468587418445837,-0.26741041354634687,-0.29285533123070695,-0.30854940601369507,-0.3080690136317618,-0.30424747718375483,-0.32275621178792635,-0.3443350239850229,-0.33046745017443163,-0.32929180151187093,-0.3472240783481664,-0.381052264832267,-0.40188909488747465,-0.40331331615767146,-0.3917396329293365,-0.39604685744795554,-0.38413385873351813,-0.3848774505483266,-0.37901294146764525,-0.3665320705605007,-0.34742659870577597,-0.36020151746629225,-0.3406602742271658,-0.320889298414809,-0.29446208655909817,-0.2966750229601865,-0.2825892146704239,-0.26824535081867845,-0.25042805122744394,-0.21629422474959142,-0.20114287805945916,-0.19855127789261937,-0.1892598866549079,-0.18289495072263037,-0.15057054057749453,-0.14042802204047375,-0.1364213475048548,-0.13213397071580973,-0.1147317224413815,-0.10026654950661883,-0.056650308865361404,-0.028822565952720845,-0.01358308673966751,-0.020571125448814544,-0.014495781047222295,-0.030675401715388236,-0.03061331596248909,-0.03358433549984884,-0.036399033739433075,-0.045498019663525374,-0.032019919536553226,-0.06017848630925203,-0.04976493044584227,-0.036111517801860595,-0.009620178068072137,-0.015254868084330844,-0.01453626277975282,0.011756549081458829,0.02828234370973661,0.06709592798022894,0.19876319695153022,0.3750989250463699,0.5447055471244525,0.6272968458239974,0.63244597181029,0.40924957876595774,-0.11296503691886217,-0.6229525061516851,-0.886495104828861,-0.7174937820625171,-0.529964889699787,-0.37522757570526866,-0.2724927732709669,-0.2120865964732746,-0.15224142507450858,-0.15068279032536405,-0.12392250875497109,-0.10401299976225617,-0.09733254902834652,-0.10384198129897906,-0.11708469378675442,-0.10172062151663398,-0.09943732390412986,-0.106991764421527,-0.12435175510153154,-0.125811058912772,-0.12417788040939305,-0.10658628098498917,-0.09226590674308965,-0.0940289299854274,-0.11506069194133316,-0.13929140733518677,-0.15065263246247154,-0.17800914825088035,-0.1892477506624376,-0.21002598219258162,-0.217860922885401,-0.21915537938193216,-0.25240727461793444,-0.25341362870755824,-0.2638832693948969,0.0,0.0,0.0,0.0,0.0,0.0,0.0,0.0,0.0,0.0,0.0,0.0,0.0,0.0,0.0,0.0,0.0,0.0,0.0,0.0,0.0,0.0,0.0,0.0,0.0,0.0,0.0,0.0,0.0,0.0,0.0,0.0,0.0,0.0,0.0,0.0,0.0,0.0,0.0,0.0,0.0,0.0,0.0,0.0,0.0,0.0,0.0,0.0,0.0,0.0,0.0,0.0,0.0,0.0,0.0,0.0,0.0,0.0,0.0,0.0,0.0,0.0,0.0,0.0,0.0,0.0,0.0,0.0,0.0,0.0,0.0,0.0,0.0,0.0,0.0,0.0,0.0,0.0,0.0,0.0,0.0,0.0,0.0,0.0,0.0,0.0,0.0,0.0,0.0,0.0,0.0,0.0,0.0,0.0,0.0,0.0,0.0,0.0,0.0,0.0,0.0,0.0,0.0,0.0,0.0,0.0,0.0,0.0,0.0,0.0,0.0,0.0,0.0,0.0,0.0,0.0,0.0,0.0,0.0,0.0,0.0,0.0,0.0,0.0,0.0,0.0,0.0,0.0,0.0,0.0,0.0,0.0,0.0,0.0,0.0,0.0,0.0,0.0,0.0,0.0,0.0,0.0,0.0,0.0,0.0,0.0,0.0,0.0,0.0,0.0,0.0,0.0,0.0,0.0,0.0,0.0,0.0,0.0,0.0,0.0,0.0,0.0,0.0,0.0,0.0,0.0,0.0,0.0
1.008939487844645,0.7857539793914564,0.1989958885128091,-0.6607073618950325,-0.7593562710644081,-0.7077809702566676,-0.6329911725759964,-0.49263935468000924,-0.26249337611375084,-0.057395305831248966,0.05014324894473728,0.07831831447190636,0.07556026624621497,0.10239186416172175,0.10443549854703353,0.11197311962042227,0.08574072357061659,0.07113381856973305,0.06819115085399016,0.06485478836041801,0.04604104742261065,0.011782333417366538,-0.00463094120177878,-0.015264756125237066,-0.017068654571567664,-0.04025388735794431,-0.05758428405652387,-0.05694343292759283,-0.09576006616206888,-0.1286607354198904,-0.13748602282811728,-0.14943220044241295,-0.15238934095141038,-0.1614612791501923,-0.17361103724251956,-0.18882624077343904,-0.21616633253543605,-0.2525970352001168,-0.2890374892726926,-0.3103600709384674,-0.32562658313527926,-0.33785177566587954,-0.36516873015767093,-0.3591905910950195,-0.3471204382037058,-0.3561609211873534,-0.3469947062632364,-0.3589188879593671,-0.35866330329112556,-0.34621739566571735,-0.37599570045501557,-0.3572782035455029,-0.30819380810508284,-0.3557221127452861,-0.35169195162892475,-0.33237393537784643,-0.3158968655095237,-0.2720114577524214,-0.24303591753019865,-0.22291066628989523,-0.19952940896423127,-0.20916470649234664,-0.22156987428217803,-0.2216171418756969,-0.22139214023295553,-0.18460296830896622,-0.14752568727756218,-0.15248448327288777,-0.1541190956241937,-0.17359029576289278,-0.19577620991547506,-0.2025322323496909,-0.20897456237463582,-0.2332437972859259,-0.23603215360462057,-0.16593790564311828,-0.19530908310613676,-0.2546036731313712,-0.31056410756096736,-0.3571460544861576,-0.3459744799132482,-0.30124140991667825,-0.2743516499659389,-0.29856844867885485,-0.3134226990836002,-0.309847409253329,-0.3241303533799796,-0.31999223387934295,-0.3609339376422069,-0.3683455705272488,-0.36944394921456286,-0.36725549201926955,-0.3496870265279548,-0.35302238137900044,-0.32585992759919813,-0.33169626286755316,-0.34331900905950347,-0.35468136418168245,-0.34461839632853225,-0.30103608393130843,-0.2995259381461634,-0.27961605853283145,-0.25037847887340664,-0.22693288284484364,-0.22742311287938435,-0.22161545282552594,-0.20044228402871103,-0.19112030100698427,-0.16341786016522572,-0.16874234346874642,-0.17384024394457026,-0.14848262155568553,-0.14105601089832528,-0.10923885765168616,0.0,0.0,0.0,0.0,0.0,0.0,0.0,0.0,0.0,0.0,0.0,0.0,0.0,0.0,0.0,0.0,0.0,0.0,0.0,0.0,0.0,0.0,0.0,0.0,0.0,0.0,0.0,0.0,0.0,0.0,0.0,0.0,0.0,0.0,0.0,0.0,0.0,0.0,0.0,0.0,0.0,0.0,0.0,0.0,0.0,0.0,0.0,0.0,0.0,0.0,0.0,0.0,0.0,0.0,0.0,0.0,0.0,0.0,0.0,0.0,0.0,0.0,0.0,0.0,0.0,0.0,0.0,0.0,0.0,0.0,0.0,0.0,0.0,0.0,0.0,0.0,0.0,0.0,0.0,0.0,0.0,0.0,0.0,0.0,0.0,0.0,0.0,0.0,0.0,0.0,0.0,0.0,0.0,0.0,0.0,0.0,0.0,0.0,0.0,0.0,0.0,0.0,0.0,0.0,0.0,0.0,0.0,0.0,0.0,0.0,0.0,0.0,0.0,0.0,0.0,0.0,0.0,0.0,0.0,0.0,0.0,0.0,0.0,0.0,0.0,0.0,0.0,0.0,0.0,0.0,0.0,0.0,0.0,0.0,0.0,0.0,0.0,0.0,0.0,0.0,0.0,0.0,0.0,0.0,0.0,0.0,0.0,0.0,0.0,0.0,0.0,0.0,0.0,0.0,0.0,0.0,0.0,0.0,0.0,0.0,0.0,0.0,0.0,0.0,0.0,0.0,0.0,0.0,0.0,0.0,0.0,0.0,0.0,0.0,0.0,0.0,0.0,0.0,0.0,0.0,0.0,0.0,0.0,0.0,0.0,0.0,0.0
0.6809697039636473,0.49290397114930407,-0.049688425326466945,-0.6324321316070713,-0.8925751214744579,-0.8513409213309265,-0.6417765371426712,-0.3878108785899442,-0.25265286492309197,-0.11226272033321806,0.021335141196479095,-0.03623223398967231,-0.055101365679691,0.03131321849591308,0.1021299787900267,0.15438730134061474,0.1518612777133533,0.15508184869628333,0.16712731322889152,0.18502614686626848,0.20882785353419897,0.19927195345039633,0.18361517057746446,0.17096963523320158,0.17044478633934274,0.1911474346492362,0.22403994140726038,0.1633255443213283,0.06648100326288563,0.0695950586697008,0.13035974293350774,0.06737765008685685,-0.03769460346662325,0.005648432257202938,0.037168692408605535,-0.10337368942451682,-0.18617132357413935,-0.2172617883667626,-0.26315625114190566,-0.21499560125702039,-0.18464671051391887,-0.21140985319730593,-0.22271157256210547,-0.2276173359759116,-0.26542964384337864,-0.28474251197855244,-0.29764678624436736,-0.3101863874564657,-0.3314291588442403,-0.3492777047330575,-0.32744564700292994,-0.32035575428969576,-0.346147283391513,-0.35643964144360984,-0.3542541127320199,-0.3698245488080787,-0.3033683981915021,-0.275827194059272,-0.23579539840072472,-0.180246064628978,-0.13034193912013822,-0.21912122145663743,-0.2591176761194639,-0.1777639637476182,-0.07181691305032448,-0.04408151189214109,-0.07339503194694756,-0.053934452632078016,-0.006870927463711768,0.022433787774253654,0.04606530755430298,0.027729163620230483,0.03695619053057819,0.06768437769107685,0.0836133831315811,0.07565348908708848,0.05285461037029853,0.051477246153496435,0.0473071114662793,0.05845881321640119,0.05769038854377887,0.03892327026635169,0.05352593865186087,0.06820306086228932,0.040586351127302175,-0.008198206782052514,0.0246116024950325,0.10571258225397893,0.1655159914823303,0.22816354443611872,0.2875579811964953,0.38900096227369124,0.4356799826766694,0.4880079601178791,0.461259268871023,0.07416764356415727,-0.5584407708924743,-0.9951891423801557,-0.682806698874494,-0.4255749785011849,-0.2506695526734023,-0.15502288299064543,-0.10835521507761929,-0.06829324345493915,-0.07712673935655188,-0.07736687406384445,-0.06292804111172966,-0.051915119140730916,-0.038245346851606056,-0.07026294858421102,0.02138815680605622,0.05229706114418714,-0.025885344269612663,-0.049855590017661766,0.0,0.0,0.0,0.0,0.0,0.0,0.0,0.0,0.0,0.0,0.0,0.0,0.0,0.0,0.0,0.0,0.0,0.0,0.0,0.0,0.0,0.0,0.0,0.0,0.0,0.0,0.0,0.0,0.0,0.0,0.0,0.0,0.0,0.0,0.0,0.0,0.0,0.0,0.0,0.0,0.0,0.0,0.0,0.0,0.0,0.0,0.0,0.0,0.0,0.0,0.0,0.0,0.0,0.0,0.0,0.0,0.0,0.0,0.0,0.0,0.0,0.0,0.0,0.0,0.0,0.0,0.0,0.0,0.0,0.0,0.0,0.0,0.0,0.0,0.0,0.0,0.0,0.0,0.0,0.0,0.0,0.0,0.0,0.0,0.0,0.0,0.0,0.0,0.0,0.0,0.0,0.0,0.0,0.0,0.0,0.0,0.0,0.0,0.0,0.0,0.0,0.0,0.0,0.0,0.0,0.0,0.0,0.0,0.0,0.0,0.0,0.0,0.0,0.0,0.0,0.0,0.0,0.0,0.0,0.0,0.0,0.0,0.0,0.0,0.0,0.0,0.0,0.0,0.0,0.0,0.0,0.0,0.0,0.0,0.0,0.0,0.0,0.0,0.0,0.0,0.0,0.0,0.0,0.0,0.0,0.0,0.0,0.0,0.0,0.0,0.0,0.0,0.0,0.0,0.0,0.0,0.0,0.0,0.0,0.0,0.0,0.0,0.0,0.0,0.0,0.0,0.0,0.0,0.0,0.0,0.0,0.0,0.0,0.0,0.0,0.0,0.0,0.0,0.0,0.0,0.0,0.0,0.0,0.0,0.0,0.0,0.0
0.4734206474431327,0.18274318186822963,-0.4074104756444686,-0.7088165420958321,-0.511179438829407,-0.3403246068097371,-0.15678889915235236,-0.13800841625394147,-0.13934922716119885,-0.14106266571388612,-0.1299736526594291,-0.12577216957046936,-0.1350032199416278,-0.1313482383333617,-0.14107236229213116,-0.16415000317107534,-0.14140044440346164,-0.15824671537124846,-0.16865513906306642,-0.21203997834200175,-0.21607726526789817,-0.25304653839941404,-0.2769159977601478,-0.24165399117362107,-0.1932490836125839,-0.17111717419125888,-0.14237303197801973,-0.14643356032102864,-0.14384191628167065,-0.13457916151325916,-0.12848635742391973,-0.11897312900561963,-0.10602274247233973,-0.07975997627325114,-0.053315538950578216,-0.01024323548394178,-0.006399594140927672,0.0009505543122311943,-0.004614837516015771,0.009777294856289483,0.00798348443022573,0.009728202567863168,0.008442985196492206,0.010703647812147568,0.01651168004213781,0.029153540273511122,0.022336273506964873,0.00591615435940276,-0.003679196645067375,0.00011709247249732514,-0.025426030604486387,-0.057312325598818895,-0.08897901468872646,-0.10071870528104972,-0.11554863195787908,-0.11376327970268416,-0.1315273690684697,-0.15242349985496875,-0.14360285070471815,-0.14451882800841578,-0.1486154388268183,-0.1460509453485639,-0.10726566785415287,-0.061856444992646926,-0.01970238025382501,0.07504502533400416,0.20921781469936582,0.3762191131342301,0.49714800997583375,0.6015526656828014,0.5612284470326308,0.162518981931459,-0.7457940499881596,-0.3825072320925206,-0.2100847964881138,-0.18250767715186877,-0.17488272321511555,-0.18062895548476013,-0.18002019214433504,-0.1664765025075815,-0.19914717503175403,-0.2122975370216753,-0.22564065115432544,-0.23917131978805511,-0.29232185383768977,-0.2930673689703502,-0.3071309528051751,-0.3016416398631299,-0.2963090998138201,-0.2845497115059887,-0.2663514226647509,-0.27456634951822706,-0.29603659522173675,-0.2978856912679084,-0.2866731170196089,-0.2821026415610749,-0.27758616516535145,-0.2862542024884481,-0.13062404527376945,-0.08345427628639171,-0.05599635403855007,-0.031804309636758066,-0.024011225033710854,0.00025865815513239666,0.02458327567892755,0.048971325513890905,0.060284228444874,0.07495966516282333,0.09628786066255682,0.12427081679735921,0.11947141722148226,0.09831991148255945,0.09039027998089563,0.08910381006810106,0.08459348880117892,0.09656836248080494,0.10529841768048062,0.09762461572046663,0.09982320212343682,0.0855855562868838,0.07132480449738464,0.0997437145658639,0.1083773547076339,0.10377402290927211,0.15820876844982754,0.22235660221367962,0.332337649084169,0.458540802917151,0.0,0.0,0.0,0.0,0.0,0.0,0.0,0.0,0.0,0.0,0.0,0.0,0.0,0.0,0.0,0.0,0.0,0.0,0.0,0.0,0.0,0.0,0.0,0.0,0.0,0.0,0.0,0.0,0.0,0.0,0.0,0.0,0.0,0.0,0.0,0.0,0.0,0.0,0.0,0.0,0.0,0.0,0.0,0.0,0.0,0.0,0.0,0.0,0.0,0.0,0.0,0.0,0.0,0.0,0.0,0.0,0.0,0.0,0.0,0.0,0.0,0.0,0.0,0.0,0.0,0.0,0.0,0.0,0.0,0.0,0.0,0.0,0.0,0.0,0.0,0.0,0.0,0.0,0.0,0.0,0.0,0.0,0.0,0.0,0.0,0.0,0.0,0.0,0.0,0.0,0.0,0.0,0.0,0.0,0.0,0.0,0.0,0.0,0.0,0.0,0.0,0.0,0.0,0.0,0.0,0.0,0.0,0.0,0.0,0.0,0.0,0.0,0.0,0.0,0.0,0.0,0.0,0.0,0.0,0.0,0.0,0.0,0.0,0.0,0.0,0.0,0.0,0.0,0.0,0.0,0.0,0.0,0.0,0.0,0.0,0.0,0.0,0.0,0.0,0.0,0.0,0.0,0.0,0.0,0.0,0.0,0.0,0.0,0.0,0.0,0.0,0.0,0.0,0.0,0.0,0.0,0.0,0.0,0.0,0.0,0.0,0.0,0.0,0.0,0.0,0.0,0.0,0.0,0.0,0.0,0.0,0.0,0.0
0.7912359803857004,0.6414721954156103,0.16274027678731748,-0.41167374857808114,-0.8484860804934861,-0.4805911963870793,-0.284047470425555,-0.1470843804253424,-0.04337858538826607,-0.015622563449315228,0.005228811676995171,0.0027720132809354965,-0.0032471361073732508,-0.006229982092863114,0.006993603543786225,0.0035822727908894933,-0.003296676015568689,-0.020195987347139968,-0.04381049629283092,-0.04125843219898889,-0.0355286186721745,-0.033178909506436864,-0.03748195857475287,-0.045138796266980225,-0.04299237266401889,-0.04746474298073866,-0.07497916050276002,-0.08280421863392926,-0.10379756105854294,-0.12152130081352425,-0.12282488029119822,-0.12085002979474395,-0.12545284322496045,-0.11362587015918206,-0.12809115215500091,0.0,0.0,0.0,0.0,0.0,0.0,0.0,0.0,0.0,0.0,0.0,0.0,0.0,0.0,0.0,0.0,0.0,0.0,0.0,0.0,0.0,0.0,0.0,0.0,0.0,0.0,0.0,0.0,0.0,0.0,0.0,0.0,0.0,0.0,0.0,0.0,0.0,0.0,0.0,0.0,0.0,0.0,0.0,0.0,0.0,0.0,0.0,0.0,0.0,0.0,0.0,0.0,0.0,0.0,0.0,0.0,0.0,0.0,0.0,0.0,0.0,0.0,0.0,0.0,0.0,0.0,0.0,0.0,0.0,0.0,0.0,0.0,0.0,0.0,0.0,0.0,0.0,0.0,0.0,0.0,0.0,0.0,0.0,0.0,0.0,0.0,0.0,0.0,0.0,0.0,0.0,0.0,0.0,0.0,0.0,0.0,0.0,0.0,0.0,0.0,0.0,0.0,0.0,0.0,0.0,0.0,0.0,0.0,0.0,0.0,0.0,0.0,0.0,0.0,0.0,0.0,0.0,0.0,0.0,0.0,0.0,0.0,0.0,0.0,0.0,0.0,0.0,0.0,0.0,0.0,0.0,0.0,0.0,0.0,0.0,0.0,0.0,0.0,0.0,0.0,0.0,0.0,0.0,0.0,0.0,0.0,0.0,0.0,0.0,0.0,0.0,0.0,0.0,0.0,0.0,0.0,0.0,0.0,0.0,0.0,0.0,0.0,0.0,0.0,0.0,0.0,0.0,0.0,0.0,0.0,0.0,0.0,0.0,0.0,0.0,0.0,0.0,0.0,0.0,0.0,0.0,0.0,0.0,0.0,0.0,0.0,0.0,0.0,0.0,0.0,0.0,0.0,0.0,0.0,0.0,0.0,0.0,0.0,0.0,0.0,0.0,0.0,0.0,0.0,0.0,0.0,0.0,0.0,0.0,0.0,0.0,0.0,0.0,0.0,0.0,0.0,0.0,0.0,0.0,0.0,0.0,0.0,0.0,0.0,0.0,0.0,0.0,0.0,0.0,0.0,0.0,0.0,0.0,0.0,0.0,0.0,0.0,0.0,0.0,0.0,0.0,0.0,0.0,0.0,0.0,0.0,0.0,0.0,0.0,0.0,0.0,0.0,0.0,0.0,0.0,0.0,0.0,0.0,0.0,0.0,0.0,0.0,0.0,0.0,0.0,0.0
0.90542400798783,0.5386343893980121,-0.0987355589396243,-0.5852131812104164,-0.7328476354035703,-0.6630006423994126,-0.5515825139977154,-0.35611241691932366,-0.1766247153512675,-0.07069055550348242,-0.013997812031529564,0.011698995932399637,0.045873058462037354,0.04307933522861279,0.05795136973304134,0.0571715807113424,0.04684616112373025,0.048243182367984985,0.03410515923191892,0.02266390418986924,0.016985848878879207,-0.013224323459207349,-0.04670700068796064,-0.04704034025386445,-0.07788412527940572,-0.08158992826551453,-0.10665626642489513,-0.12273159805050919,-0.1267600083082712,-0.13085017901760349,-0.1471116812059008,-0.14216389274722555,-0.1432817281791833,-0.15651175200305287,-0.16970491055530582,-0.17374562808236463,-0.17771542807829377,-0.1694673260921544,-0.17931329655363604,-0.1708457654284837,-0.19257443402348265,-0.21112576098579314,-0.2355850895481742,-0.25380906809771697,-0.26275290248616945,-0.2593720525279532,-0.2891459866521395,-0.28837585085046863,-0.305574154438541,-0.3013041015005117,-0.30891450278485305,-0.30413217377430635,-0.2869454199116895,-0.27857171121184277,-0.26383575644216006,-0.2305951319801901,-0.2212968923252551,-0.21470097533440005,-0.19563321030961592,-0.16105082589881822,-0.13823897019885237,-0.1271888719141779,-0.10969616679823674,-0.08272106497160911,-0.052322963464145826,-0.0336605810904772,-0.0358284231370367,-0.03152950006700575,-0.02076280335573495,-0.030823326985359716,-0.04654915968225815,-0.025485121917917065,-0.01919218570763778,-0.04283986912076552,-0.04184615567770584,-0.0040886621572873766,0.006735244367006881,0.014876080617196124,-0.006973730200781586,-0.013337663212683707,-0.013329955976172923,-0.006968089986520035,0.01785994674555706,0.024740878670627988,0.05004551698823644,0.06039006458949386,0.09820738764733104,0.11494640355543907,0.150003402022762,0.16695413850079321,0.16273220748366596,0.1767271701365609,0.19070423920236876,0.24101549507265688,0.3094212673172411,0.4140720069488085,0.5488531951801214,0.6318282833384747,0.7296605910513133,0.8058956821329626,0.8513685862330479,0.5839624090520633,-0.011564627019128828,-0.5804647722047231,-0.8983994527237533,-0.7015783008051024,-0.43884784114564857,-0.23451397736140775,-0.10672404855136909,-0.04936384456707472,0.0043346045660963865,0.05441776849864576,0.046341297907496366,0.04686854680058387,0.025713515729044747,0.013243197107202329,0.0034300822454257727,-0.0036894518485216868,-0.04144068039296669,-0.03397183458190764,-0.032807434763219165,-0.037916817601772505,-0.058368891115369505,-0.06077557229598392,-0.09666665819865722,-0.08413271673792677,-0.08683675361649704,-0.11688634004965795,0.0,0.0,0.0,0.0,0.0,0.0,0.0,0.0,0.0,0.0,0.0,0.0,0.0,0.0,0.0,0.0,0.0,0.0,0.0,0.0,0.0,0.0,0.0,0.0,0.0,0.0,0.0,0.0,0.0,0.0,0.0,0.0,0.0,0.0,0.0,0.0,0.0,0.0,0.0,0.0,0.0,0.0,0.0,0.0,0.0,0.0,0.0,0.0,0.0,0.0,0.0,0.0,0.0,0.0,0.0,0.0,0.0,0.0,0.0,0.0,0.0,0.0,0.0,0.0,0.0,0.0,0.0,0.0,0.0,0.0,0.0,0.0,0.0,0.0,0.0,0.0,0.0,0.0,0.0,0.0,0.0,0.0,0.0,0.0,0.0,0.0,0.0,0.0,0.0,0.0,0.0,0.0,0.0,0.0,0.0,0.0,0.0,0.0,0.0,0.0,0.0,0.0,0.0,0.0,0.0,0.0,0.0,0.0,0.0,0.0,0.0,0.0,0.0,0.0,0.0,0.0,0.0,0.0,0.0,0.0,0.0,0.0,0.0,0.0,0.0,0.0,0.0,0.0,0.0,0.0,0.0,0.0,0.0,0.0,0.0,0.0,0.0,0.0,0.0,0.0,0.0,0.0,0.0,0.0,0.0,0.0,0.0,0.0,0.0,0.0,0.0,0.0,0.0,0.0,0.0,0.0,0.0,0.0,0.0,0.0,0.0,0.0,0.0,0.0,0.0,0.0,0.0,0.0,0.0,0.0,0.0,0.0,0.0
0.8413589432579318,0.209004230209182,-0.40109587687835435,-0.6744674176327289,-0.6400436375454671,-0.551390149393535,-0.4309693036066639,-0.3269029201469125,-0.2969365841266304,-0.29611443909885443,-0.2923187762981738,-0.2758983253688871,-0.2468305578534065,-0.2307689136568997,-0.24052979991639886,-0.2343700959668162,-0.22510768620074292,-0.2383989155247629,-0.23571234273204522,-0.24591525781776927,-0.23689654051289444,-0.23431547755124618,-0.23815665707869244,-0.21631112381350298,-0.18802151052486293,-0.19499728740824337,-0.20513203735914698,-0.2184145738859759,-0.22199688622159972,-0.22549779050792293,-0.23853690977698241,-0.24184979659412956,-0.25468587418445837,-0.26741041354634687,-0.29285533123070695,-0.30854940601369507,-0.3080690136317618,-0.30424747718375483,-0.32275621178792635,-0.3443350239850229,-0.33046745017443163,-0.32929180151187093,-0.3472240783481664,-0.381052264832267,-0.40188909488747465,-0.40331331615767146,-0.3917396329293365,-0.39604685744795554,-0.38413385873351813,-0.3848774505483266,-0.37901294146764525,-0.3665320705605007,-0.34742659870577597,-0.36020151746629225,-0.3406602742271658,-0.320889298414809,-0.29446208655909817,-0.2966750229601865,-0.2825892146704239,-0.26824535081867845,-0.25042805122744394,-0.21629422474959142,-0.20114287805945916,-0.19855127789261937,-0.1892598866549079,-0.18289495072263037,-0.15057054057749453,-0.14042802204047375,-0.1364213475048548,-0.13213397071580973,-0.1147317224413815,-0.10026654950661883,-0.056650308865361404,-0.028822565952720845,-0.01358308673966751,-0.020571125448814544,-0.014495781047222295,-0.030675401715388236,-0.03061331596248909,-0.03358433549984884,-0.036399033739433075,-0.045498019663525374,-0.032019919536553226,-0.06017848630925203,-0.04976493044584227,-0.036111517801860595,-0.009620178068072137,-0.015254868084330844,-0.01453626277975282,0.011756549081458829,0.02828234370973661,0.06709592798022894,0.19876319695153022,0.3750989250463699,0.5447055471244525,0.6272968458239974,0.63244597181029,0.40924957876595774,-0.11296503691886217,-0.6229525061516851,-0.886495104828861,-0.7174937820625171,-0.529964889699787,-0.37522757570526866,-0.2724927732709669,-0.2120865964732746,-0.15224142507450858,-0.15068279032536405,-0.12392250875497109,-0.10401299976225617,-0.09733254902834652,-0.10384198129897906,-0.11708469378675442,-0.10172062151663398,-0.09943732390412986,-0.106991764421527,-0.12435175510153154,-0.125811058912772,-0.12417788040939305,-0.10658628098498917,-0.09226590674308965,-0.0940289299854274,-0.11506069194133316,-0.13929140733518677,-0.15065263246247154,-0.17800914825088035,-0.1892477506624376,-0.21002598219258162,-0.217860922885401,-0.21915537938193216,-0.25240727461793444,-0.25341362870755824,-0.2638832693948969,0.0,0.0,0.0,0.0,0.0,0.0,0.0,0.0,0.0,0.0,0.0,0.0,0.0,0.0,0.0,0.0,0.0,0.0,0.0,0.0,0.0,0.0,0.0,0.0,0.0,0.0,0.0,0.0,0.0,0.0,0.0,0.0,0.0,0.0,0.0,0.0,0.0,0.0,0.0,0.0,0.0,0.0,0.0,0.0,0.0,0.0,0.0,0.0,0.0,0.0,0.0,0.0,0.0,0.0,0.0,0.0,0.0,0.0,0.0,0.0,0.0,0.0,0.0,0.0,0.0,0.0,0.0,0.0,0.0,0.0,0.0,0.0,0.0,0.0,0.0,0.0,0.0,0.0,0.0,0.0,0.0,0.0,0.0,0.0,0.0,0.0,0.0,0.0,0.0,0.0,0.0,0.0,0.0,0.0,0.0,0.0,0.0,0.0,0.0,0.0,0.0,0.0,0.0,0.0,0.0,0.0,0.0,0.0,0.0,0.0,0.0,0.0,0.0,0.0,0.0,0.0,0.0,0.0,0.0,0.0,0.0,0.0,0.0,0.0,0.0,0.0,0.0,0.0,0.0,0.0,0.0,0.0,0.0,0.0,0.0,0.0,0.0,0.0,0.0,0.0,0.0,0.0,0.0,0.0,0.0,0.0,0.0,0.0,0.0,0.0,0.0,0.0,0.0,0.0,0.0,0.0,0.0,0.0,0.0,0.0,0.0,0.0,0.0,0.0,0.0,0.0,0.0,0.0
0.6691240294031993,0.06781299006045438,-0.534140599007192,-0.8138556998522248,-0.8072859939884782,-0.7118282139630612,-0.5932655044729287,-0.39474763155823184,-0.21490760789145913,-0.09257096427237878,-0.042641211645155934,-0.014235129495072113,0.022595957694964825,0.035000715127511725,0.014048640342900976,-0.028260379039296877,-0.026101777977650634,-0.018316254905514303,-0.02281381266453868,-0.051525698606035154,-0.059567918112439375,-0.07083706089737633,-0.08530847351731691,-0.10594962513861227,-0.13273927471093167,-0.13575394564875473,-0.1538503396298702,-0.1690693516625258,-0.1813954854722057,-0.18483373552857105,-0.19432294752754004,-0.19788971744403966,-0.23140784995469232,-0.2320697091012224,-0.24173190666278557,-0.2633770475786787,-0.2940078642196007,-0.32165672792719835,-0.34332777726848207,-0.38592944143475666,-0.419553305078628,-0.4023295988269302,-0.40901335954602935,-0.41268678103323597,-0.44623971327449613,-0.4558410125745392,-0.44447420157384954,-0.46296541642098354,-0.4514943341778712,-0.4429382721173971,-0.4342869273819687,-0.4105662316874112,-0.4225890593042147,-0.4015531188421502,-0.38032873558012,-0.3469306200706184,-0.32824862083464584,-0.28239420290129014,-0.23924841225096743,-0.21075069804501512,-0.19089912835464506,-0.17070243382326436,-0.15911276856757284,-0.14714124834403688,-0.13178105037521506,-0.1309593743811088,-0.10877801351140448,-0.1070900887828491,-0.10495228895280954,-0.11132666623614298,-0.08434038065594887,-0.1077181020219256,-0.1246383039690593,-0.15902128444050795,-0.16002930887959751,-0.16055659075666376,-0.1576140771389347,-0.15120438910586942,-0.14133145622697654,-0.14594283001875377,-0.17700669143135261,-0.18668498356621258,-0.16900618433824896,-0.16584601855389294,-0.1652546183235911,-0.17322566449663174,-0.18080220703589725,-0.18500928680588255,-0.18287313722048248,-0.17740192367709284,-0.17459537400260836,-0.18045442557474053,-0.1890197184157666,-0.15545814378452238,-0.13062991191368345,-0.12353122901914299,-0.13418860402342017,-0.1357166026405755,-0.1341253987843331,-0.10851316223309017,-0.097787093393683,-0.10497138385057314,-0.10019765023094171,-0.0835028832129846,-0.08482947139458061,-0.06833311725513036,-0.05199803991261036,-0.04184869244084679,-0.019988322605902466,0.00755489263118801,0.0975487646203151,0.2828359284984718,0.5274776896991457,0.7686184208029975,0.4410138810038239,-0.20421230607039953,-0.6797007798762971,-0.8031120393138856,-0.7569082349968479,-0.6637074518484026,-0.4995670716549679,-0.3003288633383023,-0.1616345762916231,-0.07147286637327059,-0.02082405806388847,0.011291305898775288,0.0,0.0,0.0,0.0,0.0,0.0,0.0,0.0,0.0,0.0,0.0,0.0,0.0,0.0,0.0,0.0,0.0,0.0,0.0,0.0,0.0,0.0,0.0,0.0,0.0,0.0,0.0,0.0,0.0,0.0,0.0,0.0,0.0,0.0,0.0,0.0,0.0,0.0,0.0,0.0,0.0,0.0,0.0,0.0,0.0,0.0,0.0,0.0,0.0,0.0,0.0,0.0,0.0,0.0,0.0,0.0,0.0,0.0,0.0,0.0,0.0,0.0,0.0,0.0,0.0,0.0,0.0,0.0,0.0,0.0,0.0,0.0,0.0,0.0,0.0,0.0,0.0,0.0,0.0,0.0,0.0,0.0,0.0,0.0,0.0,0.0,0.0,0.0,0.0,0.0,0.0,0.0,0.0,0.0,0.0,0.0,0.0,0.0,0.0,0.0,0.0,0.0,0.0,0.0,0.0,0.0,0.0,0.0,0.0,0.0,0.0,0.0,0.0,0.0,0.0,0.0,0.0,0.0,0.0,0.0,0.0,0.0,0.0,0.0,0.0,0.0,0.0,0.0,0.0,0.0,0.0,0.0,0.0,0.0,0.0,0.0,0.0,0.0,0.0,0.0,0.0,0.0,0.0,0.0,0.0,0.0,0.0,0.0,0.0,0.0,0.0,0.0,0.0,0.0,0.0,0.0,0.0,0.0,0.0,0.0,0.0,0.0,0.0,0.0,0.0,0.0,0.0,0.0,0.0,0.0,0.0,0.0,0.0,0.0,0.0
0.6068266579311128,0.19375739756494728,-0.4139071606581438,-0.8523001784086741,-0.5634492358445702,-0.3752909012974908,-0.2544397137360801,-0.15840528426353662,-0.11445043638852918,-0.07402028808390106,-0.07044481951713974,-0.06730220216628131,-0.05849915290024603,-0.06827094969192483,-0.075363039116007,-0.07368573670393115,-0.1056743035511025,-0.10458660674717403,-0.10982731914268107,-0.12744200159547509,-0.11798612692437473,-0.13906365248850078,-0.1421336575999674,-0.15144174831736257,-0.16090696843203275,-0.16141639007390052,-0.183283390835118,-0.20829826486275319,-0.23644833765911433,-0.25862320386110965,-0.256614586489883,-0.27893466259390126,-0.2831137253358107,-0.29036968288759035,-0.2915931762536391,-0.28374039251934924,-0.27893127111572935,-0.28322038085844625,-0.29053146907203825,-0.2917556525264567,-0.28991506818510854,-0.3031956045446362,-0.316423111466691,-0.32048892076430896,-0.3062832412072045,-0.29502214687685396,-0.28062691495281583,-0.2630843454333216,-0.2302504083472556,-0.24883245528790385,-0.2520977613338683,-0.24003410454481702,-0.23992416264589633,-0.251756299053473,-0.23609361358205716,-0.2384161191721867,-0.22838573478692709,-0.20295934746303268,-0.1803233875414754,-0.15743563134962676,-0.12215626422384436,-0.11693548162288456,-0.09627500487199109,-0.08746319268373573,-0.0995930206394996,-0.10536570048435347,-0.07748346900627913,-0.061435258229491745,-0.06935102370121146,-0.09819824949689775,-0.08125810927027395,-0.06705683219830645,-0.07379438956846195,-0.0772136159423059,-0.10461503674931491,-0.11658009022357152,-0.13434596374592322,-0.1518561476585101,-0.1327276089746999,-0.14065841463812864,-0.1332016798380155,-0.12250061377206192,-0.11766654517688782,-0.08232065138360703,-0.0801653806016142,-0.07482395624206868,-0.07237904834699532,-0.08194721330734869,-0.04895868195222392,-0.03712155934983703,-0.03129405480489299,-0.04059761470788786,-0.03169672753730353,-0.004617313859226791,0.007253229168215118,0.022082541297294606,0.07623312777030468,0.11508373658791513,0.187124285240832,0.28625331850052294,0.43062882219458903,0.5929147659655732,0.5274143461337276,-0.03583562824811365,-1.008939487844645,-0.4661640059682054,-0.29386003192786664,-0.21905399458831706,-0.1719657863887818,-0.12224131449558483,-0.10018189846806741,-0.10272965759934807,-0.08740214629200946,-0.07540541498299229,-0.08794660010651983,-0.09467744724590992,-0.08951268494506796,-0.08456451613285795,-0.11317538140761067,-0.1237721726535813,-0.11633927571797695,-0.10905840535933628,-0.12011221764783325,-0.13129149684126848,-0.12742068710506543,-0.12061973630144765,-0.10784579089373425,-0.08605691725457673,0.0,0.0,0.0,0.0,0.0,0.0,0.0,0.0,0.0,0.0,0.0,0.0,0.0,0.0,0.0,0.0,0.0,0.0,0.0,0.0,0.0,0.0,0.0,0.0,0.0,0.0,0.0,0.0,0.0,0.0,0.0,0.0,0.0,0.0,0.0,0.0,0.0,0.0,0.0,0.0,0.0,0.0,0.0,0.0,0.0,0.0,0.0,0.0,0.0,0.0,0.0,0.0,0.0,0.0,0.0,0.0,0.0,0.0,0.0,0.0,0.0,0.0,0.0,0.0,0.0,0.0,0.0,0.0,0.0,0.0,0.0,0.0,0.0,0.0,0.0,0.0,0.0,0.0,0.0,0.0,0.0,0.0,0.0,0.0,0.0,0.0,0.0,0.0,0.0,0.0,0.0,0.0,0.0,0.0,0.0,0.0,0.0,0.0,0.0,0.0,0.0,0.0,0.0,0.0,0.0,0.0,0.0,0.0,0.0,0.0,0.0,0.0,0.0,0.0,0.0,0.0,0.0,0.0,0.0,0.0,0.0,0.0,0.0,0.0,0.0,0.0,0.0,0.0,0.0,0.0,0.0,0.0,0.0,0.0,0.0,0.0,0.0,0.0,0.0,0.0,0.0,0.0,0.0,0.0,0.0,0.0,0.0,0.0,0.0,0.0,0.0,0.0,0.0,0.0,0.0,0.0,0.0,0.0,0.0,0.0,0.0,0.0,0.0,0.0,0.0,0.0,0.0,0.0,0.0,0.0,0.0,0.0,0.0
0.1129197834089252,0.3240370478608621,0.6115723676556006,0.5090485697839657,0.06364476386381761,-0.4767233979910649,-0.8877594112180702,-0.8270802913738287,-0.6164781575882233,-0.4655295209177737,-0.38895711157661983,-0.29225447688486433,-0.24327970794265477,-0.24199385036497653,-0.2381736162922957,-0.2317820379283718,-0.1991665402381015,-0.19047754215780166,-0.20568134971510874,-0.18865604376170256,-0.1895556860415884,-0.1522607986760446,-0.15940082172445713,-0.19028391545584336,-0.16517809249073367,-0.16376482473955065,-0.16535631759201252,-0.19945148764625897,-0.19517998408859993,-0.19385162385924762,-0.16887966378571564,-0.16157638860674253,-0.1512618101622359,-0.16744266244270592,-0.16287310534843444,-0.1434460694550697,-0.1534328895807463,-0.17511275481273947,-0.22028707211349058,-0.2210524772443565,-0.23349398096720583,-0.21923120386354555,-0.2195909076388538,-0.23161979647887623,-0.2553177609492362,-0.2847815842825915,-0.32001313531334424,-0.349206754021726,-0.3576053089444413,-0.37768537476083663,-0.42421147746519833,-0.4440506704121611,-0.43720749378765067,-0.4391111603248753,-0.4556701246365261,-0.48688869654550937,-0.4648720296092047,-0.44866029385991685,-0.43234570673958433,-0.41887601961800264,-0.37872617219725263,-0.3827418633861246,-0.3689256014148424,-0.36679460082272103,-0.3320644915960247,-0.29425322262962317,-0.31830422324780844,-0.3038452980435893,-0.2685879808124649,-0.23910072617012615,-0.19176752871638064,-0.16201495114834977,-0.16460625881086238,-0.16116871204187905,-0.1428517331876802,-0.13032692379059968,-0.12360283261965668,-0.0990729404384696,-0.05674893932384145,-0.03797332245201887,-0.019144792897907027,0.023335929651918254,0.1130660147565627,0.1850779731332086,0.2895325800798715,0.6625683839628027,0.4923326400798249,0.023810956904203196,-0.5393448152181444,-0.7750313901205187,-0.65376252183185,-0.4973175243662184,-0.33519981962832907,-0.24414075314357636,-0.1975494759518813,-0.1658840470115491,-0.16093283399765132,-0.15906064736971057,-0.1779627893872255,-0.18515064993047828,-0.19832225909834963,-0.20565614915342273,-0.23370907935499807,-0.2529495078933851,-0.25155939802857735,-0.24724243331264315,-0.2429428566982779,-0.25046211497269294,-0.24617771241350175,-0.2507492753080225,-0.25826870482809616,-0.28054132201426846,-0.29690050662438044,-0.3073449871808771,-0.3177783698942197,-0.32229661930368386,-0.3415650182401768,-0.35196827668779546,-0.35941238184515956,-0.38161207897232047,-0.3920013549037072,-0.39943942916523345,-0.4039295341859225,-0.4113792673882005,-0.41884017945670654,-0.4204118928018926,-0.41314621996772927,-0.44723247932740146,-0.4813457164611522,-0.4889208022317274,-0.47586165916364825,-0.47168430824166285,-0.47933278597507567,0.0,0.0,0.0,0.0,0.0,0.0,0.0,0.0,0.0,0.0,0.0,0.0,0.0,0.0,0.0,0.0,0.0,0.0,0.0,0.0,0.0,0.0,0.0,0.0,0.0,0.0,0.0,0.0,0.0,0.0,0.0,0.0,0.0,0.0,0.0,0.0,0.0,0.0,0.0,0.0,0.0,0.0,0.0,0.0,0.0,0.0,0.0,0.0,0.0,0.0,0.0,0.0,0.0,0.0,0.0,0.0,0.0,0.0,0.0,0.0,0.0,0.0,0.0,0.0,0.0,0.0,0.0,0.0,0.0,0.0,0.0,0.0,0.0,0.0,0.0,0.0,0.0,0.0,0.0,0.0,0.0,0.0,0.0,0.0,0.0,0.0,0.0,0.0,0.0,0.0,0.0,0.0,0.0,0.0,0.0,0.0,0.0,0.0,0.0,0.0,0.0,0.0,0.0,0.0,0.0,0.0,0.0,0.0,0.0,0.0,0.0,0.0,0.0,0.0,0.0,0.0,0.0,0.0,0.0,0.0,0.0,0.0,0.0,0.0,0.0,0.0,0.0,0.0,0.0,0.0,0.0,0.0,0.0,0.0,0.0,0.0,0.0,0.0,0.0,0.0,0.0,0.0,0.0,0.0,0.0,0.0,0.0,0.0,0.0,0.0,0.0,0.0,0.0,0.0,0.0,0.0,0.0,0.0,0.0,0.0,0.0,0.0,0.0,0.0,0.0,0.0,0.0,0.0
0.676111664969589,0.2669551097746913,-0.3570426601606081,-0.7520835152459262,-0.8406362458117828,-0.4551069864389842,-0.2504148970279841,-0.09303850043437865,-0.023281955943352476,0.04581482417874694,0.0894657061548681,0.1015071454388913,0.09750199599039973,0.09921931242158472,0.09738603967284,0.08583130724715295,0.07390254849318684,0.07094542073304566,0.06767969973099035,0.07655165235841177,0.06034141975130688,0.03769990894261836,0.033484433446525685,0.025990358469948318,0.04938403045284589,0.06643768584223465,0.06475418752839114,0.05676693957657518,0.03317948270682933,-0.005994190477986468,0.0013389504411401318,-0.013098537241386867,-0.021360596391375424,-0.02033467148540632,-0.03794972235889627,-0.06799165122295345,-0.09493543482255924,-0.12188122198953895,-0.12399378598595172,-0.14472724317971838,-0.15614380366872513,-0.17997074125153695,-0.2099996481151086,-0.24002256346271167,-0.24831168572350343,-0.2565957454923591,-0.24935524832559514,-0.28867145190031085,-0.2845283650575923,-0.30210953984000877,-0.3103722352213252,-0.31862295817879455,-0.32064418321186633,-0.3040056511110436,-0.2780004247041205,-0.2674384144583727,-0.2567763534518356,-0.21805487432377754,-0.18539522328531208,-0.15877460032223034,-0.09781826743489681,-0.06768897561279962,-0.07146978304052351,-0.07499642597764461,-0.05341771279238547,-0.05638008444116913,-0.027994125669775955,-0.008596339598150638,-0.023004298599735504,0.009500057055803902,0.02684828890801626,0.029051114709731127,0.009909716043951453,0.00047211271823692806,-0.002359374699430202,0.023148445361781247,0.002502575994989367,-0.011526313622579634,-0.03445751933855098,-0.05387537847638981,-0.04184526529609028,-0.05113834730944365,-0.04140610379655368,-0.0343816557994003,-0.03007107149521124,-0.03468964908131753,-0.03582971809463905,-0.02108478149387346,-0.021505895367663723,-0.021584944313076435,-0.024439217442801562,-0.008355022581394799,0.017339832480857433,0.027796097212861214,0.032307390335311104,0.04326987224757183,0.048245974708597955,0.05962878649139479,0.05256147791891766,0.04564195970867882,0.05125847784241861,0.060069510517799476,0.04410776759499462,0.04990097241690876,0.06810278539235493,0.1048854082011581,0.10433880455560364,0.10367189274629691,0.12146755732472005,0.14837056985025318,0.18743985779118436,0.3193329481224163,0.544000367990873,0.7123963796081002,0.781008114305883,0.780814455264392,0.5844836297650498,0.055366531559441344,-0.48689816809963826,-0.8095861924791008,-0.6706405174627894,-0.48290260743356983,-0.2556522276622573,-0.078853573961067,0.022713667361670214,0.08634940797905923,0.11520779630487069,0.11864925719417069,0.0,0.0,0.0,0.0,0.0,0.0,0.0,0.0,0.0,0.0,0.0,0.0,0.0,0.0,0.0,0.0,0.0,0.0,0.0,0.0,0.0,0.0,0.0,0.0,0.0,0.0,0.0,0.0,0.0,0.0,0.0,0.0,0.0,0.0,0.0,0.0,0.0,0.0,0.0,0.0,0.0,0.0,0.0,0.0,0.0,0.0,0.0,0.0,0.0,0.0,0.0,0.0,0.0,0.0,0.0,0.0,0.0,0.0,0.0,0.0,0.0,0.0,0.0,0.0,0.0,0.0,0.0,0.0,0.0,0.0,0.0,0.0,0.0,0.0,0.0,0.0,0.0,0.0,0.0,0.0,0.0,0.0,0.0,0.0,0.0,0.0,0.0,0.0,0.0,0.0,0.0,0.0,0.0,0.0,0.0,0.0,0.0,0.0,0.0,0.0,0.0,0.0,0.0,0.0,0.0,0.0,0.0,0.0,0.0,0.0,0.0,0.0,0.0,0.0,0.0,0.0,0.0,0.0,0.0,0.0,0.0,0.0,0.0,0.0,0.0,0.0,0.0,0.0,0.0,0.0,0.0,0.0,0.0,0.0,0.0,0.0,0.0,0.0,0.0,0.0,0.0,0.0,0.0,0.0,0.0,0.0,0.0,0.0,0.0,0.0,0.0,0.0,0.0,0.0,0.0,0.0,0.0,0.0,0.0,0.0,0.0,0.0,0.0,0.0,0.0,0.0,0.0,0.0,0.0,0.0,0.0,0.0,0.0
0.5486506981148433,0.32961506642947863,-0.3320529667106083,-0.8861618493268403,-0.5074054841392526,-0.38894008159663374,-0.31843477294260275,-0.2809239367742976,-0.2405097944321784,-0.2240932441272038,-0.2436241769080463,-0.25722661569209515,-0.2589100246532891,-0.26660772027092267,-0.27134039892185335,-0.2581487600352729,-0.23898766501156268,-0.2706684845889872,-0.2903882817379259,-0.28020056616801897,-0.28495747713768044,-0.29568500523743096,-0.30340981283084084,-0.2842072792431398,-0.2919032494144261,-0.3235070193485886,-0.3461247197462062,-0.30293991845519685,-0.3075882226410587,-0.3271771898273886,-0.3467572175656045,-0.3693214454901105,-0.4217864178876566,-0.42640562078195504,-0.43102827499478225,-0.42668570300196007,-0.42833115611945377,-0.4449364247002118,-0.4585590201728705,-0.43032135801073895,-0.4230150532099742,-0.41869040854774386,-0.45322421924492706,-0.42792617306705033,-0.41754478974257375,-0.3951548426802882,-0.3517733955339705,-0.30533105485636847,-0.2617972439546882,-0.23910347698029621,-0.1953744509637769,-0.12761070703051375,-0.08963113045431842,-0.08441960102515507,-0.07010594341652222,-0.04668698005084727,-0.044065081728773804,-0.03233687768148362,-0.03841809783543207,-0.01745728135912473,0.0006356222402400116,-0.03199362722706433,-0.04059578006456529,-0.007240747628337265,-0.009692502367986354,-0.006101867699820049,-0.008448559363567153,0.004179823432195463,0.02278982481375354,0.08922233543858824,0.1585950086468747,0.3086285447314215,0.5063966857638127,0.7159791538777236,0.8685568600807166,1.0089394878446452,0.23697012711566323,-0.45161420458652274,-0.7428864646762517,-0.7296082537926795,-0.6570198249813292,-0.5430630553108918,-0.40266685938020275,-0.26270991638511115,-0.2068882132078523,-0.16937950800402068,-0.1531413664478276,-0.14618070270262992,-0.13949614202013785,-0.14801071718698208,-0.16272581819151988,-0.16567305082470815,-0.14785644451309762,-0.1690600422776679,-0.1873963164361149,-0.1849020324443575,-0.16753815721516696,-0.20107443440658515,-0.17484943269605988,-0.16958714697329455,-0.17929176763351826,-0.19497835346191025,-0.2285958249884965,-0.24424814065597303,-0.277809338122343,-0.2844140640270949,-0.3118994598007083,-0.30942079361703184,-0.303883756816547,-0.3251849704309522,-0.35537554887759903,-0.34660327486192355,-0.3526891787535485,-0.3586759090669106,-0.37951024977848646,-0.3822932042896454,-0.40589510064493944,-0.44433074846208664,-0.4258266592792397,-0.42513559936446005,-0.45122135093694893,-0.43828763711348906,-0.41921769737753906,-0.4029699266573013,-0.37757005870967747,-0.38188037299311955,0.0,0.0,0.0,0.0,0.0,0.0,0.0,0.0,0.0,0.0,0.0,0.0,0.0,0.0,0.0,0.0,0.0,0.0,0.0,0.0,0.0,0.0,0.0,0.0,0.0,0.0,0.0,0.0,0.0,0.0,0.0,0.0,0.0,0.0,0.0,0.0,0.0,0.0,0.0,0.0,0.0,0.0,0.0,0.0,0.0,0.0,0.0,0.0,0.0,0.0,0.0,0.0,0.0,0.0,0.0,0.0,0.0,0.0,0.0,0.0,0.0,0.0,0.0,0.0,0.0,0.0,0.0,0.0,0.0,0.0,0.0,0.0,0.0,0.0,0.0,0.0,0.0,0.0,0.0,0.0,0.0,0.0,0.0,0.0,0.0,0.0,0.0,0.0,0.0,0.0,0.0,0.0,0.0,0.0,0.0,0.0,0.0,0.0,0.0,0.0,0.0,0.0,0.0,0.0,0.0,0.0,0.0,0.0,0.0,0.0,0.0,0.0,0.0,0.0,0.0,0.0,0.0,0.0,0.0,0.0,0.0,0.0,0.0,0.0,0.0,0.0,0.0,0.0,0.0,0.0,0.0,0.0,0.0,0.0,0.0,0.0,0.0,0.0,0.0,0.0,0.0,0.0,0.0,0.0,0.0,0.0,0.0,0.0,0.0,0.0,0.0,0.0,0.0,0.0,0.0,0.0,0.0,0.0,0.0,0.0,0.0,0.0,0.0,0.0,0.0,0.0,0.0,0.0,0.0,0.0,0.0,0.0,0.0,0.0,0.0
0.8585885208391828,0.6577569294287697,0.06863118325060036,-0.4816171309689959,-0.7498585600854275,-0.8018696641420696,-0.2695731532404844,-0.11913514358455855,-0.07444926914088075,-0.040163923315548626,-0.026094470239904136,-0.0256253097053225,-0.03214212406344203,-0.02259970401900201,0.003040860227112794,-0.007765786529563915,-0.0024004977914388226,0.0027393572129471916,0.004400749467300129,-0.010530082705853755,-0.009158241672048076,-0.011173155148504685,-0.03297918278325882,-0.05483125297466129,-0.037266930394205595,-0.0394179779075239,-0.021824325760421613,-0.014042261663881445,-0.012765024133941597,0.01160428797679763,0.019646085085789664,0.01466296559414269,-0.016476159913039762,-0.0671852553345383,-0.11444743866798326,-0.14510621094912152,-0.13943304338793516,-0.13356949497604625,-0.13407992277713768,-0.16067517028240363,-0.17062455271477173,-0.20335887771875716,-0.19971645353093634,-0.21884765580745863,-0.2673203096853322,-0.3024060294370055,-0.28466294107658596,-0.2863860902252143,-0.2812772678265082,-0.2726158235605196,-0.2669675490641685,-0.2708982859278713,-0.2646824714521697,-0.2778911311376843,-0.29079885044639836,-0.30997172090199726,-0.2926785260981477,-0.2783463326995243,-0.26039115618218905,-0.2388019039443407,-0.20042185321863942,-0.12880806495024705,-0.0962517643936838,-0.08631119240974858,-0.06939978039066064,-0.058655600243000115,-0.07050422521765262,-0.052357206797664195,-0.030501604431800534,-0.03451206412600038,-0.051240833373085826,-0.06096852951698673,-0.04397692673008011,-0.05285048420775538,-0.051441100907371876,-0.05947122484656282,-0.08680515393829209,-0.10715751335549063,-0.14025400162623558,-0.1762432767283146,-0.18884253184915664,-0.171488103855979,-0.1701997634054417,-0.17184200115562595,-0.1534205638666313,-0.17738907019658318,-0.1944629841732406,-0.1915090843281486,-0.1915453783270683,-0.1781531055958379,-0.17435118459313353,-0.18672687949175307,-0.18900364263525524,-0.19105619418193878,-0.18632754575153848,-0.194552649200176,-0.1993161493623358,-0.18091669603127755,-0.188668496974581,-0.1831525150229493,-0.16767384173492433,-0.15211093656027241,-0.1529157042333517,-0.15038991354992895,-0.18070538203994466,-0.18144152899859625,-0.13947481288568012,-0.146848127924937,-0.13128331846900848,-0.09609091980614919,-0.0675872710147868,-0.04579816126662028,-0.020891148897829108,0.023537894334785696,0.04144951719628612,0.09525510297921688,0.2506508500065154,0.50760236108113,0.7346151602954261,0.865919526909208,0.9146151015280974,0.6867503575601079,0.1855539009407106,-0.2866848959150648,-0.5854278963027699,-0.6548703294585241,-0.5804953749434644,-0.4543237178782839,0.0,0.0,0.0,0.0,0.0,0.0,0.0,0.0,0.0,0.0,0.0,0.0,0.0,0.0,0.0,0.0,0.0,0.0,0.0,0.0,0.0,0.0,0.0,0.0,0.0,0.0,0.0,0.0,0.0,0.0,0.0,0.0,0.0,0.0,0.0,0.0,0.0,0.0,0.0,0.0,0.0,0.0,0.0,0.0,0.0,0.0,0.0,0.0,0.0,0.0,0.0,0.0,0.0,0.0,0.0,0.0,0.0,0.0,0.0,0.0,0.0,0.0,0.0,0.0,0.0,0.0,0.0,0.0,0.0,0.0,0.0,0.0,0.0,0.0,0.0,0.0,0.0,0.0,0.0,0.0,0.0,0.0,0.0,0.0,0.0,0.0,0.0,0.0,0.0,0.0,0.0,0.0,0.0,0.0,0.0,0.0,0.0,0.0,0.0,0.0,0.0,0.0,0.0,0.0,0.0,0.0,0.0,0.0,0.0,0.0,0.0,0.0,0.0,0.0,0.0,0.0,0.0,0.0,0.0,0.0,0.0,0.0,0.0,0.0,0.0,0.0,0.0,0.0,0.0,0.0,0.0,0.0,0.0,0.0,0.0,0.0,0.0,0.0,0.0,0.0,0.0,0.0,0.0,0.0,0.0,0.0,0.0,0.0,0.0,0.0,0.0,0.0,0.0,0.0,0.0,0.0,0.0,0.0,0.0,0.0,0.0,0.0,0.0,0.0,0.0,0.0,0.0,0.0,0.0,0.0,0.0,0.0,0.0
0.8053611888803592,0.6338678450843666,0.1497568393140634,-0.7653405500383461,-0.6161554688963138,-0.40177760419078073,-0.25364603370626365,-0.1585853603084586,-0.10999320228669328,-0.09140849210432882,-0.10280320184429476,-0.10471303585255845,-0.1003982565294009,-0.10626575698491114,-0.1091454235751723,-0.12215950684484082,-0.10913459498517457,-0.12920470242970863,-0.12976591041145527,-0.11737090276320282,-0.12157817469495298,-0.10621834138294882,-0.11728370590999816,-0.10546082929262005,-0.10688441723683584,-0.11496640213942591,-0.11654672438651298,-0.1116119038071951,-0.11000859646134208,-0.10843857213954645,-0.08717228706906835,-0.11192838639233921,-0.139974127173401,-0.15158266704112888,-0.1598922298923072,-0.1813281300535922,-0.20273837762776759,-0.17810713600365186,-0.1600120272285795,-0.16488040743029622,-0.16970302198191034,-0.17118981675066536,-0.16933773743190225,-0.20686794584220103,-0.22462267551368673,-0.19302245646670613,-0.19094047389041152,-0.21180304281886972,-0.21617258351046184,-0.20733552927867901,-0.21815656340204545,-0.24206352178693774,-0.2954896097636809,-0.27655656419625785,-0.27071171075919254,-0.25823647543782696,-0.24570382617630784,-0.226541111526647,-0.21060804110730433,-0.18147312237905253,-0.17200175245396795,-0.1559039985204558,-0.14304126920729565,-0.12355699479233086,-0.11060035055382429,-0.10088913046471451,-0.09771485914998798,-0.0813649226474421,-0.0814241611120879,-0.06503615000567073,-0.04864200036063981,-0.038824605129529094,-0.0027308033603703516,0.026762640777356975,0.09893844650039968,0.18091690341486172,0.27268074650793,0.4103611815661824,0.6070815907656999,0.7806552674368451,0.8981875861283061,1.008939487844645,0.8631003963559163,0.27986841922457506,-0.6389306278105232,-0.6740857357836192,-0.4467558188710515,-0.27242411683877943,-0.14777405014211928,-0.069489090148418,-0.01782120583442078,0.017117262304184977,0.02220760267097562,0.03691257002008899,0.03167825351258276,0.009813497819979778,0.014062799917036876,0.00829474722417536,-0.020618509010646262,-0.033223307076331775,-0.04922313079252843,-0.0488854871678464,-0.04862983854437949,-0.0451582040058417,-0.05160594907233364,-0.061391014641991946,-0.11394259096412378,-0.1468114797371949,-0.1468458556382254,-0.1534775372889382,-0.1798475396296488,-0.17994168765492657,-0.17676146167670964,-0.18673598470992636,-0.20000342651006675,-0.20341600087471914,-0.20683138179110444,-0.2168212038884605,-0.22352530411876592,-0.24008889553474488,-0.26651174535284344,-0.28307522151408626,-0.29635225491812905,-0.3129157319382525,-0.3163321859290379,-0.3065974474231654,-0.30999562550006476,-0.29693914982124797,0.0,0.0,0.0,0.0,0.0,0.0,0.0,0.0,0.0,0.0,0.0,0.0,0.0,0.0,0.0,0.0,0.0,0.0,0.0,0.0,0.0,0.0,0.0,0.0,0.0,0.0,0.0,0.0,0.0,0.0,0.0,0.0,0.0,0.0,0.0,0.0,0.0,0.0,0.0,0.0,0.0,0.0,0.0,0.0,0.0,0.0,0.0,0.0,0.0,0.0,0.0,0.0,0.0,0.0,0.0,0.0,0.0,0.0,0.0,0.0,0.0,0.0,0.0,0.0,0.0,0.0,0.0,0.0,0.0,0.0,0.0,0.0,0.0,0.0,0.0,0.0,0.0,0.0,0.0,0.0,0.0,0.0,0.0,0.0,0.0,0.0,0.0,0.0,0.0,0.0,0.0,0.0,0.0,0.0,0.0,0.0,0.0,0.0,0.0,0.0,0.0,0.0,0.0,0.0,0.0,0.0,0.0,0.0,0.0,0.0,0.0,0.0,0.0,0.0,0.0,0.0,0.0,0.0,0.0,0.0,0.0,0.0,0.0,0.0,0.0,0.0,0.0,0.0,0.0,0.0,0.0,0.0,0.0,0.0,0.0,0.0,0.0,0.0,0.0,0.0,0.0,0.0,0.0,0.0,0.0,0.0,0.0,0.0,0.0,0.0,0.0,0.0,0.0,0.0,0.0,0.0,0.0,0.0,0.0,0.0,0.0,0.0,0.0,0.0,0.0,0.0,0.0,0.0,0.0,0.0,0.0,0.0,0.0
0.3166543279392373,0.10268176616122182,-0.4096770918227017,-0.8927878151533382,-0.6913354890335439,-0.47249318645873234,-0.3159467332697491,-0.21576873371424102,-0.16308034092833854,-0.15490799139505287,-0.14990250054424328,-0.0506266364775663,-0.08732526629323101,-0.2245582033825696,-0.36194131815393743,-0.3961394868468228,-0.32123655172479837,-0.2759683957828064,-0.2337551423678608,-0.19753852002461056,-0.18797376213707415,-0.20505277588202114,-0.23400834576502813,-0.22464950323247812,-0.2301090411319663,-0.23857512270692655,-0.2913743685442658,-0.33536792143730143,-0.30265728450512597,-0.2877087725928271,-0.28461874662882813,-0.3081488804689042,-0.31992422994298453,-0.3288037623130084,-0.3436470516980483,-0.3408413782591843,-0.35581606752318257,-0.3472469230287409,-0.34761212211582954,-0.36872576737515494,-0.3781212619731002,-0.3817093840552239,-0.3883533054951915,-0.40101234038576483,-0.44921476823665907,-0.46802257857791163,-0.47810726645181145,-0.47652116499399266,-0.4868818109423482,-0.46785768177654397,-0.4548669485510404,-0.40066707895617754,-0.3760973656548808,-0.4401889930284314,-0.45713633294478184,-0.45349804489252243,-0.4587833613521211,-0.4198421756054286,-0.4222703788405971,-0.39815592099426306,-0.37995749423797653,-0.367661150024502,-0.3671574022096818,-0.3311997314114958,-0.31881679175998695,-0.3359003864544282,-0.2909243618360252,-0.26653568473418665,-0.25681973815080283,-0.25291070103149005,-0.24003951898919043,-0.2388630138352207,-0.25823070223705313,-0.2981368794569751,-0.29658312110325047,-0.2801340542620213,-0.2871633410066399,-0.3324288263694049,-0.3067018560866037,-0.28378314730892584,-0.32861785658766435,-0.3437876459493387,-0.3381495436302597,-0.314656909694525,-0.33530517705945906,-0.36762392043986186,-0.3614307773661328,-0.38167479011654204,-0.4283596874588282,-0.4306396277178683,-0.3914707803017121,-0.36399469145281627,-0.3688803001205548,-0.35889914106806675,-0.3547209018263344,-0.356351136915986,-0.3401792108823593,-0.3239240029792535,-0.2751195744884342,-0.25871914280232655,-0.25111442050977395,-0.2552667337873862,-0.2416655033004894,-0.19260939128355614,-0.14943961524448723,-0.09150500114371528,-0.02472453492707741,0.10402260562897367,0.27110113563291616,0.4440168100335176,0.5666551989465204,0.6271786137673291,0.4661404333304168,0.04512388620036125,-0.8927460975925577,-0.6530235572118042,-0.34274152949924414,-0.3072768502638464,-0.29273504329019895,-0.26958021952303624,-0.2466542448398893,-0.2888893229620034,-0.27228564802516503,-0.1997835240105517,-0.23373630418057034,-0.3062364765799106,-0.30214432135189473,-0.30706208815279473,-0.32098246456769997,-0.33209049792500905,-0.3403801485436133,-0.31632514420686636,-0.28353711868605846,0.0,0.0,0.0,0.0,0.0,0.0,0.0,0.0,0.0,0.0,0.0,0.0,0.0,0.0,0.0,0.0,0.0,0.0,0.0,0.0,0.0,0.0,0.0,0.0,0.0,0.0,0.0,0.0,0.0,0.0,0.0,0.0,0.0,0.0,0.0,0.0,0.0,0.0,0.0,0.0,0.0,0.0,0.0,0.0,0.0,0.0,0.0,0.0,0.0,0.0,0.0,0.0,0.0,0.0,0.0,0.0,0.0,0.0,0.0,0.0,0.0,0.0,0.0,0.0,0.0,0.0,0.0,0.0,0.0,0.0,0.0,0.0,0.0,0.0,0.0,0.0,0.0,0.0,0.0,0.0,0.0,0.0,0.0,0.0,0.0,0.0,0.0,0.0,0.0,0.0,0.0,0.0,0.0,0.0,0.0,0.0,0.0,0.0,0.0,0.0,0.0,0.0,0.0,0.0,0.0,0.0,0.0,0.0,0.0,0.0,0.0,0.0,0.0,0.0,0.0,0.0,0.0,0.0,0.0,0.0,0.0,0.0,0.0,0.0,0.0,0.0,0.0,0.0,0.0,0.0,0.0,0.0,0.0,0.0,0.0,0.0,0.0,0.0,0.0,0.0,0.0,0.0,0.0,0.0,0.0,0.0,0.0,0.0,0.0,0.0,0.0,0.0,0.0,0.0,0.0,0.0,0.0,0.0,0.0,0.0,0.0,0.0,0.0,0.0,0.0,0.0,0.0,0.0
0.5369232000692741,0.2915769618905278,-0.244692106929121,-0.6800251050343967,-0.8199775505745844,-0.7110344731835049,-0.3415731155574592,-0.19056781271368467,-0.1128166130995863,-0.06182530286189394,-0.03174488141048076,-0.01092148582116999,-0.010927997833932841,0.00020820220114180438,-0.012314299708735902,-0.01942945219765112,-0.01529804571674475,-0.002791948660406727,-0.019622438959788907,-0.03963331418658453,-0.033766866252364976,-0.04844871416364783,-0.051721113394858784,-0.06678758282110654,-0.05588706197182629,-0.059644827359664865,-0.05191526400263462,-0.05590767301964656,-0.07451081444771139,-0.07868030464145766,-0.1032423300245229,-0.12786465419813295,-0.15253828228080893,-0.1714490268602656,-0.19329940424253383,-0.2064707919829295,-0.21095792188986615,-0.23869083378517914,-0.26353733762059656,-0.28839724460145044,-0.3103644950388492,-0.3265333253693604,-0.33109501265915037,-0.35017554167513976,-0.36054750360751525,-0.3476926840707977,-0.34354197134237446,-0.3538979360801313,-0.34682227576886254,-0.3513421505631894,-0.3616469767027291,-0.3661195257255426,-0.3560443824884791,-0.37205785082876236,-0.37641050167980206,-0.36038204119723527,-0.34428089725709476,-0.2990608093501125,-0.2479321555471786,-0.22862128502486398,-0.20917954958002796,-0.19830293524931364,-0.17275351802759914,-0.17316332501816747,-0.16468347051856,-0.17343199997316475,-0.19069012560539167,-0.1729021826750251,-0.15780136957195648,-0.15118715603114707,-0.17627883485004686,-0.17791174819256503,-0.17350073643034428,-0.17755834282835958,-0.1755665246634961,-0.16462067217104334,-0.16504220114222212,-0.18263771407852974,-0.1883769784668323,-0.179358897653589,-0.17300519082931243,-0.163513253224837,-0.19153168371046994,-0.19900304927522824,-0.22367450412849027,-0.21910272144740928,-0.21432678129813465,-0.23838640634489092,-0.26225907253749864,-0.268535384643865,-0.2949661417807884,-0.3154333339884281,-0.32704437986478885,-0.3385194415913244,-0.3440630559412264,-0.3291703682233341,-0.325786872096634,-0.33392355122425427,-0.3274631875101641,-0.3325452532252217,-0.3404715735207215,-0.35415663157181076,-0.3707086549882331,-0.3582037940256085,-0.3485852102506972,-0.3650856230129657,-0.3554558730390376,-0.3516363661719776,-0.3507290161535692,-0.36725422935042934,-0.37799122341968866,-0.3800393706059186,-0.37920459508825827,-0.3464519935122967,-0.33693488633771684,-0.3274216670664732,-0.3324216762126882,-0.3519286269957865,-0.33077654110592275,-0.32702171186040413,0.0,0.0,0.0,0.0,0.0,0.0,0.0,0.0,0.0,0.0,0.0,0.0,0.0,0.0,0.0,0.0,0.0,0.0,0.0,0.0,0.0,0.0,0.0,0.0,0.0,0.0,0.0,0.0,0.0,0.0,0.0,0.0,0.0,0.0,0.0,0.0,0.0,0.0,0.0,0.0,0.0,0.0,0.0,0.0,0.0,0.0,0.0,0.0,0.0,0.0,0.0,0.0,0.0,0.0,0.0,0.0,0.0,0.0,0.0,0.0,0.0,0.0,0.0,0.0,0.0,0.0,0.0,0.0,0.0,0.0,0.0,0.0,0.0,0.0,0.0,0.0,0.0,0.0,0.0,0.0,0.0,0.0,0.0,0.0,0.0,0.0,0.0,0.0,0.0,0.0,0.0,0.0,0.0,0.0,0.0,0.0,0.0,0.0,0.0,0.0,0.0,0.0,0.0,0.0,0.0,0.0,0.0,0.0,0.0,0.0,0.0,0.0,0.0,0.0,0.0,0.0,0.0,0.0,0.0,0.0,0.0,0.0,0.0,0.0,0.0,0.0,0.0,0.0,0.0,0.0,0.0,0.0,0.0,0.0,0.0,0.0,0.0,0.0,0.0,0.0,0.0,0.0,0.0,0.0,0.0,0.0,0.0,0.0,0.0,0.0,0.0,0.0,0.0,0.0,0.0,0.0,0.0,0.0,0.0,0.0,0.0,0.0,0.0,0.0,0.0,0.0,0.0,0.0,0.0,0.0,0.0,0.0,0.0,0.0,0.0,0.0,0.0,0.0,0.0,0.0,0.0
0.7903630719068702,0.6048989629715994,-0.12370508282888154,-0.8410009064411703,-0.8183527288215919,-0.22124676312190122,-0.14122796852185485,-0.10504642554981918,-0.07782824130696116,-0.05953848368931114,-0.047240423903766295,-0.058320793193750844,-0.04339547454124523,-0.037273021564607454,-0.019603741483934286,-0.022296115138859138,-0.01919735026981066,-0.01899402916363214,-0.021664939253270867,-0.012674782815166125,-0.041359096424141456,-0.05544499330647319,-0.031692574600728475,-0.060086083056941554,-0.06803518413585181,-0.08746422472539056,-0.09223603645707067,-0.10847137362592638,-0.1129387912451389,-0.11724578799801223,-0.1446136186240126,-0.16891121353199526,-0.19013682911088634,-0.19958017832639943,-0.2204663638274845,-0.22086146094131112,-0.2588296962227917,-0.27050381232763815,-0.27911136566303396,-0.29917086124995645,-0.30455710742971115,-0.2981766113970697,-0.3003549696306036,-0.33141802583750973,-0.34201636423120296,-0.3611855828560954,-0.3831235598711521,-0.364285991352015,-0.3511227162059838,-0.32621278578174645,-0.30697266680722496,-0.28469062212161433,-0.2506551178124578,-0.18454235198743496,-0.15312337737858858,-0.11865681837196011,-0.09856203938095782,-0.06961551041205444,-0.06085156864617064,-0.06646819338304935,-0.025505030243701703,-0.01635412228108646,-0.004186442409942776,0.03711594313509203,0.07560633774773003,0.07643297547067616,0.07732061569348896,0.1043793148907317,0.11404150899158959,0.12370343276878065,0.1420495756969678,0.17195577930275,0.256939475987691,0.3214865282188062,0.43814020429410755,0.6010554941578413,0.7724488566858493,0.8767911137899034,0.9604796047293873,1.008939487844645,0.7637251455591557,0.08831629519085633,-0.7705976756113373,-0.8057053960741071,-0.6905766496805351,-0.47746453086671425,-0.24762101000507258,-0.12002661603448923,-0.07431138623924288,-0.0320435826900343,-0.019306077758240513,-0.015732991155263568,-0.035797832089106724,-0.050428584320365503,-0.059586247328246994,-0.06323330656071961,-0.06133368764619708,-0.05094959249863418,-0.05817611107131971,-0.059756340467909154,-0.05565999030005766,-0.06327708346705518,-0.05935506344539622,-0.07870570863002051,-0.08646674292161678,-0.09132441969814878,-0.13099775471163816,-0.13288751013854797,-0.12019933804534762,-0.12194625549185636,-0.13230466873757762,-0.13383952978398356,-0.14976090645541149,-0.15392645927687917,-0.1898703339111708,-0.2430647313082765,-0.23801658232641001,-0.23277804095382568,-0.24766091563263126,-0.27975242374954035,0.0,0.0,0.0,0.0,0.0,0.0,0.0,0.0,0.0,0.0,0.0,0.0,0.0,0.0,0.0,0.0,0.0,0.0,0.0,0.0,0.0,0.0,0.0,0.0,0.0,0.0,0.0,0.0,0.0,0.0,0.0,0.0,0.0,0.0,0.0,0.0,0.0,0.0,0.0,0.0,0.0,0.0,0.0,0.0,0.0,0.0,0.0,0.0,0.0,0.0,0.0,0.0,0.0,0.0,0.0,0.0,0.0,0.0,0.0,0.0,0.0,0.0,0.0,0.0,0.0,0.0,0.0,0.0,0.0,0.0,0.0,0.0,0.0,0.0,0.0,0.0,0.0,0.0,0.0,0.0,0.0,0.0,0.0,0.0,0.0,0.0,0.0,0.0,0.0,0.0,0.0,0.0,0.0,0.0,0.0,0.0,0.0,0.0,0.0,0.0,0.0,0.0,0.0,0.0,0.0,0.0,0.0,0.0,0.0,0.0,0.0,0.0,0.0,0.0,0.0,0.0,0.0,0.0,0.0,0.0,0.0,0.0,0.0,0.0,0.0,0.0,0.0,0.0,0.0,0.0,0.0,0.0,0.0,0.0,0.0,0.0,0.0,0.0,0.0,0.0,0.0,0.0,0.0,0.0,0.0,0.0,0.0,0.0,0.0,0.0,0.0,0.0,0.0,0.0,0.0,0.0,0.0,0.0,0.0,0.0,0.0,0.0,0.0,0.0,0.0,0.0,0.0,0.0,0.0,0.0,0.0,0.0,0.0,0.0,0.0,0.0,0.0,0.0,0.0,0.0,0.0
0.8521795447864973,0.6148043528504178,-0.002084515567537593,-0.5744933495737663,-0.88895834717247,-0.7891380798547752,-0.38330422456775826,-0.2338263826841741,-0.14817753755485655,-0.07819343235442042,-0.032854192844759635,-0.03617904706349977,-0.03700020152289295,-0.035279715281769965,-0.04301141062426987,-0.0601605215296582,-0.07767120003042656,-0.04739098030097058,-0.02643285189988151,-0.0237906153256311,-0.05447479710559444,-0.06733158260939111,-0.059329373257893045,-0.08758890230560337,-0.10697584395655857,-0.1445382830281352,-0.1521369122040809,-0.12373909986881192,-0.13451693732976538,-0.16640976984500946,-0.18632031316505102,-0.21228048443336217,-0.21420231708663043,-0.23718717673354933,-0.2571635907499715,-0.28013611890164275,-0.3060947132632114,-0.329014603355587,-0.33384862133639215,-0.34765535268231623,-0.3553878515548774,-0.37508219718118346,-0.3495856765682033,-0.3330227045676892,-0.3404196310475228,-0.3416897336734208,-0.33682180633872194,-0.32279715763152883,-0.34772544547272677,-0.36347504142696685,-0.35800488679060233,-0.3162654427546516,-0.29238029046732933,-0.2682921175118042,-0.2439891878292627,-0.2164526470437362,-0.19168682404305679,-0.16065900852894704,-0.12636747999532566,-0.10083411785080831,-0.1051045728763502,-0.11511258459367565,-0.11882331522796127,-0.10420311960147016,-0.09230252176224267,-0.09815820286957729,-0.10071761053125222,-0.06689928965773359,-0.059864490261900834,-0.07059481562235263,-0.09308088287182265,-0.08221663911347826,-0.06507841460392387,-0.08678916677603835,-0.10826203536648779,-0.11146430944215122,-0.1174625901352381,-0.1022115141677687,-0.10482534445693376,-0.0802083405582138,-0.06446972150794866,-0.0726672583447476,-0.06873190263681705,0.0044568043399561535,0.08672364116269572,0.18706513134575936,0.3385359567579034,0.5230598305004133,0.8578965305807355,0.8858603533809941,0.5527705698619371,-0.14443148119566082,-0.6915112501726824,-0.676491764016224,-0.49338601558735923,-0.3346708099591159,-0.23040224467807316,-0.19259124199730934,-0.14302298982138595,-0.1358154619880413,-0.14087642491592492,-0.13713736915611618,-0.11556102910388648,-0.13628475700893605,-0.12410756972987552,-0.13315400657434012,-0.15138376410743737,-0.17578027633398144,-0.17926762836736163,-0.18589905986139946,-0.1806305970762867,-0.17849455510269213,-0.19151656902173209,-0.19262506438625923,-0.17279454742575115,-0.1771361397027541,-0.21166378175158915,-0.2162263062211999,-0.229922241148663,-0.2467376263508823,-0.2696817552432955,-0.27168900554745057,-0.2617847149350498,-0.2580172658425078,-0.29648077004213375,-0.32003592186603885,0.0,0.0,0.0,0.0,0.0,0.0,0.0,0.0,0.0,0.0,0.0,0.0,0.0,0.0,0.0,0.0,0.0,0.0,0.0,0.0,0.0,0.0,0.0,0.0,0.0,0.0,0.0,0.0,0.0,0.0,0.0,0.0,0.0,0.0,0.0,0.0,0.0,0.0,0.0,0.0,0.0,0.0,0.0,0.0,0.0,0.0,0.0,0.0,0.0,0.0,0.0,0.0,0.0,0.0,0.0,0.0,0.0,0.0,0.0,0.0,0.0,0.0,0.0,0.0,0.0,0.0,0.0,0.0,0.0,0.0,0.0,0.0,0.0,0.0,0.0,0.0,0.0,0.0,0.0,0.0,0.0,0.0,0.0,0.0,0.0,0.0,0.0,0.0,0.0,0.0,0.0,0.0,0.0,0.0,0.0,0.0,0.0,0.0,0.0,0.0,0.0,0.0,0.0,0.0,0.0,0.0,0.0,0.0,0.0,0.0,0.0,0.0,0.0,0.0,0.0,0.0,0.0,0.0,0.0,0.0,0.0,0.0,0.0,0.0,0.0,0.0,0.0,0.0,0.0,0.0,0.0,0.0,0.0,0.0,0.0,0.0,0.0,0.0,0.0,0.0,0.0,0.0,0.0,0.0,0.0,0.0,0.0,0.0,0.0,0.0,0.0,0.0,0.0,0.0,0.0,0.0,0.0,0.0,0.0,0.0,0.0,0.0,0.0,0.0,0.0,0.0,0.0,0.0,0.0,0.0,0.0,0.0,0.0,0.0,0.0
0.23699675240729723,0.4414720030085621,0.6396998888276345,0.33274701838351256,-0.22241563975663267,-0.6902059835666785,-0.5657188819241202,-0.42345585312926887,-0.32992729425747014,-0.3123297819048921,-0.2738908859251184,-0.24785479292430015,-0.23420608277218483,-0.24804805602212215,-0.26517733026013146,-0.2402255948598633,-0.24574684239990877,-0.28777561644672595,-0.30885062127587426,-0.30291273017205383,-0.30321033074419546,-0.2976375094457202,-0.2861831593084909,-0.2779073704794476,-0.3090833114571859,-0.3494645133192905,-0.3204265378074588,-0.31871593765436745,-0.3080393943714776,-0.36095471299973914,-0.3595307800726484,-0.3460886628659432,-0.3296889557130668,-0.3556759437540141,-0.35449581856030227,-0.3291619714321005,-0.3129241677854084,-0.2513468180499113,-0.22908185841834616,-0.32775810434209857,-0.32361762910887026,-0.28921909862824013,-0.32131043266162246,-0.3170798145820426,-0.28861381297448263,-0.29637738158460303,-0.31919759656748464,-0.2965945402543838,-0.2860103280801657,-0.31162735522502,-0.3099428776410385,-0.34142349689007107,-0.35466145702335117,-0.34360362820690815,-0.35964598984165136,-0.34533363284159235,-0.3127548333675451,-0.3223761114719103,-0.3076714289993375,-0.286776754403326,-0.30504102704768216,-0.3019862192711548,-0.2927254847143511,-0.2712067791146926,-0.2616147411771011,-0.27603987758292803,-0.257029501728189,-0.2469113519362758,-0.24568273211868363,-0.2624123969327719,-0.29709873396003644,-0.2499605602336457,-0.24798978017365653,-0.2609496806890275,-0.2495331700776126,-0.22281182244861406,-0.21102319885789303,-0.24742915694988055,-0.205039494217244,-0.15944824526765466,-0.219510203433707,-0.2521901519292751,-0.24842268016375021,-0.23542653784562992,-0.20413735796056573,-0.23317685217839848,-0.28324562903100853,-0.2757376192290991,-0.24694532901934824,-0.24827984591790522,-0.255561862847702,-0.2688017032724217,-0.23660835159963162,-0.18015851740790426,-0.22040953236081814,-0.32713773427600923,-0.33405645250745397,-0.30165195360101565,-0.29948151912291987,-0.2791808399284533,-0.28007136528218585,-0.32635673522734154,-0.3545554802738605,-0.34956446970775823,-0.33861149594245776,-0.31264072895958844,-0.29585642960569486,-0.3699121780658424,-0.39271268633028167,-0.38846127082726645,-0.40857036931108737,-0.36536189173562317,-0.4251381624612551,-0.4095058342209171,0.0,0.0,0.0,0.0,0.0,0.0,0.0,0.0,0.0,0.0,0.0,0.0,0.0,0.0,0.0,0.0,0.0,0.0,0.0,0.0,0.0,0.0,0.0,0.0,0.0,0.0,0.0,0.0,0.0,0.0,0.0,0.0,0.0,0.0,0.0,0.0,0.0,0.0,0.0,0.0,0.0,0.0,0.0,0.0,0.0,0.0,0.0,0.0,0.0,0.0,0.0,0.0,0.0,0.0,0.0,0.0,0.0,0.0,0.0,0.0,0.0,0.0,0.0,0.0,0.0,0.0,0.0,0.0,0.0,0.0,0.0,0.0,0.0,0.0,0.0,0.0,0.0,0.0,0.0,0.0,0.0,0.0,0.0,0.0,0.0,0.0,0.0,0.0,0.0,0.0,0.0,0.0,0.0,0.0,0.0,0.0,0.0,0.0,0.0,0.0,0.0,0.0,0.0,0.0,0.0,0.0,0.0,0.0,0.0,0.0,0.0,0.0,0.0,0.0,0.0,0.0,0.0,0.0,0.0,0.0,0.0,0.0,0.0,0.0,0.0,0.0,0.0,0.0,0.0,0.0,0.0,0.0,0.0,0.0,0.0,0.0,0.0,0.0,0.0,0.0,0.0,0.0,0.0,0.0,0.0,0.0,0.0,0.0,0.0,0.0,0.0,0.0,0.0,0.0,0.0,0.0,0.0,0.0,0.0,0.0,0.0,0.0,0.0,0.0,0.0,0.0,0.0,0.0,0.0,0.0,0.0,0.0,0.0,0.0,0.0,0.0,0.0,0.0,0.0,0.0,0.0,0.0,0.0,0.0,0.0,0.0,0.0
0.8884886421038911,0.7501382047162546,0.24080971320021186,-0.865462377072807,-0.6982721630440702,-0.4594332516286773,-0.26940267899172604,-0.13717786590241732,-0.06272032786100622,-0.018884144937323467,0.015451315251370546,0.016224763907459642,0.028650030850781535,0.025650562247957864,0.037376729365790694,0.04879675961718998,0.056925283667893886,0.043714991408001926,0.0483453564515293,0.022645171903518287,0.002778344420878768,-0.02027334816641917,-0.028421392379033034,-0.021650902043644015,-0.0451288644810522,-0.04763867595520062,-0.05326584149603087,-0.052964814637161996,-0.05275147937484615,-0.05864299226848373,-0.06762168786452696,-0.08570724052446027,-0.09181223696023358,-0.11003085094867479,-0.1132537926169403,-0.12256526941993603,-0.1379662367643583,-0.13837435145130927,-0.12680437288532037,-0.13036816103377827,-0.16413035170573032,-0.17086770111446417,-0.18070660675552516,-0.21172602164947826,-0.23682505445721583,-0.22589126071581875,-0.2421855375329603,-0.2525841697576636,-0.2510720556268012,-0.2798268779384011,-0.28464158132786704,-0.3076942688730012,-0.32791048833151637,-0.3362638943864741,-0.33878635998635925,-0.3625912465333535,-0.35948814405953583,-0.35357017192793505,-0.35085331719954627,-0.3392769968406827,-0.32183666651433906,-0.298512729045081,-0.2722962550122753,-0.25521445546163574,-0.23218643041650658,-0.20620373250071972,-0.18327032267409948,-0.18143879578872452,-0.16755782575657371,-0.15365719489672683,-0.13068316195988824,-0.11367900984540058,-0.11467687354309365,-0.0914932831783376,-0.0862826255452268,-0.09601988914480111,-0.10864507280942151,-0.11511126454014807,-0.12745676966636563,-0.14868475970558523,-0.16673914687407054,-0.17860073299427978,-0.1902871192229293,-0.19275639169567155,-0.19202738190440355,-0.19411949494628503,-0.18999255376416693,-0.18566710749526624,-0.19620038834402406,-0.18845772747178116,-0.20460580944825688,-0.22355924444235054,-0.21820909321928722,-0.20963934623007408,-0.18881412145823337,-0.19187850429163658,-0.19473753581628916,-0.1793208988747441,-0.20285963703219534,-0.2081282231614524,-0.2041663546046879,-0.20905032109295135,-0.2227847376271964,-0.24236267946306775,-0.261765613438819,-0.25991517256190744,-0.26392572849372764,-0.2707915718977925,-0.2714831474343455,-0.27203124259761086,-0.26340666544867725,-0.27874884761257646,-0.2638485165214385,-0.25786953155901976,-0.26383158768262677,-0.2847546278891293,-0.29353849459543974,-0.29019143076086756,-0.28978190844408996,-0.3043664542529272,-0.3158813644636384,-0.30927498278835613,-0.30865126901879636,-0.3230538527758854,-0.3193578058342528,-0.31564126218541744,-0.3269691953056155,-0.3232253248945111,-0.31947199714926966,-0.3247459984565388,-0.333022816315813,-0.3262281701902324,-0.3133936396608991,-0.2975249592280941,-0.29367542887722214,-0.28075401578502496,0.0,0.0,0.0,0.0,0.0,0.0,0.0,0.0,0.0,0.0,0.0,0.0,0.0,0.0,0.0,0.0,0.0,0.0,0.0,0.0,0.0,0.0,0.0,0.0,0.0,0.0,0.0,0.0,0.0,0.0,0.0,0.0,0.0,0.0,0.0,0.0,0.0,0.0,0.0,0.0,0.0,0.0,0.0,0.0,0.0,0.0,0.0,0.0,0.0,0.0,0.0,0.0,0.0,0.0,0.0,0.0,0.0,0.0,0.0,0.0,0.0,0.0,0.0,0.0,0.0,0.0,0.0,0.0,0.0,0.0,0.0,0.0,0.0,0.0,0.0,0.0,0.0,0.0,0.0,0.0,0.0,0.0,0.0,0.0,0.0,0.0,0.0,0.0,0.0,0.0,0.0,0.0,0.0,0.0,0.0,0.0,0.0,0.0,0.0,0.0,0.0,0.0,0.0,0.0,0.0,0.0,0.0,0.0,0.0,0.0,0.0,0.0,0.0,0.0,0.0,0.0,0.0,0.0,0.0,0.0,0.0,0.0,0.0,0.0,0.0,0.0,0.0,0.0,0.0,0.0,0.0,0.0,0.0,0.0,0.0,0.0,0.0,0.0,0.0,0.0,0.0,0.0,0.0,0.0,0.0,0.0,0.0,0.0,0.0,0.0,0.0,0.0,0.0,0.0,0.0,0.0,0.0,0.0,0.0,0.0,0.0,0.0,0.0,0.0,0.0
0.7901497918458936,0.2773412322470702,-0.3595024042087853,-0.7415064863849901,-0.8055880521971963,-0.6901328075956692,-0.5575438828385055,-0.37169446951319235,-0.2077175531918636,-0.07758595816411468,-0.017333598424398324,0.021215492266763194,0.029092243341872166,0.0484539752777648,0.046267469515632736,0.0376182173320098,0.03758971050607283,0.05825593954932582,0.07559839866578988,0.059581432586625425,0.05234832028883226,0.05092709943358649,0.05535132279703048,0.03557707019403228,0.00967909678806491,0.016783026813278087,0.011801407484179554,0.01280337928824518,-0.022294644785630785,-0.03632909837842715,-0.050334242248903545,-0.06429310855429994,-0.11127324112299833,-0.11306446486450779,-0.11175961714521089,-0.16148291823548225,-0.21410326720401066,-0.22750561389805624,-0.2437868662727017,-0.25993138766631835,-0.296984450775569,-0.30381071640234597,-0.31348638905044557,-0.3019445670151334,-0.34135998985019483,-0.32044740953540807,-0.31739697545494633,-0.3592707376341395,-0.37989703175957085,-0.3642319231197297,-0.3543723371402232,-0.3442934719889116,-0.30090255035261276,-0.28133319210809626,-0.21940993509974288,-0.17828211437878178,-0.14290356567578086,-0.10424409150389888,-0.03522927791901471,-0.02006512352989909,-0.007619693212988535,0.008124105072237379,0.05122690340421637,0.09461925979904724,0.09919952791199489,0.08601472047355134,0.13325294137151777,0.17473793546439995,0.1773740083683315,0.18024390424760162,0.16227681190491328,0.12645961089605276,0.12690486651454252,0.13351148313169217,0.11617596243446938,0.10494327072395208,0.11481830017851279,0.11569047485151003,0.10451478169398286,0.10531176619377763,0.1180393229722086,0.20581149727986156,0.4257248859775452,0.2784774606418733,-0.3863614820120764,-0.6816227750975605,-0.6735259126820512,-0.5395383953229018,-0.4089766133907111,-0.2818148604358977,-0.17005235233709284,-0.10974902419124877,-0.09185255374491381,-0.06219866291087382,-0.0508356429633039,-0.04871515712757629,-0.0377677475611275,-0.03300847618796182,-0.025393624120741316,-0.01490371063948636,-0.001520896216106151,-0.030342210212617272,-0.017142006833764288,-0.016043327495780482,-0.011997360683608998,-0.029055068041062684,-0.010065403937587689,0.008887158858821036,0.006754154830062981,-0.031499604104612534,-0.03068475745943729,-0.053960626173162086,-0.059224070340573774,-0.11264506901010042,-0.13603291247414398,-0.1474395364902264,-0.1919858699605074,-0.23058261228532442,-0.24218654119513508,-0.23282295481653534,-0.24160070368576886,-0.2955990623180074,-0.30460360973842054,-0.2987020157999453,-0.31399728553063294,-0.3474946133929671,0.0,0.0,0.0,0.0,0.0,0.0,0.0,0.0,0.0,0.0,0.0,0.0,0.0,0.0,0.0,0.0,0.0,0.0,0.0,0.0,0.0,0.0,0.0,0.0,0.0,0.0,0.0,0.0,0.0,0.0,0.0,0.0,0.0,0.0,0.0,0.0,0.0,0.0,0.0,0.0,0.0,0.0,0.0,0.0,0.0,0.0,0.0,0.0,0.0,0.0,0.0,0.0,0.0,0.0,0.0,0.0,0.0,0.0,0.0,0.0,0.0,0.0,0.0,0.0,0.0,0.0,0.0,0.0,0.0,0.0,0.0,0.0,0.0,0.0,0.0,0.0,0.0,0.0,0.0,0.0,0.0,0.0,0.0,0.0,0.0,0.0,0.0,0.0,0.0,0.0,0.0,0.0,0.0,0.0,0.0,0.0,0.0,0.0,0.0,0.0,0.0,0.0,0.0,0.0,0.0,0.0,0.0,0.0,0.0,0.0,0.0,0.0,0.0,0.0,0.0,0.0,0.0,0.0,0.0,0.0,0.0,0.0,0.0,0.0,0.0,0.0,0.0,0.0,0.0,0.0,0.0,0.0,0.0,0.0,0.0,0.0,0.0,0.0,0.0,0.0,0.0,0.0,0.0,0.0,0.0,0.0,0.0,0.0,0.0,0.0,0.0,0.0,0.0,0.0,0.0,0.0,0.0,0.0,0.0,0.0,0.0,0.0,0.0,0.0,0.0,0.0,0.0,0.0,0.0,0.0,0.0,0.0,0.0,0.0,0.0
0.7637251455591557,0.08831629519085633,-0.7705976756113373,-0.8057053960741071,-0.6905766496805351,-0.47746453086671425,-0.24762101000507258,-0.12002661603448923,-0.07431138623924288,-0.0320435826900343,-0.019306077758240513,-0.015732991155263568,-0.035797832089106724,-0.050428584320365503,-0.059586247328246994,-0.06323330656071961,-0.06133368764619708,-0.05094959249863418,-0.05817611107131971,-0.059756340467909154,-0.05565999030005766,-0.06327708346705518,-0.05935506344539622,-0.07870570863002051,-0.08646674292161678,-0.09132441969814878,-0.13099775471163816,-0.13288751013854797,-0.12019933804534762,-0.12194625549185636,-0.13230466873757762,-0.13383952978398356,-0.14976090645541149,-0.15392645927687917,-0.1898703339111708,-0.2430647313082765,-0.23801658232641001,-0.23277804095382568,-0.24766091563263126,-0.27975242374954035,-0.29130253458306266,-0.2852055959957976,-0.2904845483858356,-0.2984217506600521,-0.3002998474142637,-0.2961111662260426,-0.30617029090267034,-0.2869228582958808,-0.3080373932423877,-0.29692858675545436,-0.28842771717859345,-0.2593034031318862,-0.23567803542186372,-0.21464298985363356,-0.20780593025185384,-0.18032485478417196,-0.17574339350970983,-0.16212422582516348,-0.1655938037141244,-0.16873232175660213,-0.18315234127136018,-0.1624044048350555,-0.1616499754606367,-0.18960111169696617,-0.19400474310292243,-0.18938093951451543,-0.1902505388557218,-0.1995225876190673,-0.21139748217723858,-0.2171732137420581,-0.2110516003092285,-0.23658858833341948,-0.23573070903666643,-0.24332570991723387,-0.23325583907973446,-0.21714475968683095,-0.20081041541445552,-0.195877693645642,-0.20235963318459355,-0.20575430326068242,-0.20026993639562457,-0.19753434840895623,-0.19175721792456002,-0.2032772849427403,-0.20598373823565005,-0.20279794489678987,-0.21406085417030576,-0.21947010018777616,-0.19582083922858226,-0.17797178152546694,-0.16884779406296022,-0.1713745920783673,-0.15073789110678834,-0.14760607507187998,-0.13006987082930035,-0.060414713996797396,0.1077823090243795,0.319332577708553,0.41453195076089405,0.4717308961999408,0.3863778947174282,-0.021564456910907245,-0.9843938537834473,-0.45834342415450613,-0.31883244345642003,-0.22616953033652032,-0.19484721786390308,-0.16097371356225168,-0.1332366303210682,-0.12903395125179648,-0.12512069215988522,-0.1127686900907544,-0.13550751647100798,-0.13525781890916658,-0.1149073644396405,-0.1208921668135631,-0.14158649016474756,-0.1450437126605925,-0.14867171886108124,-0.14665424094244428,0.0,0.0,0.0,0.0,0.0,0.0,0.0,0.0,0.0,0.0,0.0,0.0,0.0,0.0,0.0,0.0,0.0,0.0,0.0,0.0,0.0,0.0,0.0,0.0,0.0,0.0,0.0,0.0,0.0,0.0,0.0,0.0,0.0,0.0,0.0,0.0,0.0,0.0,0.0,0.0,0.0,0.0,0.0,0.0,0.0,0.0,0.0,0.0,0.0,0.0,0.0,0.0,0.0,0.0,0.0,0.0,0.0,0.0,0.0,0.0,0.0,0.0,0.0,0.0,0.0,0.0,0.0,0.0,0.0,0.0,0.0,0.0,0.0,0.0,0.0,0.0,0.0,0.0,0.0,0.0,0.0,0.0,0.0,0.0,0.0,0.0,0.0,0.0,0.0,0.0,0.0,0.0,0.0,0.0,0.0,0.0,0.0,0.0,0.0,0.0,0.0,0.0,0.0,0.0,0.0,0.0,0.0,0.0,0.0,0.0,0.0,0.0,0.0,0.0,0.0,0.0,0.0,0.0,0.0,0.0,0.0,0.0,0.0,0.0,0.0,0.0,0.0,0.0,0.0,0.0,0.0,0.0,0.0,0.0,0.0,0.0,0.0,0.0,0.0,0.0,0.0,0.0,0.0,0.0,0.0,0.0,0.0,0.0,0.0,0.0,0.0,0.0,0.0,0.0,0.0,0.0,0.0,0.0,0.0,0.0,0.0,0.0,0.0,0.0,0.0,0.0,0.0,0.0,0.0,0.0,0.0,0.0,0.0,0.0,0.0,0.0,0.0,0.0,0.0,0.0,0.0
0.735506635921499,0.3302941754228826,-0.34889728405247566,-0.8840804435694553,-0.6768153268719209,-0.45493891741211945,-0.29362022762926865,-0.22290547055695673,-0.18261480879034164,-0.15166714377273496,-0.1390576821991813,-0.12069964540667238,-0.11160541281929537,-0.09972062337372908,-0.07900721617275136,-0.09756421017441422,-0.08619774181420523,-0.07797175843017973,-0.05482327924988872,-0.06485669216678891,-0.05993643858749433,-0.05508684914327915,-0.0683412679598107,-0.08164399168959921,-0.08295583347197812,-0.09632950658525234,-0.1097285374896478,-0.13217055427390473,-0.1395914093617407,-0.14401860268303263,-0.15748070437062003,-0.1889997876077614,-0.21150836613528187,-0.2430529521037289,-0.28965058821552175,-0.29115287970364007,-0.29568337230489494,-0.31226783893621024,-0.33188707215819807,-0.345522071352285,-0.3321237645582395,-0.3458317457799012,-0.35055936606499394,-0.37638600582721066,-0.3992552505450421,-0.40413115911633213,-0.4060489063960673,-0.41703132480271793,-0.4069906369167497,-0.37590849254871583,-0.34782183257145355,-0.3106749413922641,-0.2975253077179458,-0.26924955464275807,-0.24687548612596555,-0.2183483328567252,-0.18364403937307974,-0.15777695171430084,-0.1407245407765889,-0.10539735158220444,-0.08485789402224833,-0.07307183394557554,-0.0459609109721197,-0.024561442771305047,-0.011866015268550169,0.025221680456851723,0.035584984031525296,0.04028642121152573,0.012265851402750366,0.0026573348499769524,0.0024422019771815563,0.014630181827963442,-0.00589149719032542,-0.02604127755025602,-0.012739340426922707,-0.011103675380036702,-0.006103076101081101,-0.0007533190226326566,-0.013109643304780472,-0.025138512302107,-0.03685336208044782,-0.04225418113993299,-0.05338781197335193,-0.06726492887971441,-0.06886752731267272,-0.06423184967728118,-0.059395562200967464,-0.05739023309534307,-0.031173451588450838,-0.0319004585481727,-0.014486666604686449,-1.508741057500525e-05,0.0024597517212095886,-0.010103354573703812,0.004365783130196563,-0.0022907138821163207,0.01800892621586149,0.041163638146351746,0.07013840357612665,0.125941500293219,0.2716847174657083,0.48325864091343756,0.682414919574271,0.8269915581317812,0.8447459308691642,0.6002710636037045,0.00627471052825188,-0.5553631210937005,-0.7990056640626767,-0.8209552038281208,-0.6994264452421071,-0.27198609612638336,-0.07993354770953492,0.00912148426351554,0.07343210525719282,0.10403080148776508,0.11600828398357847,0.10640770535950252,0.09633023016159031,0.09785208768762847,0.09297180725847581,0.06970075080769664,0.0491310424321537,0.03430741946548599,0.028272605426110913,0.037074929151915376,0.0,0.0,0.0,0.0,0.0,0.0,0.0,0.0,0.0,0.0,0.0,0.0,0.0,0.0,0.0,0.0,0.0,0.0,0.0,0.0,0.0,0.0,0.0,0.0,0.0,0.0,0.0,0.0,0.0,0.0,0.0,0.0,0.0,0.0,0.0,0.0,0.0,0.0,0.0,0.0,0.0,0.0,0.0,0.0,0.0,0.0,0.0,0.0,0.0,0.0,0.0,0.0,0.0,0.0,0.0,0.0,0.0,0.0,0.0,0.0,0.0,0.0,0.0,0.0,0.0,0.0,0.0,0.0,0.0,0.0,0.0,0.0,0.0,0.0,0.0,0.0,0.0,0.0,0.0,0.0,0.0,0.0,0.0,0.0,0.0,0.0,0.0,0.0,0.0,0.0,0.0,0.0,0.0,0.0,0.0,0.0,0.0,0.0,0.0,0.0,0.0,0.0,0.0,0.0,0.0,0.0,0.0,0.0,0.0,0.0,0.0,0.0,0.0,0.0,0.0,0.0,0.0,0.0,0.0,0.0,0.0,0.0,0.0,0.0,0.0,0.0,0.0,0.0,0.0,0.0,0.0,0.0,0.0,0.0,0.0,0.0,0.0,0.0,0.0,0.0,0.0,0.0,0.0,0.0,0.0,0.0,0.0,0.0,0.0,0.0,0.0,0.0,0.0,0.0,0.0,0.0,0.0,0.0,0.0,0.0,0.0,0.0,0.0,0.0,0.0,0.0,0.0,0.0,0.0,0.0,0.0,0.0,0.0,0.0,0.0
0.739717892228892,0.38576493749258534,-0.2349597547416732,-0.8946518097417351,-0.7172029626108174,-0.5306631084323835,-0.3671120682507686,-0.25540624185922967,-0.1890983927679956,-0.14569477996826216,-0.10591206270630231,-0.10181895058868982,-0.10129696308670111,-0.10111388730371913,-0.11408606509526167,-0.11451810315224535,-0.1152291010795527,-0.122620645021159,-0.13025794636018806,-0.12528866250614734,-0.13337486292310338,-0.13845733216416864,-0.1244781047827041,-0.13956901736951996,-0.17088405242239654,-0.16385583612638538,-0.17303863878506887,-0.19200867972034225,-0.19829608557308362,-0.207945086285064,-0.23058197944723516,-0.24053022220242987,-0.2345800377654884,-0.24482608117195434,-0.24238460285467628,-0.22725740584295637,-0.24758843120480575,-0.26486782103888157,-0.2758901139734987,-0.30312587215224884,-0.3369519064179439,-0.36453599998612063,-0.3698367393148697,-0.41062966912382454,-0.41631324692439103,-0.4382416381802487,-0.44111129965643203,-0.4409643377386871,-0.4474185161110388,-0.42515412324744506,-0.4062433698015591,-0.38745077980477566,-0.39121413576487796,-0.36615396891529056,-0.3571729319375612,-0.3353568995509778,-0.30388616620950504,-0.2659412664571731,-0.2279125611542218,-0.1897721405841672,-0.17074944557714716,-0.16119002512486358,-0.1610687779637861,-0.17999000037225424,-0.18904595368955268,-0.1882147760318234,-0.1742661482875259,-0.18248387361553092,-0.18075479439650669,-0.17868933280852217,-0.16985177976785085,-0.16064516510857463,-0.14463587079053053,-0.13785739452963477,-0.14029728337462605,-0.16157259857926573,-0.17599789918821065,-0.1867737131099843,-0.1778450319033132,-0.1748804054751272,-0.1489891205496449,-0.1386795126456451,-0.15036680048609358,-0.13911656431131866,-0.140231271214143,-0.14087317649197087,-0.150671753267755,-0.1760482583006517,-0.18812139426836338,-0.20615233356902424,-0.19163350516376834,-0.1927128036835134,-0.18693164727171294,-0.18071726723466136,-0.1772884482225025,-0.17665555930113008,-0.15957342673389577,-0.13568277023321423,-0.14030085949874835,-0.160604769603713,-0.15809736001177008,-0.15847118148684358,-0.14569733583841518,-0.15509891135426,-0.16423046500544486,-0.1506476951430432,-0.1336299711825721,-0.1164106818132494,-0.11827160881138703,-0.11035443568729084,-0.0958964601925591,-0.09739291841603938,-0.1084556239865452,-0.13232610706029344,-0.12089641043030684,-0.09987669620061519,-0.0885595811228044,-0.06772595296981483,-0.06309017780592725,-0.029760764745719384,0.04505788694778338,0.11638989023622362,0.2034457933667932,0.35431850561496525,0.5817942845554318,0.7991634042489956,0.9806904614875434,0.45553893700342984,-0.19866667740417288,-0.6546415365585738,-0.7969240244077637,-0.7539433488787392,-0.6219951420081051,0.0,0.0,0.0,0.0,0.0,0.0,0.0,0.0,0.0,0.0,0.0,0.0,0.0,0.0,0.0,0.0,0.0,0.0,0.0,0.0,0.0,0.0,0.0,0.0,0.0,0.0,0.0,0.0,0.0,0.0,0.0,0.0,0.0,0.0,0.0,0.0,0.0,0.0,0.0,0.0,0.0,0.0,0.0,0.0,0.0,0.0,0.0,0.0,0.0,0.0,0.0,0.0,0.0,0.0,0.0,0.0,0.0,0.0,0.0,0.0,0.0,0.0,0.0,0.0,0.0,0.0,0.0,0.0,0.0,0.0,0.0,0.0,0.0,0.0,0.0,0.0,0.0,0.0,0.0,0.0,0.0,0.0,0.0,0.0,0.0,0.0,0.0,0.0,0.0,0.0,0.0,0.0,0.0,0.0,0.0,0.0,0.0,0.0,0.0,0.0,0.0,0.0,0.0,0.0,0.0,0.0,0.0,0.0,0.0,0.0,0.0,0.0,0.0,0.0,0.0,0.0,0.0,0.0,0.0,0.0,0.0,0.0,0.0,0.0,0.0,0.0,0.0,0.0,0.0,0.0,0.0,0.0,0.0,0.0,0.0,0.0,0.0,0.0,0.0,0.0,0.0,0.0,0.0,0.0,0.0,0.0,0.0,0.0,0.0,0.0,0.0,0.0,0.0,0.0,0.0,0.0,0.0,0.0,0.0,0.0,0.0,0.0,0.0,0.0,0.0,0.0,0.0,0.0
1.008939487844645,0.7857539793914564,0.1989958885128091,-0.6607073618950325,-0.7593562710644081,-0.7077809702566676,-0.6329911725759964,-0.49263935468000924,-0.26249337611375084,-0.057395305831248966,0.05014324894473728,0.07831831447190636,0.07556026624621497,0.10239186416172175,0.10443549854703353,0.11197311962042227,0.08574072357061659,0.07113381856973305,0.06819115085399016,0.06485478836041801,0.04604104742261065,0.011782333417366538,-0.00463094120177878,-0.015264756125237066,-0.017068654571567664,-0.04025388735794431,-0.05758428405652387,-0.05694343292759283,-0.09576006616206888,-0.1286607354198904,-0.13748602282811728,-0.14943220044241295,-0.15238934095141038,-0.1614612791501923,-0.17361103724251956,-0.18882624077343904,-0.21616633253543605,-0.2525970352001168,-0.2890374892726926,-0.3103600709384674,-0.32562658313527926,-0.33785177566587954,-0.36516873015767093,-0.3591905910950195,-0.3471204382037058,-0.3561609211873534,-0.3469947062632364,-0.3589188879593671,-0.35866330329112556,-0.34621739566571735,-0.37599570045501557,-0.3572782035455029,-0.30819380810508284,-0.3557221127452861,-0.35169195162892475,-0.33237393537784643,-0.3158968655095237,-0.2720114577524214,-0.24303591753019865,-0.22291066628989523,-0.19952940896423127,-0.20916470649234664,-0.22156987428217803,-0.2216171418756969,-0.22139214023295553,-0.18460296830896622,-0.14752568727756218,-0.15248448327288777,-0.1541190956241937,-0.17359029576289278,-0.19577620991547506,-0.2025322323496909,-0.20897456237463582,-0.2332437972859259,-0.23603215360462057,-0.16593790564311828,-0.19530908310613676,-0.2546036731313712,-0.31056410756096736,-0.3571460544861576,-0.3459744799132482,-0.30124140991667825,-0.2743516499659389,-0.29856844867885485,-0.3134226990836002,-0.309847409253329,-0.3241303533799796,-0.31999223387934295,-0.3609339376422069,-0.3683455705272488,-0.36944394921456286,-0.36725549201926955,-0.3496870265279548,-0.35302238137900044,-0.32585992759919813,-0.33169626286755316,-0.34331900905950347,-0.35468136418168245,-0.34461839632853225,-0.30103608393130843,-0.2995259381461634,-0.27961605853283145,-0.25037847887340664,-0.22693288284484364,-0.22742311287938435,-0.22161545282552594,-0.20044228402871103,-0.19112030100698427,-0.16341786016522572,-0.16874234346874642,-0.17384024394457026,-0.14848262155568553,-0.14105601089832528,-0.10923885765168616,0.0,0.0,0.0,0.0,0.0,0.0,0.0,0.0,0.0,0.0,0.0,0.0,0.0,0.0,0.0,0.0,0.0,0.0,0.0,0.0,0.0,0.0,0.0,0.0,0.0,0.0,0.0,0.0,0.0,0.0,0.0,0.0,0.0,0.0,0.0,0.0,0.0,0.0,0.0,0.0,0.0,0.0,0.0,0.0,0.0,0.0,0.0,0.0,0.0,0.0,0.0,0.0,0.0,0.0,0.0,0.0,0.0,0.0,0.0,0.0,0.0,0.0,0.0,0.0,0.0,0.0,0.0,0.0,0.0,0.0,0.0,0.0,0.0,0.0,0.0,0.0,0.0,0.0,0.0,0.0,0.0,0.0,0.0,0.0,0.0,0.0,0.0,0.0,0.0,0.0,0.0,0.0,0.0,0.0,0.0,0.0,0.0,0.0,0.0,0.0,0.0,0.0,0.0,0.0,0.0,0.0,0.0,0.0,0.0,0.0,0.0,0.0,0.0,0.0,0.0,0.0,0.0,0.0,0.0,0.0,0.0,0.0,0.0,0.0,0.0,0.0,0.0,0.0,0.0,0.0,0.0,0.0,0.0,0.0,0.0,0.0,0.0,0.0,0.0,0.0,0.0,0.0,0.0,0.0,0.0,0.0,0.0,0.0,0.0,0.0,0.0,0.0,0.0,0.0,0.0,0.0,0.0,0.0,0.0,0.0,0.0,0.0,0.0,0.0,0.0,0.0,0.0,0.0,0.0,0.0,0.0,0.0,0.0,0.0,0.0,0.0,0.0,0.0,0.0,0.0,0.0,0.0,0.0,0.0,0.0,0.0,0.0
0.5962286406070192,0.048619626771592206,-0.5564413003084142,-0.9020449287004166,-0.8566725937510632,-0.5788266539577825,-0.4093811128896077,-0.27353196760148124,-0.21010971372371146,-0.17720530944895743,-0.1388915194512445,-0.1070884026944842,-0.1056789411844257,-0.11668235475874145,-0.12810019189033314,-0.13989703513976326,-0.14306778242282062,-0.14655101013905278,-0.14732515497053086,-0.14835077787421028,-0.17950322185445583,-0.1839381579144314,-0.17060082126612464,-0.16937028563441744,-0.18321344618777197,-0.20612730709940744,-0.20519663092299878,-0.19236294965736878,-0.1825592461133709,-0.19371001808229535,-0.21084676453738874,-0.20105983105374278,-0.18825782999330976,-0.21130236615307116,-0.23130631349779696,-0.23629700815361043,-0.24121614838825153,-0.27894862895335404,-0.31061110944624776,-0.3182536129248023,-0.3287824094730232,-0.38106579540628643,-0.40332845100260994,-0.4194874152834662,-0.41458486413675966,-0.42449942078495867,-0.44324440880014826,-0.4438999973144581,-0.41748636329794947,-0.4028674316252054,-0.4209648548909283,-0.4119601015748508,-0.3758420878387572,-0.3514747096561073,-0.34183751753335845,-0.3080450778773567,-0.28298147010179275,-0.2696275276079041,-0.2560128642762639,-0.22717746217549245,-0.20105630245257244,-0.17465266528436185,-0.18683624541314,-0.21367997594854746,-0.19537338956243433,-0.17677035530345211,-0.17282205956624075,-0.1895097607498494,-0.17599872524321658,-0.1681763952546592,-0.16903724697705422,-0.1726058715774882,-0.14001392901499918,-0.11612495935269951,-0.11590009679699242,-0.1154270484381715,-0.11471808030448051,-0.09285431620610692,-0.07975486691402009,-0.11132123595754329,-0.10683179549685512,-0.08723938562788558,-0.043594606500523686,0.018098380198085084,0.16360265982738978,0.38391962482575587,0.5265095017898204,0.5733956117214057,0.6022887140263861,0.6251062394076445,0.34874172661957104,-0.22087848420008924,-0.7548708278296715,-0.7838048601822809,-0.5828229375433677,-0.43301354985443297,-0.3702384742766895,-0.34961791999413533,-0.29935891944608334,-0.25831292222842744,-0.2832742591113986,-0.2934805750625575,-0.26498741969885226,-0.2605719986025374,-0.26227202264095756,-0.2700682777903991,-0.26300967358422095,-0.2530400483570771,-0.2521040219556889,-0.23925286300472223,-0.21148095757766802,-0.22559119673913475,-0.2516664839016315,-0.2687618317863691,-0.243971570403574,-0.23111180932249606,-0.2481149719979692,-0.2650683391302184,-0.2460792869355437,-0.22104432801348248,-0.2437838830055714,-0.2933598580233955,-0.2920178123593119,-0.31152294680431725,-0.3518719729867841,-0.36820643795953806,0.0,0.0,0.0,0.0,0.0,0.0,0.0,0.0,0.0,0.0,0.0,0.0,0.0,0.0,0.0,0.0,0.0,0.0,0.0,0.0,0.0,0.0,0.0,0.0,0.0,0.0,0.0,0.0,0.0,0.0,0.0,0.0,0.0,0.0,0.0,0.0,0.0,0.0,0.0,0.0,0.0,0.0,0.0,0.0,0.0,0.0,0.0,0.0,0.0,0.0,0.0,0.0,0.0,0.0,0.0,0.0,0.0,0.0,0.0,0.0,0.0,0.0,0.0,0.0,0.0,0.0,0.0,0.0,0.0,0.0,0.0,0.0,0.0,0.0,0.0,0.0,0.0,0.0,0.0,0.0,0.0,0.0,0.0,0.0,0.0,0.0,0.0,0.0,0.0,0.0,0.0,0.0,0.0,0.0,0.0,0.0,0.0,0.0,0.0,0.0,0.0,0.0,0.0,0.0,0.0,0.0,0.0,0.0,0.0,0.0,0.0,0.0,0.0,0.0,0.0,0.0,0.0,0.0,0.0,0.0,0.0,0.0,0.0,0.0,0.0,0.0,0.0,0.0,0.0,0.0,0.0,0.0,0.0,0.0,0.0,0.0,0.0,0.0,0.0,0.0,0.0,0.0,0.0,0.0,0.0,0.0,0.0,0.0,0.0,0.0,0.0,0.0,0.0,0.0,0.0,0.0,0.0,0.0,0.0,0.0,0.0,0.0,0.0,0.0,0.0,0.0,0.0,0.0,0.0,0.0,0.0,0.0,0.0,0.0,0.0
1.0023663683724104,0.7508045627057622,0.10429840477982545,-0.47939056104290667,-0.6870803795635367,-0.6483414503328879,-0.5680089076460206,-0.2502852635545191,-0.12585091085312433,-0.059124534683772885,-0.025970907915254315,0.0037680185809418143,0.024104503829556683,0.050133473794485586,0.0397195907923278,0.023014494227268582,0.01811995999462217,0.003979697077998901,-0.00431983095492499,-0.018802004750495104,0.005736884994431945,-0.005982171031156657,-0.026830664258503962,-0.050765816761686476,-0.03560187127759276,-0.03252734240989177,-0.03851553028348564,-0.06258923729748121,-0.07762822808946722,-0.10169396995192641,-0.10164453744771451,-0.13168795860385352,-0.15567233418418014,-0.1585308670664268,-0.18242612489143167,-0.20928078241443906,-0.2149940758854415,-0.20558605134698052,-0.21418550418675494,-0.219705165392796,-0.2492507425076186,-0.28474790372127173,-0.27800228954807343,-0.29828889750607895,-0.29138956537123367,-0.2934471332899364,-0.31349623491966383,-0.33045125526020763,-0.3172019437643895,-0.30988853687238016,-0.29946986898302846,-0.29497673672691976,-0.28134372172512345,-0.26760172314963837,-0.25675770707922707,-0.24880680709033395,-0.23772034659624072,-0.21144587860156697,-0.15491927301549613,-0.11632954940444303,-0.0745897568644269,-0.05680641032572434,-0.023822487776721257,-0.00877098570314807,-0.01466600005627731,-0.008378737748586699,-0.007986411725481955,-0.013495539140357391,-0.01889007083992155,0.0029287955860596796,0.030865909516170083,0.08900504651165446,0.15925984408405316,0.2114938298087573,0.3209893134070557,0.43049660698321224,0.558063677330802,0.6434219724691214,0.7015994097349582,0.6301499086119818,0.18505684479616552,-0.4590286627048487,-0.8051705462959984,-0.38352662794477493,-0.27540386744981643,-0.2127117172833588,-0.16229827699759225,-0.12715650254442906,-0.11329210765254154,-0.11767561201253851,-0.12221834683709154,-0.11786868799080485,-0.11364812891931361,-0.1065309835883378,-0.10554066263386967,-0.11066548578143257,-0.10683462303583736,-0.1181346429136989,-0.12949670269372632,-0.1258529063686351,-0.13129266228686007,-0.1397859681102854,-0.13927963866285695,-0.15085367791606452,-0.14739642073564221,-0.1439654314390914,-0.15863110662995417,-0.161272150377053,-0.1669484891947578,-0.17566062121928744,-0.19042177911255992,-0.205209758977836,-0.20797887843485405,-0.24692460406025787,-0.2828939753767245,-0.2827583984329801,-0.28266613545634567,-0.2886452534601317,-0.30672394351419185,-0.3097981401591701,-0.3129322280361494,-0.3311903713200929,-0.3344557377676369,-0.33778972062119655,-0.33215489513790325,-0.3326072119560167,-0.3542002773559533,-0.348732640790786,-0.3463112419484573,-0.3167984636547512,-0.2842695733812928,-0.25472676181731185,-0.22212420816769615,-0.21053667419998526,-0.20187090211496272,-0.1780341188172622,0.0,0.0,0.0,0.0,0.0,0.0,0.0,0.0,0.0,0.0,0.0,0.0,0.0,0.0,0.0,0.0,0.0,0.0,0.0,0.0,0.0,0.0,0.0,0.0,0.0,0.0,0.0,0.0,0.0,0.0,0.0,0.0,0.0,0.0,0.0,0.0,0.0,0.0,0.0,0.0,0.0,0.0,0.0,0.0,0.0,0.0,0.0,0.0,0.0,0.0,0.0,0.0,0.0,0.0,0.0,0.0,0.0,0.0,0.0,0.0,0.0,0.0,0.0,0.0,0.0,0.0,0.0,0.0,0.0,0.0,0.0,0.0,0.0,0.0,0.0,0.0,0.0,0.0,0.0,0.0,0.0,0.0,0.0,0.0,0.0,0.0,0.0,0.0,0.0,0.0,0.0,0.0,0.0,0.0,0.0,0.0,0.0,0.0,0.0,0.0,0.0,0.0,0.0,0.0,0.0,0.0,0.0,0.0,0.0,0.0,0.0,0.0,0.0,0.0,0.0,0.0,0.0,0.0,0.0,0.0,0.0,0.0,0.0,0.0,0.0,0.0,0.0,0.0,0.0,0.0,0.0,0.0,0.0,0.0,0.0,0.0,0.0,0.0,0.0,0.0,0.0,0.0,0.0,0.0,0.0,0.0,0.0,0.0,0.0,0.0,0.0,0.0,0.0,0.0,0.0,0.0,0.0,0.0,0.0,0.0,0.0,0.0,0.0,0.0,0.0
0.5060060535373004,0.10025489987193287,-0.518050248757757,-0.7957367607745123,-0.5893047166364468,-0.43702512998064197,-0.30000947983764015,-0.2530020114193983,-0.24814197682616582,-0.27943478299506774,-0.2750983275492834,-0.23811071336725953,-0.24022950979548868,-0.2545306444405855,-0.2331582786788021,-0.21497842460135053,-0.208954222720986,-0.20610755381027707,-0.20045173066586414,-0.19198189257655343,-0.19863655454143306,-0.22340346703681377,-0.26030034321241924,-0.27045169317882456,-0.2777808070350715,-0.2942501982431719,-0.2929481448697891,-0.3007903945165283,-0.3088087637877068,-0.32597794330460395,-0.3403405145618667,-0.3847952292461089,-0.42346248850256013,-0.42644362653023804,-0.429627948404519,-0.4629233212350264,-0.484467506490557,-0.48229792492015744,-0.46836884938602463,-0.484532371443256,-0.4590014733340296,-0.4336173902939998,-0.37844846143312594,-0.3472923134305549,-0.32516803188431287,-0.297095062491296,-0.26603560307717483,-0.23196208231799306,-0.19783807550696428,-0.19354151680007498,-0.18017270232412191,-0.16069838034525158,-0.14705763553078402,-0.15119084561657262,-0.13719366585473078,-0.1289706967985766,-0.10258186583753595,-0.09987691723248346,-0.13280337654790128,-0.14453162112487353,-0.13804106554303455,-0.15219706110134673,-0.18400104216738175,-0.19158083563209297,-0.207824950810405,-0.22674809262175102,-0.2423660234212458,-0.2427147079144766,-0.2248021362415983,-0.2364736455204098,-0.2597871802539667,-0.24390741655528342,-0.26060541778665397,-0.25904753470897934,-0.272131558189504,-0.25799657454948693,-0.2585130525858278,-0.2766773246212413,-0.2885731048608644,-0.2852367218573966,-0.2696666787974477,-0.2299102480707039,-0.22877495616264018,-0.2244059683516804,-0.23176662706215062,-0.24787896784047073,-0.2697659639603615,-0.28248992492213965,-0.2830754288957372,-0.2745284986313967,-0.25088469735840185,-0.21814183316297842,-0.2062215981462999,-0.21215250767855978,-0.19408919953064846,-0.18195647290534983,-0.1548437891291377,-0.13669749982780505,-0.10062881497788645,-0.07058682161960081,0.06703529058896693,0.24641977427841155,0.43763101315943803,0.5598935982926968,0.652043045413332,0.6153524834295668,0.288291699544213,-0.3620883422685236,-0.8484140552068917,-0.8627349526728573,-0.35722286380464946,-0.23793878745347374,-0.2058207983124502,-0.21299981766018716,-0.21459821446648628,-0.19564319160999566,-0.18003791859047505,-0.1857059227826623,-0.2036585058193882,-0.20098509548630636,-0.18963190135822505,-0.20546926652290917,-0.23951297894780454,-0.22895305158896181,-0.21564370461421833,-0.2324689692823393,0.0,0.0,0.0,0.0,0.0,0.0,0.0,0.0,0.0,0.0,0.0,0.0,0.0,0.0,0.0,0.0,0.0,0.0,0.0,0.0,0.0,0.0,0.0,0.0,0.0,0.0,0.0,0.0,0.0,0.0,0.0,0.0,0.0,0.0,0.0,0.0,0.0,0.0,0.0,0.0,0.0,0.0,0.0,0.0,0.0,0.0,0.0,0.0,0.0,0.0,0.0,0.0,0.0,0.0,0.0,0.0,0.0,0.0,0.0,0.0,0.0,0.0,0.0,0.0,0.0,0.0,0.0,0.0,0.0,0.0,0.0,0.0,0.0,0.0,0.0,0.0,0.0,0.0,0.0,0.0,0.0,0.0,0.0,0.0,0.0,0.0,0.0,0.0,0.0,0.0,0.0,0.0,0.0,0.0,0.0,0.0,0.0,0.0,0.0,0.0,0.0,0.0,0.0,0.0,0.0,0.0,0.0,0.0,0.0,0.0,0.0,0.0,0.0,0.0,0.0,0.0,0.0,0.0,0.0,0.0,0.0,0.0,0.0,0.0,0.0,0.0,0.0,0.0,0.0,0.0,0.0,0.0,0.0,0.0,0.0,0.0,0.0,0.0,0.0,0.0,0.0,0.0,0.0,0.0,0.0,0.0,0.0,0.0,0.0,0.0,0.0,0.0,0.0,0.0,0.0,0.0,0.0,0.0,0.0,0.0,0.0,0.0,0.0,0.0,0.0,0.0,0.0,0.0,0.0,0.0,0.0,0.0,0.0,0.0,0.0
0.7342101926774934,0.0010924893368479992,-0.596171188126233,-0.8863648819760563,-0.6808301483783675,-0.5282563604977801,-0.3473186286216214,-0.18441331182773335,-0.09174306203171574,-0.025707540427194128,0.007938836182480355,0.044084080654502526,0.0653578061672416,0.07470968698424398,0.054765312851079995,0.05201736636460063,0.022959002735530833,0.014078894423960708,-0.015230508804986222,-0.030096778542506683,-0.04209947889267996,-0.022175722352849012,0.006479229092392976,-0.011266116030316832,-0.02893492161585377,-0.02618034427667693,-0.03781690159489062,-0.05801667912803402,-0.06643758316277608,-0.042738968014072204,-0.04206338107047889,-0.06149198094521484,-0.10391374536549368,-0.13738133479499867,-0.1357549195595867,-0.10773346910543126,-0.10846734276953456,-0.10601372954496545,-0.14100965568998666,-0.14958011175997118,-0.16655807380040247,-0.18323032317375224,-0.17636881826576076,-0.14597150469910689,-0.16171268019467683,-0.15681980472589233,-0.17774394853920772,-0.1896490574246842,-0.17511880052197662,-0.14576909343322533,-0.1277324425762956,-0.11811090703917763,-0.13432966497659454,-0.12123640061019113,-0.09625850611519521,-0.0594056316388599,-0.016494975466808212,0.003429657754940312,0.03519201225495971,0.03522914419240916,0.03255483714492941,0.03295579515588594,0.05092625836160288,0.03708935949634802,0.04367633663773019,0.06485359111269806,0.0744635481375716,0.06376544450668667,0.038532134883001175,0.0625973301827482,0.11850473208075159,0.1713771171958479,0.24439784470371081,0.34042565916548273,0.4013502861896103,0.467764963571269,0.6180000778174374,0.7561931989220533,0.603578892211615,0.09621898274601083,-0.513386583523632,-0.7753261749993698,-0.7390134659325404,-0.6163976556479264,-0.436492584757645,-0.25731801681458316,-0.12527269005960473,-0.04901490068025545,0.00634312828182162,0.02343105887484245,0.005198802936961836,0.0010447475931021342,-0.0006005429893004652,-0.0025988109994035066,-0.004910388075722875,-0.016206767953228878,-0.024839138309370977,-0.045288654835922225,-0.05720033922533892,-0.08086476407301142,-0.08431733221135458,-0.09365769345282536,-0.10014906621959416,-0.1008622300762646,-0.11899751289027263,-0.11679041747779709,-0.13486252258857795,-0.13545162832250715,-0.13595636611111728,-0.15377642823948165,-0.20340941966291656,-0.22677527307605408,-0.22385755543029098,-0.24399391412569418,-0.24362195427874744,-0.22853327536139958,-0.2364545991032096,-0.24414718382725284,-0.2486948633125547,-0.2616977170119488,0.0,0.0,0.0,0.0,0.0,0.0,0.0,0.0,0.0,0.0,0.0,0.0,0.0,0.0,0.0,0.0,0.0,0.0,0.0,0.0,0.0,0.0,0.0,0.0,0.0,0.0,0.0,0.0,0.0,0.0,0.0,0.0,0.0,0.0,0.0,0.0,0.0,0.0,0.0,0.0,0.0,0.0,0.0,0.0,0.0,0.0,0.0,0.0,0.0,0.0,0.0,0.0,0.0,0.0,0.0,0.0,0.0,0.0,0.0,0.0,0.0,0.0,0.0,0.0,0.0,0.0,0.0,0.0,0.0,0.0,0.0,0.0,0.0,0.0,0.0,0.0,0.0,0.0,0.0,0.0,0.0,0.0,0.0,0.0,0.0,0.0,0.0,0.0,0.0,0.0,0.0,0.0,0.0,0.0,0.0,0.0,0.0,0.0,0.0,0.0,0.0,0.0,0.0,0.0,0.0,0.0,0.0,0.0,0.0,0.0,0.0,0.0,0.0,0.0,0.0,0.0,0.0,0.0,0.0,0.0,0.0,0.0,0.0,0.0,0.0,0.0,0.0,0.0,0.0,0.0,0.0,0.0,0.0,0.0,0.0,0.0,0.0,0.0,0.0,0.0,0.0,0.0,0.0,0.0,0.0,0.0,0.0,0.0,0.0,0.0,0.0,0.0,0.0,0.0,0.0,0.0,0.0,0.0,0.0,0.0,0.0,0.0,0.0,0.0,0.0,0.0,0.0,0.0,0.0,0.0,0.0,0.0,0.0,0.0,0.0,0.0,0.0,0.0,0.0,0.0,0.0
0.9501584539527502,0.6618077959869579,-0.08066570979618501,-0.8600792330849034,-0.8540839116779284,-0.7037233354269589,-0.2366352082062983,-0.15425526089658995,-0.08765220059780299,-0.05794495169761158,-0.046946488385771014,-0.042518543102430736,-0.020429837565623866,-0.0048288514604187234,-0.0017239116780791758,0.025205828298776038,0.024593967790208067,-0.009573233321004362,-0.019815027565234622,-0.021219688786211475,-0.037948077055150305,-0.04578452242549218,-0.0688931357700446,-0.06794318848231574,-0.10036177528942736,-0.10867920607885953,-0.09589980879885274,-0.1406200745086101,-0.1793268336973499,-0.2089807336235546,-0.24770875952404803,-0.22595314255552829,-0.24952761364444195,-0.29423014219046667,-0.30562285000070977,-0.30183545691108954,-0.2979742906360134,-0.3000750310504005,-0.2930081801856286,-0.3100227102576713,-0.32389515521238554,-0.3285677334945868,-0.36333737730559446,-0.3526029308843611,-0.37194428087655795,-0.3790194684620309,-0.3859103650924232,-0.3653892431967444,-0.3295326920604438,-0.31460538069463423,-0.32361209316499495,-0.32025052857338426,-0.29845491455611883,-0.26727783745443884,-0.25391398862005077,-0.24322757375108553,-0.22008330229594164,-0.17841735286777322,-0.10309566500101908,-0.10597782721735965,-0.09936462226725415,-0.10440902012120284,-0.09388707000726476,-0.0708124457033214,-0.08960195943912717,-0.08070471227609459,-0.05016206377283228,-0.05239494052413878,-0.081353045085278,-0.07958575679000973,-0.09547112798857424,-0.11691583987321218,-0.08344967236119366,-0.07369091117448016,-0.10578645155745568,-0.09508092448613448,-0.08391297307827851,-0.10252798905735243,-0.12977088333515338,-0.1686769261235147,-0.16785704020557932,-0.16965583545168092,-0.14082792258037993,-0.1388379571754092,-0.13346618150443096,-0.13984847687760188,-0.13683818266472572,-0.10026607498596132,-0.11179132555226011,-0.13515252229302854,-0.10385309422654233,-0.10862670895718436,-0.10716824573533953,-0.10857564856507024,-0.06752262703493742,-0.07172416358420747,-0.07585663395048452,-0.06181056451800714,-0.053808798292653184,-0.03676835729056119,-0.019796866423859485,-0.008979902755629463,-0.06785382690678542,-0.09365667490801648,-0.08643158597511229,-0.05831755367058385,0.05413602046755981,0.25692914394691285,0.5681543295846417,0.7881991446540486,0.9411957045694536,1.008939487844645,0.7857539793914564,0.1989958885128091,0.0,0.0,0.0,0.0,0.0,0.0,0.0,0.0,0.0,0.0,0.0,0.0,0.0,0.0,0.0,0.0,0.0,0.0,0.0,0.0,0.0,0.0,0.0,0.0,0.0,0.0,0.0,0.0,0.0,0.0,0.0,0.0,0.0,0.0,0.0,0.0,0.0,0.0,0.0,0.0,0.0,0.0,0.0,0.0,0.0,0.0,0.0,0.0,0.0,0.0,0.0,0.0,0.0,0.0,0.0,0.0,0.0,0.0,0.0,0.0,0.0,0.0,0.0,0.0,0.0,0.0,0.0,0.0,0.0,0.0,0.0,0.0,0.0,0.0,0.0,0.0,0.0,0.0,0.0,0.0,0.0,0.0,0.0,0.0,0.0,0.0,0.0,0.0,0.0,0.0,0.0,0.0,0.0,0.0,0.0,0.0,0.0,0.0,0.0,0.0,0.0,0.0,0.0,0.0,0.0,0.0,0.0,0.0,0.0,0.0,0.0,0.0,0.0,0.0,0.0,0.0,0.0,0.0,0.0,0.0,0.0,0.0,0.0,0.0,0.0,0.0,0.0,0.0,0.0,0.0,0.0,0.0,0.0,0.0,0.0,0.0,0.0,0.0,0.0,0.0,0.0,0.0,0.0,0.0,0.0,0.0,0.0,0.0,0.0,0.0,0.0,0.0,0.0,0.0,0.0,0.0,0.0,0.0,0.0,0.0,0.0,0.0,0.0,0.0,0.0,0.0,0.0,0.0,0.0,0.0,0.0,0.0,0.0,0.0,0.0,0.0,0.0,0.0,0.0,0.0,0.0,0.0,0.0,0.0,0.0,0.0,0.0
0.8585885208391828,0.6577569294287697,0.06863118325060036,-0.4816171309689959,-0.7498585600854275,-0.8018696641420696,-0.2695731532404844,-0.11913514358455855,-0.07444926914088075,-0.040163923315548626,-0.026094470239904136,-0.0256253097053225,-0.03214212406344203,-0.02259970401900201,0.003040860227112794,-0.007765786529563915,-0.0024004977914388226,0.0027393572129471916,0.004400749467300129,-0.010530082705853755,-0.009158241672048076,-0.011173155148504685,-0.03297918278325882,-0.05483125297466129,-0.037266930394205595,-0.0394179779075239,-0.021824325760421613,-0.014042261663881445,-0.012765024133941597,0.01160428797679763,0.019646085085789664,0.01466296559414269,-0.016476159913039762,-0.0671852553345383,-0.11444743866798326,-0.14510621094912152,-0.13943304338793516,-0.13356949497604625,-0.13407992277713768,-0.16067517028240363,-0.17062455271477173,-0.20335887771875716,-0.19971645353093634,-0.21884765580745863,-0.2673203096853322,-0.3024060294370055,-0.28466294107658596,-0.2863860902252143,-0.2812772678265082,-0.2726158235605196,-0.2669675490641685,-0.2708982859278713,-0.2646824714521697,-0.2778911311376843,-0.29079885044639836,-0.30997172090199726,-0.2926785260981477,-0.2783463326995243,-0.26039115618218905,-0.2388019039443407,-0.20042185321863942,-0.12880806495024705,-0.0962517643936838,-0.08631119240974858,-0.06939978039066064,-0.058655600243000115,-0.07050422521765262,-0.052357206797664195,-0.030501604431800534,-0.03451206412600038,-0.051240833373085826,-0.06096852951698673,-0.04397692673008011,-0.05285048420775538,-0.051441100907371876,-0.05947122484656282,-0.08680515393829209,-0.10715751335549063,-0.14025400162623558,-0.1762432767283146,-0.18884253184915664,-0.171488103855979,-0.1701997634054417,-0.17184200115562595,-0.1534205638666313,-0.17738907019658318,-0.1944629841732406,-0.1915090843281486,-0.1915453783270683,-0.1781531055958379,-0.17435118459313353,-0.18672687949175307,-0.18900364263525524,-0.19105619418193878,-0.18632754575153848,-0.194552649200176,-0.1993161493623358,-0.18091669603127755,-0.188668496974581,-0.1831525150229493,-0.16767384173492433,-0.15211093656027241,-0.1529157042333517,-0.15038991354992895,-0.18070538203994466,-0.18144152899859625,-0.13947481288568012,-0.146848127924937,-0.13128331846900848,-0.09609091980614919,-0.0675872710147868,-0.04579816126662028,-0.020891148897829108,0.023537894334785696,0.04144951719628612,0.09525510297921688,0.2506508500065154,0.50760236108113,0.7346151602954261,0.865919526909208,0.9146151015280974,0.6867503575601079,0.1855539009407106,-0.2866848959150648,-0.5854278963027699,-0.6548703294585241,-0.5804953749434644,-0.4543237178782839,0.0,0.0,0.0,0.0,0.0,0.0,0.0,0.0,0.0,0.0,0.0,0.0,0.0,0.0,0.0,0.0,0.0,0.0,0.0,0.0,0.0,0.0,0.0,0.0,0.0,0.0,0.0,0.0,0.0,0.0,0.0,0.0,0.0,0.0,0.0,0.0,0.0,0.0,0.0,0.0,0.0,0.0,0.0,0.0,0.0,0.0,0.0,0.0,0.0,0.0,0.0,0.0,0.0,0.0,0.0,0.0,0.0,0.0,0.0,0.0,0.0,0.0,0.0,0.0,0.0,0.0,0.0,0.0,0.0,0.0,0.0,0.0,0.0,0.0,0.0,0.0,0.0,0.0,0.0,0.0,0.0,0.0,0.0,0.0,0.0,0.0,0.0,0.0,0.0,0.0,0.0,0.0,0.0,0.0,0.0,0.0,0.0,0.0,0.0,0.0,0.0,0.0,0.0,0.0,0.0,0.0,0.0,0.0,0.0,0.0,0.0,0.0,0.0,0.0,0.0,0.0,0.0,0.0,0.0,0.0,0.0,0.0,0.0,0.0,0.0,0.0,0.0,0.0,0.0,0.0,0.0,0.0,0.0,0.0,0.0,0.0,0.0,0.0,0.0,0.0,0.0,0.0,0.0,0.0,0.0,0.0,0.0,0.0,0.0,0.0,0.0,0.0,0.0,0.0,0.0,0.0,0.0,0.0,0.0,0.0,0.0,0.0,0.0,0.0,0.0,0.0,0.0,0.0,0.0,0.0,0.0,0.0,0.0
0.6246063024743003,0.18223341925213163,-0.4141544357194789,-0.7808458772703714,-0.8234332858375324,-0.6895471687898964,-0.5149734189970846,-0.35576824331946444,-0.24436422638090896,-0.1895777575932923,-0.1677533546081762,-0.1375243265298186,-0.15494391942637906,-0.19045664039480834,-0.18793972758554475,-0.1650736197474349,-0.15134833383350274,-0.14378241148949247,-0.15710831123456048,-0.1647308891682252,-0.16662512303192953,-0.1716236069593525,-0.19151238629297435,-0.21151015403032572,-0.21388477422915547,-0.19566564915539084,-0.21882903096429834,-0.29221499855078653,-0.2918212396169028,-0.30029163719730073,-0.3058043303024605,-0.349675564373354,-0.39056408233585876,-0.38712908521631306,-0.39544859695131834,-0.412559355187671,-0.39712131467773576,-0.3963569095393765,-0.4102555490640375,-0.4388068672368983,-0.4288632518332801,-0.4571685287423067,-0.44991061535233845,-0.41593410110060586,-0.40245976913298576,-0.3917628165682041,-0.38678317969735626,-0.3963651981880032,-0.3880243942842275,-0.3440369041630689,-0.4001871788767989,-0.4560939272808046,-0.41137606377286123,-0.39000901398114146,-0.43626225101618865,-0.4497536894712382,-0.3979990597976138,-0.38135679245950305,-0.3496295637412905,-0.2762369724707451,-0.3264841364547512,-0.3291401231944416,-0.30781171275333313,-0.2565854674112791,-0.2285901739905133,-0.22972229716608578,-0.22455027515459688,-0.19830814903237473,-0.19527260072531688,-0.18887165854966398,-0.1761512037860009,-0.17187084697170113,-0.13174996724374005,-0.1384486386768642,-0.21853900380773744,-0.2273742037523944,-0.15610407479225566,-0.11396263706132889,-0.1777124802340672,-0.2824180935556329,-0.2981995713521421,-0.24573377300031343,-0.19293151905542077,-0.18999214074535767,-0.21331426471537793,-0.2717706305457785,-0.3210977163134199,-0.2520871348853651,-0.23007434073875524,-0.1989898951833588,-0.1883756734633824,-0.18644567236597687,-0.19027138684660758,-0.16150065183706405,-0.10606372523248073,-0.10959836601860906,-0.11604427224646917,-0.0841031897341993,-0.04923251481631958,-0.03213104050901909,-0.015122508014465363,0.01946729564209353,0.021412661878605882,0.002479213277053673,0.030519738144355033,0.10843909307815108,0.088583804936322,0.047655568969113916,0.1391074552889255,0.2890800943297804,0.6480691315762572,0.30086645457013605,-0.2596003585952619,-0.6437301656018292,-0.8132199974877854,-0.8005975225601869,-0.7387257234222271,-0.5774046219195809,-0.3638245532939633,-0.2514377252561728,-0.16343466009414348,-0.07024007508359562,-0.02789033463309136,-0.05995080201163616,-0.057145403988856903,-0.016474776879443896,-0.053024591994674145,-0.11656628480677031,-0.15392115428714476,-0.15619329089606507,-0.12629653339084274,-0.11733146959488021,-0.13221493877293353,0.0,0.0,0.0,0.0,0.0,0.0,0.0,0.0,0.0,0.0,0.0,0.0,0.0,0.0,0.0,0.0,0.0,0.0,0.0,0.0,0.0,0.0,0.0,0.0,0.0,0.0,0.0,0.0,0.0,0.0,0.0,0.0,0.0,0.0,0.0,0.0,0.0,0.0,0.0,0.0,0.0,0.0,0.0,0.0,0.0,0.0,0.0,0.0,0.0,0.0,0.0,0.0,0.0,0.0,0.0,0.0,0.0,0.0,0.0,0.0,0.0,0.0,0.0,0.0,0.0,0.0,0.0,0.0,0.0,0.0,0.0,0.0,0.0,0.0,0.0,0.0,0.0,0.0,0.0,0.0,0.0,0.0,0.0,0.0,0.0,0.0,0.0,0.0,0.0,0.0,0.0,0.0,0.0,0.0,0.0,0.0,0.0,0.0,0.0,0.0,0.0,0.0,0.0,0.0,0.0,0.0,0.0,0.0,0.0,0.0,0.0,0.0,0.0,0.0,0.0,0.0,0.0,0.0,0.0,0.0,0.0,0.0,0.0,0.0,0.0,0.0,0.0,0.0,0.0,0.0,0.0,0.0,0.0,0.0,0.0,0.0,0.0,0.0,0.0,0.0,0.0,0.0,0.0,0.0,0.0,0.0,0.0,0.0,0.0,0.0,0.0,0.0,0.0,0.0,0.0,0.0,0.0,0.0,0.0,0.0,0.0,0.0,0.0,0.0,0.0,0.0,0.0,0.0
0.90542400798783,0.5386343893980121,-0.0987355589396243,-0.5852131812104164,-0.7328476354035703,-0.6630006423994126,-0.5515825139977154,-0.35611241691932366,-0.1766247153512675,-0.07069055550348242,-0.013997812031529564,0.011698995932399637,0.045873058462037354,0.04307933522861279,0.05795136973304134,0.0571715807113424,0.04684616112373025,0.048243182367984985,0.03410515923191892,0.02266390418986924,0.016985848878879207,-0.013224323459207349,-0.04670700068796064,-0.04704034025386445,-0.07788412527940572,-0.08158992826551453,-0.10665626642489513,-0.12273159805050919,-0.1267600083082712,-0.13085017901760349,-0.1471116812059008,-0.14216389274722555,-0.1432817281791833,-0.15651175200305287,-0.16970491055530582,-0.17374562808236463,-0.17771542807829377,-0.1694673260921544,-0.17931329655363604,-0.1708457654284837,-0.19257443402348265,-0.21112576098579314,-0.2355850895481742,-0.25380906809771697,-0.26275290248616945,-0.2593720525279532,-0.2891459866521395,-0.28837585085046863,-0.305574154438541,-0.3013041015005117,-0.30891450278485305,-0.30413217377430635,-0.2869454199116895,-0.27857171121184277,-0.26383575644216006,-0.2305951319801901,-0.2212968923252551,-0.21470097533440005,-0.19563321030961592,-0.16105082589881822,-0.13823897019885237,-0.1271888719141779,-0.10969616679823674,-0.08272106497160911,-0.052322963464145826,-0.0336605810904772,-0.0358284231370367,-0.03152950006700575,-0.02076280335573495,-0.030823326985359716,-0.04654915968225815,-0.025485121917917065,-0.01919218570763778,-0.04283986912076552,-0.04184615567770584,-0.0040886621572873766,0.006735244367006881,0.014876080617196124,-0.006973730200781586,-0.013337663212683707,-0.013329955976172923,-0.006968089986520035,0.01785994674555706,0.024740878670627988,0.05004551698823644,0.06039006458949386,0.09820738764733104,0.11494640355543907,0.150003402022762,0.16695413850079321,0.16273220748366596,0.1767271701365609,0.19070423920236876,0.24101549507265688,0.3094212673172411,0.4140720069488085,0.5488531951801214,0.6318282833384747,0.7296605910513133,0.8058956821329626,0.8513685862330479,0.5839624090520633,-0.011564627019128828,-0.5804647722047231,-0.8983994527237533,-0.7015783008051024,-0.43884784114564857,-0.23451397736140775,-0.10672404855136909,-0.04936384456707472,0.0043346045660963865,0.05441776849864576,0.046341297907496366,0.04686854680058387,0.025713515729044747,0.013243197107202329,0.0034300822454257727,-0.0036894518485216868,-0.04144068039296669,-0.03397183458190764,-0.032807434763219165,-0.037916817601772505,-0.058368891115369505,-0.06077557229598392,-0.09666665819865722,-0.08413271673792677,-0.08683675361649704,-0.11688634004965795,0.0,0.0,0.0,0.0,0.0,0.0,0.0,0.0,0.0,0.0,0.0,0.0,0.0,0.0,0.0,0.0,0.0,0.0,0.0,0.0,0.0,0.0,0.0,0.0,0.0,0.0,0.0,0.0,0.0,0.0,0.0,0.0,0.0,0.0,0.0,0.0,0.0,0.0,0.0,0.0,0.0,0.0,0.0,0.0,0.0,0.0,0.0,0.0,0.0,0.0,0.0,0.0,0.0,0.0,0.0,0.0,0.0,0.0,0.0,0.0,0.0,0.0,0.0,0.0,0.0,0.0,0.0,0.0,0.0,0.0,0.0,0.0,0.0,0.0,0.0,0.0,0.0,0.0,0.0,0.0,0.0,0.0,0.0,0.0,0.0,0.0,0.0,0.0,0.0,0.0,0.0,0.0,0.0,0.0,0.0,0.0,0.0,0.0,0.0,0.0,0.0,0.0,0.0,0.0,0.0,0.0,0.0,0.0,0.0,0.0,0.0,0.0,0.0,0.0,0.0,0.0,0.0,0.0,0.0,0.0,0.0,0.0,0.0,0.0,0.0,0.0,0.0,0.0,0.0,0.0,0.0,0.0,0.0,0.0,0.0,0.0,0.0,0.0,0.0,0.0,0.0,0.0,0.0,0.0,0.0,0.0,0.0,0.0,0.0,0.0,0.0,0.0,0.0,0.0,0.0,0.0,0.0,0.0,0.0,0.0,0.0,0.0,0.0,0.0,0.0,0.0,0.0,0.0,0.0,0.0,0.0,0.0,0.0
0.37645095436497217,0.10489690719860059,-0.4778883502883575,-0.49495523353171217,-0.37380598668424625,-0.2653151303386199,-0.1883325906312025,-0.149135327660136,-0.1099947595446914,-0.07090265663027602,-0.06957133719127455,-0.05570201947818881,-0.05443622481162199,-0.07834355653950495,-0.08655885725672272,-0.08536756399915589,-0.09991600239916762,-0.10820217485004778,-0.11022820164117782,-0.09028072650315579,-0.09237001252568688,-0.09135490239625059,-0.09667157876970413,-0.09889753589314998,-0.11061440213190023,-0.14126156015701583,-0.1374134627396229,-0.1682339485498495,-0.16772598239989503,-0.18619518796835038,-0.21108197347596952,-0.2078242884489887,-0.20158319750389264,-0.23323675144115796,-0.24936465546400569,-0.26255621126268375,-0.2854010185829255,-0.2927693562441585,-0.3223975426461668,-0.34286946334336016,-0.34477080141742417,-0.3595468691568605,-0.36520354486983947,-0.3586016791204551,-0.35231326125919715,-0.3589055661735267,-0.3500789025782252,-0.33524838887978686,-0.33954171911212017,-0.3566511305553334,-0.32054333110135275,-0.2909123428945639,-0.239438798770023,-0.19752604750118682,-0.16514482469293762,-0.1202633506013423,-0.07542682157578452,-0.02432160101565155,0.011075115167005475,0.04021766864272117,0.09141857733969816,0.1018330267443363,0.1469192281260983,0.17011490312650662,0.18715130387487128,0.20432739879122072,0.20907989914829486,0.2202759105564214,0.2190603953236567,0.22743851860908892,0.2108334758550473,0.17552862954185278,0.16238100004236233,0.14623596741550068,0.1396561079604424,0.13005535323508752,0.1457082407473802,0.142591302887046,0.13954472033053045,0.1365466394069965,0.1398595560139112,0.13374066583944202,0.1684541381872352,0.21567952664548615,0.22823422114093017,0.2626617591399411,0.278060813413659,0.32468278502036196,0.3899102181288112,0.46740908078574883,0.5319820700960575,0.34468386743771623,-0.29885879366173124,-1.008939487844645,-0.6854669250526122,-0.29342884673704256,-0.15025823410907335,-0.09875043722888048,-0.1011468509869384,-0.08825696054695387,-0.08519017277717258,-0.06990755685978482,-0.07695063044089821,-0.09056936914224886,-0.09187161262584875,-0.08396936518296762,-0.07626230879624325,-0.07815125048024991,-0.07389179213410588,-0.09174683497412052,-0.09711453392971775,-0.11511675569626227,-0.1425867615072025,-0.1606423014642991,-0.15040195761426792,-0.11184483018308627,-0.06381058877771213,-0.07228932993973043,-0.07125394045250137,-0.07954748483552596,-0.11601421621736553,-0.13349031707589828,-0.15082215248870573,-0.18371366887521226,-0.19443356997215722,-0.2301201801307267,-0.24675680993832236,-0.24747660554022316,-0.25427280068842767,-0.26084927186265916,-0.2640534651427351,-0.2544464750702072,-0.26345246990741106,-0.2722031531977195,-0.24611397567424637,-0.27318911926114275,-0.24969201898604707,-0.21962120482047945,-0.20182913447195297,-0.1837357515673753,-0.159048127637413,-0.1309038486687406,-0.11187113854216009,-0.11137581541265819,-0.10741172210494788,-0.11254994638210555,-0.13936258382735967,-0.13755679044628177,-0.13856626852898055,-0.14867920877769983,-0.1553248774300974,-0.17422300697455867,-0.17708795295916352,-0.1827841859757349,0.0,0.0,0.0,0.0,0.0,0.0,0.0,0.0,0.0,0.0,0.0,0.0,0.0,0.0,0.0,0.0,0.0,0.0,0.0,0.0,0.0,0.0,0.0,0.0,0.0,0.0,0.0,0.0,0.0,0.0,0.0,0.0,0.0,0.0,0.0,0.0,0.0,0.0,0.0,0.0,0.0,0.0,0.0,0.0,0.0,0.0,0.0,0.0,0.0,0.0,0.0,0.0,0.0,0.0,0.0,0.0,0.0,0.0,0.0,0.0,0.0,0.0,0.0,0.0,0.0,0.0,0.0,0.0,0.0,0.0,0.0,0.0,0.0,0.0,0.0,0.0,0.0,0.0,0.0,0.0,0.0,0.0,0.0,0.0,0.0,0.0,0.0,0.0,0.0,0.0,0.0,0.0,0.0,0.0,0.0,0.0,0.0,0.0,0.0,0.0,0.0,0.0,0.0,0.0,0.0,0.0,0.0,0.0,0.0,0.0,0.0,0.0,0.0,0.0,0.0,0.0,0.0,0.0,0.0,0.0,0.0,0.0,0.0,0.0,0.0,0.0,0.0,0.0,0.0,0.0,0.0,0.0,0.0,0.0,0.0,0.0,0.0,0.0,0.0,0.0,0.0,0.0,0.0,0.0,0.0,0.0,0.0
0.6573537909072619,0.15625795217570082,-0.44191182503417265,-0.8291338807329125,-0.9027844417629455,-0.8297894131528277,-0.35017131598636153,-0.1956237835652999,-0.09970823586892559,-0.033484768195489796,0.0031002459710759217,0.013308112568594809,0.03249249388387027,0.05428249344637386,0.06267684883111252,0.0513003959434942,0.029822884792506152,0.014330749755547234,-0.011185929503744457,-0.021016486507837703,-0.008708688958980653,-0.022372407183667623,-0.026674234155100333,-0.01837685658378144,-0.023129604535902272,-0.021651628853251913,-0.023548741456456225,-0.04484742062751502,-0.07590051279946552,-0.06854941057307704,-0.08696705445782532,-0.1118828084062857,-0.1336558050277565,-0.14906539213701184,-0.17414873937922848,-0.2153159013297533,-0.2565119765874582,-0.26242633081140787,-0.2779846857872808,-0.30318136382898186,-0.31875464096668626,-0.3311186251781324,-0.34347831866993955,-0.35262012718521,-0.384215515802312,-0.41258524141390374,-0.4441442697801168,-0.4179067853578253,-0.4108866410315013,-0.41023040072834355,-0.39345372814392177,-0.38300173991712066,-0.35317716211219197,-0.30716758251154735,-0.2834644574836017,-0.2884653357086474,-0.2772174034596148,-0.259328612389434,-0.23156972944867152,-0.21959700167169144,-0.20734485977656864,-0.21405227096818347,-0.19156107627965643,-0.1494836830619087,-0.12952774645981674,-0.13488894460467687,-0.16555479599113906,-0.17337262845653326,-0.19684543849566113,-0.21991698178263047,-0.21369423114901037,-0.21347355416557173,-0.21924844920924136,-0.22459440641878448,-0.20383116333041898,-0.16337354010766753,-0.15777868771995948,-0.17420685082156273,-0.18056282881300553,-0.18005618453237612,-0.21762007022038748,-0.24190578853707262,-0.23365975964145022,-0.23460825961522908,-0.24475573777367746,-0.24485081403046516,-0.24131823237495492,-0.24700228716195732,-0.2619102675397749,-0.26358414241249634,-0.25203249011477735,-0.2561493477874209,-0.2727351205585692,-0.30821913630162096,-0.31768041412929776,-0.3011303531478857,-0.2906749696609374,-0.2702792581076427,-0.2527935362792022,-0.24144040082765786,-0.23302424356697832,-0.22755959485616897,-0.21864287906262556,-0.20308072850281025,-0.1969371723882176,-0.20022999703887612,-0.17446477449378753,-0.15496485658351064,-0.14816977983699922,-0.15731079396101016,-0.16636375145310023,-0.13042077527912369,-0.10085793963506136,-0.09374886589033009,-0.08344601265700649,-0.04430328667740091,-0.008445814042915889,0.017675014776735207,0.04365307902873216,0.07908025271061801,0.1399651324249316,0.25836114686077194,0.47273796575196697,0.6996037529979078,0.8522529630611158,0.8985349263428993,0.7774079352528914,0.35721643745702836,-0.24657490011223693,-0.6938450924057885,-0.8049452819984401,-0.7243494329181406,-0.6125386043701359,0.0,0.0,0.0,0.0,0.0,0.0,0.0,0.0,0.0,0.0,0.0,0.0,0.0,0.0,0.0,0.0,0.0,0.0,0.0,0.0,0.0,0.0,0.0,0.0,0.0,0.0,0.0,0.0,0.0,0.0,0.0,0.0,0.0,0.0,0.0,0.0,0.0,0.0,0.0,0.0,0.0,0.0,0.0,0.0,0.0,0.0,0.0,0.0,0.0,0.0,0.0,0.0,0.0,0.0,0.0,0.0,0.0,0.0,0.0,0.0,0.0,0.0,0.0,0.0,0.0,0.0,0.0,0.0,0.0,0.0,0.0,0.0,0.0,0.0,0.0,0.0,0.0,0.0,0.0,0.0,0.0,0.0,0.0,0.0,0.0,0.0,0.0,0.0,0.0,0.0,0.0,0.0,0.0,0.0,0.0,0.0,0.0,0.0,0.0,0.0,0.0,0.0,0.0,0.0,0.0,0.0,0.0,0.0,0.0,0.0,0.0,0.0,0.0,0.0,0.0,0.0,0.0,0.0,0.0,0.0,0.0,0.0,0.0,0.0,0.0,0.0,0.0,0.0,0.0,0.0,0.0,0.0,0.0,0.0,0.0,0.0,0.0,0.0,0.0,0.0,0.0,0.0,0.0,0.0,0.0,0.0,0.0,0.0,0.0,0.0,0.0,0.0,0.0,0.0,0.0,0.0,0.0,0.0,0.0,0.0,0.0,0.0,0.0,0.0,0.0,0.0,0.0,0.0
0.7658278431135211,0.5362164256277249,0.00962015661985647,-0.466320605083129,-0.7374801110334338,-0.7706674985086266,-0.6898846782882334,-0.6160704034959471,-0.382886035185246,-0.20192276673918705,-0.10637450813067442,-0.005466802612665121,0.04643897339559117,0.10383064127761417,0.19700491828207622,0.21414527479308082,0.12204699336418366,0.14753532266488897,0.22414030704480695,0.22189309597982576,0.15898017397018263,0.09289242798755104,0.09018908876493802,0.1327653040838037,0.12389942694569986,0.07571831699441409,0.05779555027834414,0.030851607145124783,0.04329038814109741,0.10118294364975862,0.06244010523635986,-0.021516785810612345,-0.002512079244326105,0.01968994859312155,0.005796007149245657,-0.12884362581046188,-0.2269894886230504,-0.1676868966573065,-0.171652821659042,-0.18445417345990678,-0.1546824142751242,-0.1790880864153547,-0.20021722839836117,-0.21201859118869698,-0.26286716987946745,-0.2560040810724097,-0.2609709533645436,-0.2535771515010838,-0.31545981515418425,-0.3075310645250459,-0.29026327944911123,-0.3664599980113086,-0.40610500608508837,-0.35174826478739885,-0.2789748907523444,-0.27244092717533014,-0.2807391159613089,-0.2947935327154063,-0.2571504254278377,-0.20711273592044702,-0.18700753091063288,-0.15147713237565683,-0.1065665351423486,-0.04925083798967244,-0.018837302768725722,0.011885302807742365,0.10338654249547076,0.1679759182573794,0.19657521231771988,0.134749033788872,0.03993381670338243,0.0300362945778445,0.032472076308864985,-0.0011560540888621669,0.04402916740221589,0.13474500821361762,0.1742103584339165,0.21682352748000003,0.2020819619528432,0.15111845885729808,0.1636776019824513,0.142965019919249,0.1584838025613392,0.1739072451955641,0.1559297146970135,0.18916479085572246,0.2886798419611016,0.3304522000947164,0.22371599122089644,0.22239657105449023,0.32340723057511767,0.4783038155472634,0.6809697039636473,0.49290397114930407,-0.049688425326466945,-0.6324321316070713,-0.8925751214744579,-0.8513409213309265,-0.6417765371426712,-0.3878108785899442,-0.25265286492309197,-0.11226272033321806,0.021335141196479095,-0.03623223398967231,-0.055101365679691,0.03131321849591308,0.1021299787900267,0.15438730134061474,0.1518612777133533,0.15508184869628333,0.16712731322889152,0.18502614686626848,0.20882785353419897,0.19927195345039633,0.0,0.0,0.0,0.0,0.0,0.0,0.0,0.0,0.0,0.0,0.0,0.0,0.0,0.0,0.0,0.0,0.0,0.0,0.0,0.0,0.0,0.0,0.0,0.0,0.0,0.0,0.0,0.0,0.0,0.0,0.0,0.0,0.0,0.0,0.0,0.0,0.0,0.0,0.0,0.0,0.0,0.0,0.0,0.0,0.0,0.0,0.0,0.0,0.0,0.0,0.0,0.0,0.0,0.0,0.0,0.0,0.0,0.0,0.0,0.0,0.0,0.0,0.0,0.0,0.0,0.0,0.0,0.0,0.0,0.0,0.0,0.0,0.0,0.0,0.0,0.0,0.0,0.0,0.0,0.0,0.0,0.0,0.0,0.0,0.0,0.0,0.0,0.0,0.0,0.0,0.0,0.0,0.0,0.0,0.0,0.0,0.0,0.0,0.0,0.0,0.0,0.0,0.0,0.0,0.0,0.0,0.0,0.0,0.0,0.0,0.0,0.0,0.0,0.0,0.0,0.0,0.0,0.0,0.0,0.0,0.0,0.0,0.0,0.0,0.0,0.0,0.0,0.0,0.0,0.0,0.0,0.0,0.0,0.0,0.0,0.0,0.0,0.0,0.0,0.0,0.0,0.0,0.0,0.0,0.0,0.0,0.0,0.0,0.0,0.0,0.0,0.0,0.0,0.0,0.0,0.0,0.0,0.0,0.0,0.0,0.0,0.0,0.0,0.0,0.0,0.0,0.0,0.0,0.0,0.0,0.0,0.0,0.0,0.0,0.0,0.0,0.0,0.0,0.0,0.0,0.0,0.0,0.0,0.0,0.0,0.0,0.0
