0.6588331176461347,0.8116847798190002,0.9153595893187138,0.9559585765987908,0.9403132209645182,0.8061334697625749,0.4634778679072459,0.022839510926066217,-0.4052908230427686,-0.6689524187591834,-0.5815876822720524,-0.3021592299790859,-0.04486782918075803,0.1903763896630491,0.4244025841859431,0.5467171310247075,0.529764387402074,0.5740712591020072,0.5760482935573497,0.5841600226092409,0.5708396704750572,0.6052809936040738,0.604618039482622,0.596568632657223,0.5742891985013386,0.5654915556281289,0.5633262751218996,0.5332943997428888,0.5238342582188276,0.4866180597734346,0.4700788474911508,0.4535304792003941,0.4646661888513521,0.4344134897098022,0.4457544264751704,0.4503470426645585,0.413670503456081,0.4048768505412246,0.4101759546600903,0.3950406365188094,0.3871467428928911,0.3934331197049451,0.4070133267107217,0.4071756060672277,0.4077645409476986,0.39497597778105,0.3964737754729269,0.39153809153307867,0.400917152401812,0.41079885074611344,0.4004573994306357,0.39754668384178415,0.4158952366458225,0.3933011753932986,0.3781473416237359,0.3566095334216287,0.3632433846507708,0.3565743187449919,0.35041934465377805,0.3447703380218766,0.3257940719641671,0.3142139718267009,0.2961934579023074,0.27862940506367445,0.2407705063499107,0.2448041642519683,0.2077713978602476,0.17803383135920267,0.1486586483437198,0.1403588431058179,0.0978182392619779,0.062483411666478715,0.034330394782968836,-0.0004884397751064927,-0.0005274903136967995,-0.014192886552414082,-0.027685631150139074,-0.03411705365810258,-0.012772503059431251,-0.02587418981602297,-0.03887965796997147,-0.04489069438162768,-0.016270366694118108,-0.01522925575004409,-0.014124618891730174,-0.0060472923319217576,-0.018645146527431492,-0.038095426142866255,-0.0367502541207681,0.006130190445231993,0.0076140914870587535,-0.011555269465729382,0.05230545364483735,0.019502020747860047,-0.006281385875360615,0.03025759203036565,0.011630029037577594,0.013873754494880632,0.02317476178529388,0.02571897492306403,0.021515552481773708,0.0036618492235587054,-0.00018651158434571091,0.0030676989331877647,0.020345077803031672,0.010184480197557277,0.034799787812332464,0.04581802795536608,0.036336105235162314,0.04092074646951975,0.05266844549627665,0.03702879068324928,0.049302884871467535,0.07567489359228413,0.053947009346620674,0.060154550592378564,0.06665743780382674,0.10802036763163267,0.10130922475754432,0.10182285809291908,0.14412458435327372,0.1452787324581038,0.14675906460228613,0.18312694137046287,0.20600288695308452,0.2015648859887567,0.21819497005080166,0.24206908593896026,0.22480371339526128,0.22860092528146184,0.239633243058456,0.2509837203990835,0.2695575632431139,0.2884353721785696,0.3214314256553743,0.3063301325642941,0.2915010981041255,0.3045773701732847,0.3040737869989737,0.3107087408706952,0.317552402842727,0.3245850656422152,0.34560878466743616,0.387512317174766,0.38115426499436095,0.3956247967262389,0.4032487221670794,0.4385539499387298,0.4393029193874133,0.4469310053381889,0.4475779843689393,0.468851449701955,0.462328329287308,0.4970816854995524,0.5315954656064374,0.5243511314672848,0.5167675895629565,0.5433494494020853,0.5625703092730588,0.5398127259335905,0.5648665971881504,0.6100206430958474,0.7028541611153842,0.8363850225193856,0.9552458577936646,0.9902417650657758,0.9067314423168472,0.6631569611026101,0.2870726114873063,-0.20088230746619967,-0.5381612994780675,-0.621167314430412,-0.4775740059967731,-0.16955439303868144,0.08179534513173728,0.3456854959657366,0.4908873566572451,0.5589623763870211,0.5569111738161776,0.5608483249596694,0.5708571938942861,0.5939300156717647,0.5955861197584383,0.5897235924865678,0.5764141918246704,0.5902851032061625,0.5415504760951984,0.5201250641612983,0.5398924859393056,0.5525286823895911,0.5235302454432403,0.5013311069867963,0.0,0.0,0.0,0.0,0.0,0.0,0.0,0.0,0.0,0.0,0.0,0.0,0.0,0.0,0.0,0.0,0.0,0.0,0.0,0.0,0.0,0.0,0.0,0.0,0.0,0.0,0.0,0.0,0.0,0.0,0.0,0.0,0.0,0.0,0.0,0.0,0.0,0.0,0.0,0.0,0.0,0.0,0.0,0.0,0.0,0.0,0.0,0.0,0.0,0.0,0.0,0.0,0.0,0.0,0.0,0.0,0.0,0.0,0.0,0.0,0.0,0.0,0.0,0.0,0.0,0.0,0.0,0.0,0.0,0.0,0.0,0.0,0.0,0.0,0.0,0.0,0.0,0.0,0.0,0.0,0.0,0.0,0.0,0.0,0.0,0.0,0.0,0.0,0.0,0.0,0.0,0.0,0.0,0.0,0.0,0.0,0.0,0.0,0.0,0.0,0.0,0.0,0.0,0.0,0.0,0.0,0.0,0.0,0
0.9200914218167114,0.7833822079819728,0.4220583256391929,-0.01727630189228516,-0.457872367428651,-0.6553329085120437,-0.5049224764975058,-0.20919439182694985,0.02236074210858828,0.29460847168286625,0.4819009621810473,0.5354266622742289,0.5111503698945552,0.5348867116847623,0.5438459927571951,0.5241325978813723,0.552656450193924,0.5247083369743393,0.5311632985827894,0.5231887401499509,0.507831415665131,0.520076465511498,0.4971129827336745,0.494876719928593,0.4715074359468063,0.4689654222679524,0.4523708564061942,0.44970882630809705,0.4330801533908205,0.4304654152025156,0.4069757686310532,0.3905874734967412,0.3883190029878728,0.3932163761865928,0.3773679188268592,0.3477862434827013,0.35339357939489685,0.3523021592759301,0.35850445354551164,0.37202066994377503,0.3369872190134622,0.3232731617129932,0.33787861880517905,0.32493483942750745,0.3193796409214477,0.3142377124479295,0.3165026474384579,0.3191959669671953,0.3223228601794569,0.32588692024072324,0.287978625195831,0.2784508330052629,0.26936145355490937,0.27467850798283816,0.252486665944726,0.2516774813007845,0.2512887396339916,0.23035696813991835,0.2168141916611705,0.1896945291647803,0.17692776963755466,0.16453125008731195,0.15249192405180315,0.11984017065935748,0.08751711008502625,0.07646326330300787,0.05872195961121679,0.020306647160031763,0.01708298633393782,-0.013832723950453565,0.01835124266512721,-0.012114841468378679,-0.007452777055749148,-0.009588225579631451,-0.011549386418119223,-0.027319299821047364,0.005957847581753866,-0.016505549531433274,-0.01788061107741294,-0.01913039712724985,0.0006952344123863023,-0.007304262821351351,-0.02217693282357754,-0.008999624515657782,0.018256165898927423,-0.01026220749409642,-0.024702470202024363,0.002877123671218023,-0.011343342593872612,-0.025449289583389968,0.009460190318509277,-0.004401839862020632,0.016794150794374678,0.01717309969402749,0.024682867285201474,0.011389223475537906,0.03318082177102705,0.013226497628123023,0.007414681702589659,0.00876648325818833,0.031258726238443287,0.03997143666372921,0.034910737182741715,0.016082550586993052,0.04635988037382364,0.04192538735562148,0.07263701340196242,0.06166222848328602,0.07187315107277381,0.04040708081343662,0.06506172142350998,0.0690033099760643,0.05223551466385773,0.07064366333822186,0.08231931449144861,0.08726517690385567,0.0994540489279693,0.09793203966847888,0.11064151505056218,0.1305980984172465,0.1368463587352029,0.1852679684089052,0.18505365333883408,0.17811297418904648,0.1644430628489897,0.17896641356519244,0.17976694194057394,0.1877949240055,0.18907348403367413,0.17661005790857048,0.19230789023697564,0.2082168367314822,0.2103562927340126,0.21967086542425732,0.2291631078628814,0.25279022650939403,0.2556115279170314,0.24459655819423984,0.2756103394825589,0.29973791217488016,0.2890186903655694,0.3342398493940684,0.3166296019746539,0.3549130094916309,0.3512707820651904,0.3755278692758474,0.4136844573375207,0.4098273513184396,0.42679054779918396,0.4226272354577204,0.4671524783695227,0.4834889652016888,0.4855653064559998,0.4942929457738012,0.495654646047954,0.5245274527973228,0.5110071745016855,0.5528330110289263,0.5800955931856863,0.6556025487169698,0.7094388437863965,0.846317431154604,0.9334491965187351,0.9148785504170718,0.8044977419858175,0.5044304366181752,0.07047179007522875,-0.3577625570214372,-0.6057310634872363,-0.57569595712296,-0.3235374341349574,-0.05177126188585052,0.1838077905901814,0.4321886312946949,0.5537574834117511,0.5625739220388449,0.5495325099143481,0.5845692451538511,0.5979123665225855,0.6105954475366328,0.6087228192282892,0.5783957596526131,0.5755650090944708,0.5723554088472449,0.5688299247168339,0.5790191619008737,0.5680541273566427,0.515033434114391,0.5247873654527593,0.5135418637046762,0.495313755447709,0.4980878007188868,0.4730085265581663,0.4410704754104043,0.4442215764309961,0.0,0.0,0.0,0.0,0.0,0.0,0.0,0.0,0.0,0.0,0.0,0.0,0.0,0.0,0.0,0.0,0.0,0.0,0.0,0.0,0.0,0.0,0.0,0.0,0.0,0.0,0.0,0.0,0.0,0.0,0.0,0.0,0.0,0.0,0.0,0.0,0.0,0.0,0.0,0.0,0.0,0.0,0.0,0.0,0.0,0.0,0.0,0.0,0.0,0.0,0.0,0.0,0.0,0.0,0.0,0.0,0.0,0.0,0.0,0.0,0.0,0.0,0.0,0.0,0.0,0.0,0.0,0.0,0.0,0.0,0.0,0.0,0.0,0.0,0.0,0.0,0.0,0.0,0.0,0.0,0.0,0.0,0.0,0.0,0.0,0.0,0.0,0.0,0.0,0.0,0.0,0.0,0.0,0.0,0.0,0.0,0.0,0.0,0.0,0.0,0.0,0.0,0.0,0.0,0.0,0
0.626724886345768,0.2861227471463351,-0.15841538334920832,-0.5310076351140366,-0.6557570886599065,-0.4593714571315781,-0.19845890861647975,0.046396163414969084,0.2679532750589099,0.4589717104306668,0.5168868411178739,0.5151118781781944,0.5343899538321107,0.5381415351883262,0.5484444621819703,0.5727088728464471,0.5596821182166571,0.5534312585444512,0.5393605108948955,0.5395338531618847,0.5026875104665172,0.5022076054100372,0.4868251520067255,0.4785937092030778,0.4555693682376849,0.4324683553657122,0.3946745966073872,0.40089491161140267,0.4365090906832262,0.42090236928054986,0.4201079122560973,0.41216671278645456,0.4044476858967441,0.41898269697257307,0.44113906117599816,0.4342844819645187,0.4204445018765227,0.4069774808339392,0.41590468773023737,0.4179178173923124,0.4130365075117182,0.40127830619092175,0.3973237075439015,0.3791886713079842,0.3982122265722012,0.4177414393179368,0.4084538900624661,0.4510126545712322,0.4207686096235497,0.4130455448461874,0.4205100676645271,0.4138292034851539,0.4369929311345573,0.4386665875318948,0.4335058750048864,0.3921692689661693,0.3733031444632967,0.3548943541302106,0.3735879288613251,0.3487070355268969,0.3315580738039752,0.3221181606552613,0.254370204879871,0.20894561662660094,0.20048198382000565,0.19228831047738687,0.13300758701207874,0.08860193194825185,0.06637275399594755,0.051623502064475364,0.022324787602350567,0.02243951431379608,0.015272912711830832,0.0007926290970235165,-0.013701260997596576,-0.006243674808096378,-0.035525789518014765,-0.028253088415347707,-0.05044528618154789,-0.07279684069335393,-0.05133240633126865,-0.015394777746171397,-0.0016543786073647546,-0.02478265328919285,-0.03345833862681466,-0.0276853562824962,-0.02946196616740698,-0.02412127009874869,-0.04098860458908273,-0.02872945306304484,-0.02399547219212601,0.0025569610234413504,0.00694869318303981,0.003860602877441371,-0.014023982837120948,0.01197079416579,0.001204517947520265,0.034351835849978536,0.04543727725199928,0.02714524454943184,0.0014899353398363448,0.012482928285623095,0.001480716241186543,0.06382234718378878,0.045541671388286686,0.06397492710769824,0.08247550734917564,0.05706397964821156,0.05374808311812579,0.09454023797019462,0.0914650117199153,0.08119909433100714,0.07108869605403402,0.09047713793516132,0.07338481281575898,0.07848425630091932,0.12778510908654964,0.11131151870083923,0.08040211688096549,0.1083924955975852,0.08530520488516496,0.09180739833832388,0.08391320787624436,0.09829386794838356,0.12029265425899027,0.127919845445949,0.15051265786304313,0.17341263468268314,0.17462806091696653,0.16882888249993838,0.19268168901641208,0.209527169936546,0.2413650960982477,0.24420164033035685,0.2033717910243301,0.199531888324738,0.21068217715885654,0.2441519271826175,0.24127680426784906,0.2533788374821069,0.2437887823446348,0.24916118345073202,0.2328243104815436,0.2534277600736129,0.2522998751895427,0.24409278762337816,0.22879235647574014,0.25771075956248096,0.27217144678230704,0.2941541410473937,0.3163071820245856,0.3532749554010948,0.3463752093579809,0.40557155443308396,0.4061856901834221,0.4141824338308709,0.4002019989075406,0.4155400896006385,0.3721728027439167,0.3873843141873588,0.44647183817049735,0.4540730904440282,0.4614736663399407,0.4979593740336993,0.4974911415711221,0.4673524631713986,0.4734843903742052,0.5011680763896352,0.5503473181998787,0.6356284181407922,0.6909573652443749,0.8042595879380436,0.9021419367278568,0.9332047576130048,0.8900389194651399,0.7359006027440301,0.40471151532674826,-0.02296020247216103,-0.4592159282987063,-0.6475072298481035,-0.5145546892279855,-0.2656525880460712,-0.003391246856263204,0.2576543179476912,0.4515818729613264,0.4904903797175143,0.5284492265415618,0.5655427317693683,0.5871875602966518,0.5861300549024955,0.5844436448162784,0.5162087614528139,0.5281455763223942,0.5396640063837528,0.5728264062260807,0.5910323873423436,0.5503461914964517,0.5094841836487175,0.4904974490433749,0.4934370087126671,0.4743563976194464,0.4186367059296185,0.3776492024003196,0.37343304021705853,0.42802548431933296,0.4241443261379783,0.4351503624990389,0.4097496743575164,0.4506287844541086,0.4404969988704151,0.43070899927566997,0.3992922088838711,0.4342594813193832,0.4549740450139693,0.44678950747520396,0.4390522349225825,0.4317763372399653,0.42497372905003866,0.4186541660938027,0.4128252792436121,0.3781625837128944,0.35133208096189905,0.37633038723498136,0.0,0.0,0.0,0.0,0.0,0.0,0.0,0.0,0.0,0.0,0.0,0.0,0.0,0.0,0.0,0.0,0.0,0.0,0.0,0.0,0.0,0.0,0.0,0.0,0.0,0.0,0.0,0.0,0.0,0.0,0.0,0.0,0.0,0.0,0.0,0.0,0.0,0.0,0.0,0.0,0.0,0.0,0.0,0.0,0.0,0.0,0.0,0.0,0.0,0.0,0.0,0.0,0.0,0.0,0.0,0.0,0.0,0.0,0.0,0.0,0.0,0.0,0.0,0.0,0.0,0.0,0.0,0.0,0.0,0.0,0.0,0.0,0.0,0.0,0.0,0.0,0.0,0
0.928876415449962,0.7298376681038321,0.3169911761274966,-0.1411103797678818,-0.5272434430061909,-0.6508459955549982,-0.4899535599863428,-0.19118745723424355,0.0402174925792856,0.2923448560216377,0.4699653586471368,0.5731708370471421,0.5287257220159769,0.5420267911807005,0.5544979770468892,0.5662205467623577,0.5699404893880106,0.5730659740760674,0.5756698146792764,0.5778219597205148,0.5649244681795383,0.5663715435084492,0.5382295085667661,0.5538819439086781,0.532727121403322,0.5114806330625035,0.4975253848743235,0.5055742310207424,0.469679976489529,0.4558779991437337,0.4568762724762819,0.4140529514109336,0.4007690072365228,0.4023932738128352,0.3822950643635479,0.3698342305191873,0.3650386900468604,0.3825995227365705,0.3565484216176038,0.3748977842591421,0.3716756079507496,0.3908955994484335,0.3739145287718212,0.40873732340302826,0.4220519181169927,0.4212017655693025,0.3915306913648823,0.4063704822641197,0.3924008554334607,0.3789545745452798,0.35869991328255263,0.3756307897345518,0.349086733341572,0.3450555073304432,0.33420055673301435,0.3238461292887185,0.2846522737490842,0.30459750918738104,0.2883462914899041,0.2798791598988632,0.24251765035774395,0.22023946098149927,0.1763635157295638,0.1328676821402612,0.11172894593433663,0.09092859491197908,0.07777738061674491,0.05758808315814341,0.04500311614687764,0.025334582865138084,-0.0014406272264171336,-0.006015728951947239,-0.025076350649243104,-0.007317481997554416,0.025243213606938462,0.02859125113777225,-0.004625452662463301,-0.045096596022312925,-0.04884642655826983,-0.02322244688937477,-0.019562552806291024,0.0061201387940877545,-0.019505720095003298,-0.04511891293161107,0.002601146660699501,-0.0009983197645626225,0.01740754746003273,0.043153635678002435,0.03957722840405346,0.036007943757932544,0.0251126739881232,0.05088567048255983,0.047333475110443377,0.029119936879889032,0.01090866813163641,0.02936065239781345,0.0038167291148196937,0.02226521964735016,0.011379303141921152,0.029817148165386945,0.026249282432722627,0.05200116293150176,0.1070705762237161,0.09613247610422768,0.02651635937335677,0.0008738149303581491,-0.010128801653746506,-0.00649511678891321,0.004439699754034891,0.008008589643345361,0.004209483542815449,-0.006959727926705804,-0.010836163997738582,0.01457622286837417,0.017949453675626958,0.006615521323093847,-0.004761165440395239,-0.016181242137665485,-0.02031238638380097,-0.017153244172906916,0.015296984968690612,0.04038068629666808,0.050770190969874056,0.009807605855628686,-0.009177632074339198,0.015816325934500323,0.048132155735530334,0.014449926115383075,0.002764588334445309,0.02041345983620664,0.03807131625609372,0.0704078647443795,0.0954300941096344,0.07647962992705676,0.05755518218864091,0.04599255050311039,0.056459752300301966,0.008302002285984817,-0.003155632804251711,9.178270278253456e-05,0.010714495459442645,0.028715257256194445,0.02476674392292954,0.00620401569837436,-0.004972979818415764,-0.0014293372425126089,0.02417032124409492,0.020501464470262062,0.016897001980504436,0.013359718423918232,-0.0047726972294587,-0.015500094823059456,-0.011486881988128807,-0.036723533026072966,-0.0105468358350972,-0.0136052127123025,0.020104027935099304,0.0026022526575951,-0.007439160573983102,-0.002676385979236401,0.009570097748440266,0.021980066172320033,0.019900741408163024,0.04733928044759236,0.045647662420184684,0.06616521371447784,0.10890349330152793,0.10054867335608003,0.09977148228184893,0.12857961775406138,0.1283227170232662,0.13567234720323829,0.15063690580904626,0.19522162878509533,0.1887759205329224,0.18263331009235628,0.2061288658325504,0.2299366981799137,0.20273237012545328,0.2565029349022911,0.2152691970066804,0.23301343028629015,0.21441164194398052,0.21812129165296887,0.214808699863972,0.21180162440636946,0.25308927705116263,0.2653397210088429,0.2558773156107831,0.26135511587784754,0.22310232468300745,0.22176444446711496,0.23533078380105946,0.25645455362755604,0.23379275465325494,0.24798620605847504,0.2550219629103489,0.2768783907181974,0.26220752391128377,0.2916451132733541,0.28451047541600155,0.29210656947168906,0.3437374152294295,0.36605049358704905,0.3516841171285153,0.3372698017674733,0.33743978820590936,0.3448271140057285,0.35939563512691874,0.3957724945879463,0.40992299365290813,0.4018054883055735,0.3860412961087917,0.4139122535830915,0.4193781774901333,0.4170543765975756,0.4142215571851648,0.5061484074250552,0.5241313428887417,0.5780994610926035,0.6753241605379658,0.7864114212437263,0.8306363074288107,0.0,0.0,0.0,0.0,0.0,0.0,0.0,0.0,0.0,0.0,0.0,0.0,0.0,0.0,0.0,0.0,0.0,0.0,0.0,0.0,0.0,0.0,0.0,0.0,0.0,0.0,0.0,0.0,0.0,0.0,0.0,0.0,0.0,0.0,0.0,0.0,0.0,0.0,0.0,0.0,0.0,0.0,0.0,0.0,0.0,0.0,0.0,0.0,0.0,0.0,0.0,0.0,0.0,0.0,0.0,0.0,0.0,0.0,0.0,0.0,0.0,0.0,0.0,0.0,0.0,0.0,0.0,0.0,0.0,0.0,0.0,0.0,0.0,0.0,0.0,0.0,0.0,0
0.7462669450174118,0.4333622713324304,0.01609681519524124,-0.4230438666890589,-0.7190042793055367,-0.43833617739171016,-0.1865290801019548,0.07088678099902372,0.30647138051369605,0.4652609990126567,0.4785287149106127,0.4839703273020557,0.4885433795475417,0.512964664954976,0.4953785153214532,0.4909008909121184,0.5064794308030912,0.4940126403700947,0.4742048415866245,0.4746387212624669,0.4609670810877665,0.4401253589560175,0.4740933671212499,0.4528278447233822,0.4383040329228137,0.396163220147823,0.4158995314973912,0.4012225689680973,0.3865757181492228,0.4064003585172044,0.3919234131774983,0.37070146182666497,0.3702891245441992,0.3563116538068524,0.349439129841695,0.32905484192057205,0.3364678462151135,0.35105803952730585,0.3384419665209189,0.3605661051624223,0.3830435526155551,0.39212810791200897,0.34654831526774155,0.35640912604700925,0.38043539108365343,0.35670767446740753,0.3471596663019169,0.3586765939565134,0.3086910953087927,0.307297392039175,0.306328959684273,0.3126644164896801,0.2850150047597432,0.26466042227063785,0.25847476722605306,0.2526883098290882,0.24041086280849905,0.2422743150494629,0.21698183928740916,0.18516291098162552,0.15368425088321824,0.14317332372772382,0.11921014663348292,0.10930153494765167,0.09966869856969704,0.07653230089141108,0.05363584655906375,0.05160329245691312,0.04289248299353586,0.020603509259524252,0.0053595874810262786,-0.016620343630819705,-0.03847486746433479,-0.03269848377671713,-0.013067046609711785,-0.03463831304606095,-0.0354946055077037,-0.029404139671259086,-0.02325092432633032,-0.010154505070266528,-0.0038747233610837463,-0.004408786179830985,-0.025515202207823263,-0.005262877397269226,0.008188347851949523,0.014844977409753409,-0.005929030494154447,0.007800226938953945,0.0009930224743283317,0.014941278468981009,0.01524772842039259,-0.018723299081363377,0.00936664160651982,0.030717737252437694,0.04533847678650435,0.011952186153191637,0.033779497493933434,0.05578178050090147,0.050443575566750734,0.03153415357218966,0.026584202979034112,0.0562434196788395,0.04482967804924895,0.026753929642689838,0.029546066963706607,0.039450839350239485,0.028951178610908568,-0.0019468411018923114,0.0293327284022497,0.03334514777633544,0.06514306389906968,0.06968559853153558,0.06762073161391621,0.06583442485941657,0.06433146697809088,0.06311631750786895,0.062193114329345774,0.05468484484203602,0.07499919487683858,0.061211888247530814,0.06149163216379831,0.0758409834794367,0.0698580170926175,0.057306272993043285,0.10699562107627253,0.11571477221918205,0.11786860031039645,0.12033806106670875,0.14376519066089558,0.15374474437948693,0.16403660297950806,0.18151904359476967,0.1924270184775895,0.2105179118830379,0.2082631365341367,0.22694140155927495,0.2596645304747102,0.2513773677932435,0.27775932279538385,0.2975143545834261,0.2968683730610217,0.2964499750575124,0.3031246032613891,0.3168753832117749,0.3376839248247768,0.33800691404161465,0.3728693671777963,0.3321545729264355,0.3740965167140237,0.3954557970134664,0.3962036653074752,0.424475240096225,0.452714474967145,0.4877673756289271,0.4745501701224542,0.4887125107420919,0.5302124931369354,0.5301974203985996,0.5436669727471017,0.5636906653199226,0.5833352949196793,0.5681415002976914,0.5937403619206861,0.6050242564575288,0.595048436171723,0.6531968167983877,0.7587569804385775,0.8222048942143366,0.9397952737491091,0.953187832360638,0.9242243011740644,0.6463890842951517,0.32601205867771904,-0.11957519644852922,-0.5115710057334606,-0.6780431690827721,-0.5227000710510356,-0.2450615827699439,-0.01707457926647019,0.23016656676502045,0.4348332416248323,0.5419765156799282,0.5723344690254821,0.5810466463715529,0.5957263911578837,0.5820566274955514,0.6020489894565739,0.6144996773374417,0.6126060556871608,0.6033240863553355,0.5867258332617991,0.5697611786054451,0.5524962360565077,0.5556367751778056,0.5379582889555424,0.5201610062874799,0.5091807964809493,0.5188317629377431,0.4803554443617592,0.4832499879864114,0.46563277147905396,0.4619504448499979,0.41031564135279947,0.4346212267750925,0.4454521334420317,0.4566036440650276,0.44746463959736027,0.4524683971700306,0.0,0.0,0.0,0.0,0.0,0.0,0.0,0.0,0.0,0.0,0.0,0.0,0.0,0.0,0.0,0.0,0.0,0.0,0.0,0.0,0.0,0.0,0.0,0.0,0.0,0.0,0.0,0.0,0.0,0.0,0.0,0.0,0.0,0.0,0.0,0.0,0.0,0.0,0.0,0.0,0.0,0.0,0.0,0.0,0.0,0.0,0.0,0.0,0.0,0.0,0.0,0.0,0.0,0.0,0.0,0.0,0.0,0.0,0.0,0.0,0.0,0.0,0.0,0.0,0.0,0.0,0.0,0.0,0.0,0.0,0.0,0.0,0.0,0.0,0.0,0.0,0.0,0.0,0.0,0.0,0.0,0.0,0.0,0.0,0.0,0.0,0.0,0.0,0.0,0.0,0.0,0.0,0
0.9550962644552684,0.8064098500539162,0.4509347093226263,-0.0013018780288151562,-0.3439431983712712,-0.5357724519850164,-0.4048043014561188,-0.054235906967414316,0.18570647602364188,0.4251751780382871,0.6160623983770476,0.7377815500625298,0.7697429658053482,0.7945658129007568,0.8122953911352686,0.8504963670643024,0.8679209967713948,0.9402914771496228,0.9644239581002688,0.9472232464591136,0.936874336339102,0.9677958159379614,0.9780699004888406,0.0,0.0,0.0,0.0,0.0,0.0,0.0,0.0,0.0,0.0,0.0,0.0,0.0,0.0,0.0,0.0,0.0,0.0,0.0,0.0,0.0,0.0,0.0,0.0,0.0,0.0,0.0,0.0,0.0,0.0,0.0,0.0,0.0,0.0,0.0,0.0,0.0,0.0,0.0,0.0,0.0,0.0,0.0,0.0,0.0,0.0,0.0,0.0,0.0,0.0,0.0,0.0,0.0,0.0,0.0,0.0,0.0,0.0,0.0,0.0,0.0,0.0,0.0,0.0,0.0,0.0,0.0,0.0,0.0,0.0,0.0,0.0,0.0,0.0,0.0,0.0,0.0,0.0,0.0,0.0,0.0,0.0,0.0,0.0,0.0,0.0,0.0,0.0,0.0,0.0,0.0,0.0,0.0,0.0,0.0,0.0,0.0,0.0,0.0,0.0,0.0,0.0,0.0,0.0,0.0,0.0,0.0,0.0,0.0,0.0,0.0,0.0,0.0,0.0,0.0,0.0,0.0,0.0,0.0,0.0,0.0,0.0,0.0,0.0,0.0,0.0,0.0,0.0,0.0,0.0,0.0,0.0,0.0,0.0,0.0,0.0,0.0,0.0,0.0,0.0,0.0,0.0,0.0,0.0,0.0,0.0,0.0,0.0,0.0,0.0,0.0,0.0,0.0,0.0,0.0,0.0,0.0,0.0,0.0,0.0,0.0,0.0,0.0,0.0,0.0,0.0,0.0,0.0,0.0,0.0,0.0,0.0,0.0,0.0,0.0,0.0,0.0,0.0,0.0,0.0,0.0,0.0,0.0,0.0,0.0,0.0,0.0,0.0,0.0,0.0,0.0,0.0,0.0,0.0,0.0,0.0,0.0,0.0,0.0,0.0,0.0,0.0,0.0,0.0,0.0,0.0,0.0,0.0,0.0,0.0,0.0,0.0,0.0,0.0,0.0,0.0,0.0,0.0,0.0,0.0,0.0,0.0,0.0,0.0,0.0,0.0,0.0,0.0,0.0,0.0,0.0,0.0,0.0,0.0,0.0,0.0,0.0,0.0,0.0,0.0,0.0,0.0,0.0,0.0,0.0,0.0,0.0,0.0,0.0,0.0,0.0,0.0,0.0,0.0,0.0,0.0,0.0,0.0,0.0,0.0,0.0,0.0,0.0,0.0,0.0,0.0,0.0,0.0,0.0,0.0,0.0,0.0,0.0,0.0,0.0,0.0,0.0,0
0.6280554162672592,0.3970476902724477,0.022808075971947474,-0.3996621377994558,-0.4367449736525284,-0.2072645326338752,0.015539787833877569,0.16043023288368993,0.20369413522604893,0.22260900163277075,0.2291042181498523,0.25887064041651525,0.2584882936575157,0.2814675306164575,0.2862670810425424,0.2788694326237857,0.2890182243510312,0.2870492442723753,0.26705941798302635,0.2647287554488799,0.2563294747431572,0.2597169899122111,0.2511609137381118,0.2485140800348881,0.2577467754928835,0.25512481593424874,0.258497248064166,0.26788990598506257,0.2536241030153332,0.23948562395986814,0.23143704852436706,0.2532616959650849,0.2396320434596579,0.2618541520470851,0.2605386800958637,0.2475827246184313,0.24676337125294145,0.26997517640480784,0.28752694304567866,0.2875480612499953,0.2819290660957173,0.28255905492049777,0.3072663610762175,0.3204120941834575,0.2922964731905512,0.2823277998787372,0.3023877492704207,0.2871281911747487,0.27813110533417224,0.2694518705737196,0.2670257663820087,0.2589647880096293,0.2393202412378977,0.21996407400286466,0.20682639197981664,0.1880142640449947,0.16351501626179665,0.13331503462230004,0.10928117886261787,0.07951705950545626,0.06182896896541897,0.03837892811446175,0.038853813956162116,0.015711918025198158,-0.013241560157679957,0.0113830199855967,0.00046041549235241154,0.025262759292887748,0.002605394866907761,-0.020002256109394802,-0.036635304603710325,-0.01166373307160677,0.00143627149190996,-0.009225850236615887,-0.02583743646420553,-0.01276301196343258,-0.017533686184223345,-0.01639160817566728,-0.015280489584458212,-0.00826119353539639,-0.025037005464121468,-0.012141386759070305,-0.011155750846094688,0.01950868151451309,-0.009252455151492816,-0.002383608415456559,0.010418094283791129,-0.0005442480497807349,0.012260805071584313,-0.00462623037328494,0.0022667221624654422,0.003243139483757999,0.0458348806361632,0.005295064322360926,0.0004430521125216343,0.01346332893165095,0.026540377489494248,0.045621195817385635,0.011305546989629241,0.01864975312306819,0.002312646998734151,0.0217065269996189,0.017430766754311523,0.019194316252141887,0.03294345569037212,0.02303984967777437,0.03107339168010116,0.033286757708714615,0.05938827934404349,0.05591708249891044,0.06446232669767543,0.07908772660281903,0.08197538324607123,0.09689152183743764,0.08225485545486537,0.07371200629295108,0.07720595697422229,0.09867932156117476,0.09654916281005203,0.09457915233563206,0.10465118768776184,0.10894346522273447,0.125277531998255,0.10612728809955987,0.12277892041539334,0.14552710898556678,0.13872527429573078,0.13207321145113288,0.13744808495197364,0.14296381629416308,0.1664368680309778,0.15439523998191199,0.1484164303350541,0.1484926456853838,0.1724372875244041,0.16677526696568856,0.20278419178709914,0.16758082044385286,0.19184736951210155,0.19834261957935087,0.2286373051874264,0.2173695472930047,0.22392988251696208,0.2423606583772957,0.2726437484021485,0.2909972316781375,0.3092816980304879,0.29777176268135763,0.29802824235911496,0.3219072366355227,0.3099756070264312,0.2859676447453248,0.32708190206367804,0.3501180686066651,0.3728651748024421,0.3774666265314712,0.3935891306248076,0.3796097586656725,0.4067758818232435,0.3978168317289452,0.4299166932833104,0.41986012949463664,0.4091832126384812,0.4215979787110783,0.4332892525161322,0.43232104218657,0.5077461656215485,0.5941584919664962,0.6914964538911547,0.7284077653581055,0.7345276590601532,0.567209001524082,0.2382577737868995,-0.1692351312446944,-0.6672303425058034,-0.4538039562345632,-0.27747719893131034,-0.06097843904192311,0.1660586934495679,0.2908373222770235,0.3074913627528881,0.3111442522154872,0.3078082056529564,0.3272564649704033,0.3398542764363239,0.35160912399423866,0.35070485533761114,0.3253235601142849,0.3171113853838522,0.2964251036734041,0.2930263585486881,0.2713282091947917,0.2610893519201513,0.23266066979657346,0.2276794883638058,0.21055357628398785,0.2110366660769593,0.19353433523953648,0.18185756268078893,0.1879350683189933,0.1642882061890289,0.17630965818204294,0.1705783715569839,0.15901951427965155,0.0,0.0,0.0,0.0,0.0,0.0,0.0,0.0,0.0,0.0,0.0,0.0,0.0,0.0,0.0,0.0,0.0,0.0,0.0,0.0,0.0,0.0,0.0,0.0,0.0,0.0,0.0,0.0,0.0,0.0,0.0,0.0,0.0,0.0,0.0,0.0,0.0,0.0,0.0,0.0,0.0,0.0,0.0,0.0,0.0,0.0,0.0,0.0,0.0,0.0,0.0,0.0,0.0,0.0,0.0,0.0,0.0,0.0,0.0,0.0,0.0,0.0,0.0,0.0,0.0,0.0,0.0,0.0,0.0,0.0,0.0,0.0,0.0,0.0,0.0,0.0,0.0,0.0,0.0,0.0,0.0,0.0,0.0,0.0,0.0,0.0,0.0,0.0,0.0,0.0,0.0,0.0,0.0,0.0,0.0,0.0,0
0.8875978374203217,0.6408803654355882,0.2294971680617804,-0.20442231692065505,-0.5400820838764258,-0.5997806146252946,-0.3550910758042537,-0.11173544788782262,0.17302533840380793,0.40683649770900826,0.4902316179863523,0.4944005302864367,0.4905306145017677,0.4929206860973627,0.5016455847789577,0.5238884472019621,0.5170545709221295,0.5309865342433369,0.5017521453469326,0.5005210269905814,0.4989096314277565,0.4685319083067957,0.4521069282589262,0.4496868499372057,0.44710004835384093,0.4159511269805803,0.4060608308730803,0.4103617329065257,0.3720090447802149,0.397703442106187,0.38082089385811935,0.3640613731076751,0.37590142571583895,0.36659740015257936,0.3504006193586773,0.3700036195003318,0.34721423833786635,0.36027521778180865,0.3167692863969837,0.33048945641216176,0.34456887893516996,0.3376928603920764,0.3169880305769729,0.3393546616913817,0.3336977330407888,0.34269271200704576,0.3521273050585021,0.34067674364684225,0.3225683063527489,0.3191383299262909,0.3232784920635869,0.3136573516628967,0.32582794365485657,0.2815695498336706,0.27331810012833563,0.25840364711111136,0.2368194460823847,0.22988974498362086,0.2020515152342176,0.19595895588899864,0.1760468786610607,0.1707459694466627,0.15871070303593793,0.1399269851484863,0.08593688173797398,0.06783242086660643,0.057154539168715435,0.05388688032894715,0.008237471387519417,-0.0015922220938681426,-0.018283722143651614,0.015032262214296715,-0.022542279917907682,-0.010139541793902805,-0.033101660190768864,-0.013222292907709113,-0.028728707254510624,-0.008520921807936914,-0.009489933873445796,-0.01741831573787701,-0.025198499697456942,0.00272178290400153,-0.026096513375726584,-0.02632340876016494,0.009155178611782491,-0.0049840688653162496,-0.0189600450637982,0.02411959118364639,0.02471222808030651,0.018379602740503247,0.02646180561120821,0.03474502747585605,0.021904565255748867,0.009280111465679149,0.032432772203822416,0.013151422318122784,0.0012184824485467335,0.03219478437173992,0.02786896892226159,0.0451339854697372,0.0484427438485873,0.05913402064814228,0.05588178092538549,0.08135654804513869,0.07867790421985421,0.08340492506960441,0.07421020040010351,0.07243047231106814,0.08518058874500374,0.07691046617342638,0.0902879722490594,0.13242678230677207,0.12511098160431694,0.13944998588073226,0.16122344668289254,0.19754260296705714,0.17729951048810064,0.2071542761154989,0.22310784294666394,0.2180462107324644,0.2061865483438679,0.2586310268456256,0.21893641667039865,0.2079778956667944,0.2257466005985584,0.2224572974682251,0.23365276218258174,0.2522100890433003,0.27811596564134633,0.2686912491986126,0.2736953065475237,0.2717785455332117,0.30558685950221803,0.31110335961178603,0.3238602908283272,0.36516681949524493,0.3496690693579197,0.3484480924959357,0.4041401464311117,0.3887214691702935,0.43015369393136055,0.4217413790723941,0.4487774941168304,0.4685591919253271,0.4881567123428033,0.5146379524182187,0.4981822759921343,0.5169601816712319,0.4998136845356165,0.532018969032786,0.5424129663735139,0.5593806094171931,0.6041933574052799,0.6270122571451371,0.7486536117518517,0.8481646964736671,0.9396935127997558,0.9449439212054472,0.7642827990391932,0.454509053098141,0.02264243789371069,-0.4034166182051649,-0.6175494229575912,-0.5273711443936181,-0.31775798391919546,-0.08820690404429937,0.16136598147303088,0.3954991307651173,0.5005118180502233,0.5191580942192603,0.5439648384757818,0.5465733878300912,0.5697299749993462,0.5850704843027188,0.5642279514095058,0.5570508637207334,0.5778310797321476,0.5484177724948154,0.5257616954133926,0.5099247673788363,0.5294093246860442,0.4918322076032988,0.4754658866267698,0.4874727575605431,0.4852375080075385,0.4688069575255158,0.4666685456971132,0.4717535603046582,0.4343263864691218,0.4255319969464525,0.42407329267030586,0.4015402853612484,0.0,0.0,0.0,0.0,0.0,0.0,0.0,0.0,0.0,0.0,0.0,0.0,0.0,0.0,0.0,0.0,0.0,0.0,0.0,0.0,0.0,0.0,0.0,0.0,0.0,0.0,0.0,0.0,0.0,0.0,0.0,0.0,0.0,0.0,0.0,0.0,0.0,0.0,0.0,0.0,0.0,0.0,0.0,0.0,0.0,0.0,0.0,0.0,0.0,0.0,0.0,0.0,0.0,0.0,0.0,0.0,0.0,0.0,0.0,0.0,0.0,0.0,0.0,0.0,0.0,0.0,0.0,0.0,0.0,0.0,0.0,0.0,0.0,0.0,0.0,0.0,0.0,0.0,0.0,0.0,0.0,0.0,0.0,0.0,0.0,0.0,0.0,0.0,0.0,0.0,0.0,0.0,0.0,0.0,0.0,0.0,0.0,0.0,0.0,0.0,0.0,0.0,0.0,0.0,0.0,0.0,0.0,0.0,0
0.6588331176461347,0.8116847798190002,0.9153595893187138,0.9559585765987908,0.9403132209645182,0.8061334697625749,0.4634778679072459,0.022839510926066217,-0.4052908230427686,-0.6689524187591834,-0.5815876822720524,-0.3021592299790859,-0.04486782918075803,0.1903763896630491,0.4244025841859431,0.5467171310247075,0.529764387402074,0.5740712591020072,0.5760482935573497,0.5841600226092409,0.5708396704750572,0.6052809936040738,0.604618039482622,0.596568632657223,0.5742891985013386,0.5654915556281289,0.5633262751218996,0.5332943997428888,0.5238342582188276,0.4866180597734346,0.4700788474911508,0.4535304792003941,0.4646661888513521,0.4344134897098022,0.4457544264751704,0.4503470426645585,0.413670503456081,0.4048768505412246,0.4101759546600903,0.3950406365188094,0.3871467428928911,0.3934331197049451,0.4070133267107217,0.4071756060672277,0.4077645409476986,0.39497597778105,0.3964737754729269,0.39153809153307867,0.400917152401812,0.41079885074611344,0.4004573994306357,0.39754668384178415,0.4158952366458225,0.3933011753932986,0.3781473416237359,0.3566095334216287,0.3632433846507708,0.3565743187449919,0.35041934465377805,0.3447703380218766,0.3257940719641671,0.3142139718267009,0.2961934579023074,0.27862940506367445,0.2407705063499107,0.2448041642519683,0.2077713978602476,0.17803383135920267,0.1486586483437198,0.1403588431058179,0.0978182392619779,0.062483411666478715,0.034330394782968836,-0.0004884397751064927,-0.0005274903136967995,-0.014192886552414082,-0.027685631150139074,-0.03411705365810258,-0.012772503059431251,-0.02587418981602297,-0.03887965796997147,-0.04489069438162768,-0.016270366694118108,-0.01522925575004409,-0.014124618891730174,-0.0060472923319217576,-0.018645146527431492,-0.038095426142866255,-0.0367502541207681,0.006130190445231993,0.0076140914870587535,-0.011555269465729382,0.05230545364483735,0.019502020747860047,-0.006281385875360615,0.03025759203036565,0.011630029037577594,0.013873754494880632,0.02317476178529388,0.02571897492306403,0.021515552481773708,0.0036618492235587054,-0.00018651158434571091,0.0030676989331877647,0.020345077803031672,0.010184480197557277,0.034799787812332464,0.04581802795536608,0.036336105235162314,0.04092074646951975,0.05266844549627665,0.03702879068324928,0.049302884871467535,0.07567489359228413,0.053947009346620674,0.060154550592378564,0.06665743780382674,0.10802036763163267,0.10130922475754432,0.10182285809291908,0.14412458435327372,0.1452787324581038,0.14675906460228613,0.18312694137046287,0.20600288695308452,0.2015648859887567,0.21819497005080166,0.24206908593896026,0.22480371339526128,0.22860092528146184,0.239633243058456,0.2509837203990835,0.2695575632431139,0.2884353721785696,0.3214314256553743,0.3063301325642941,0.2915010981041255,0.3045773701732847,0.3040737869989737,0.3107087408706952,0.317552402842727,0.3245850656422152,0.34560878466743616,0.387512317174766,0.38115426499436095,0.3956247967262389,0.4032487221670794,0.4385539499387298,0.4393029193874133,0.4469310053381889,0.4475779843689393,0.468851449701955,0.462328329287308,0.4970816854995524,0.5315954656064374,0.5243511314672848,0.5167675895629565,0.5433494494020853,0.5625703092730588,0.5398127259335905,0.5648665971881504,0.6100206430958474,0.7028541611153842,0.8363850225193856,0.9552458577936646,0.9902417650657758,0.9067314423168472,0.6631569611026101,0.2870726114873063,-0.20088230746619967,-0.5381612994780675,-0.621167314430412,-0.4775740059967731,-0.16955439303868144,0.08179534513173728,0.3456854959657366,0.4908873566572451,0.5589623763870211,0.5569111738161776,0.5608483249596694,0.5708571938942861,0.5939300156717647,0.5955861197584383,0.5897235924865678,0.5764141918246704,0.5902851032061625,0.5415504760951984,0.5201250641612983,0.5398924859393056,0.5525286823895911,0.5235302454432403,0.5013311069867963,0.0,0.0,0.0,0.0,0.0,0.0,0.0,0.0,0.0,0.0,0.0,0.0,0.0,0.0,0.0,0.0,0.0,0.0,0.0,0.0,0.0,0.0,0.0,0.0,0.0,0.0,0.0,0.0,0.0,0.0,0.0,0.0,0.0,0.0,0.0,0.0,0.0,0.0,0.0,0.0,0.0,0.0,0.0,0.0,0.0,0.0,0.0,0.0,0.0,0.0,0.0,0.0,0.0,0.0,0.0,0.0,0.0,0.0,0.0,0.0,0.0,0.0,0.0,0.0,0.0,0.0,0.0,0.0,0.0,0.0,0.0,0.0,0.0,0.0,0.0,0.0,0.0,0.0,0.0,0.0,0.0,0.0,0.0,0.0,0.0,0.0,0.0,0.0,0.0,0.0,0.0,0.0,0.0,0.0,0.0,0.0,0.0,0.0,0.0,0.0,0.0,0.0,0.0,0.0,0.0,0.0,0.0,0.0,0
0.9238795171045556,0.6940945328964114,0.2995587170790266,-0.16027337394924748,-0.5148410660525988,-0.6717868362088408,-0.4818181590696744,-0.1866705749581153,0.06440604871829281,0.3141701401904523,0.4844968592562429,0.5399243641814712,0.5160960062786932,0.5553138605352138,0.5723330517589577,0.567235066825802,0.5898738618180981,0.5976606564525021,0.5835575288418844,0.5689666150082515,0.5752871331859658,0.5314755565859536,0.5229222361517778,0.5141319190464393,0.4980497840341771,0.4747292007727393,0.4868856179895815,0.4492384028102722,0.4613842883130103,0.4664810072156785,0.4716808392926594,0.43435840104156703,0.4327688969585977,0.4242824133451636,0.4160422035299242,0.39385711477015856,0.3861984834307556,0.3788711072724025,0.3861208992757876,0.36530578564122573,0.37333242370800057,0.4031087903085251,0.38354414163515255,0.3715394262921676,0.3955506289507284,0.35603816862897825,0.3738940947381591,0.3780181145648445,0.3826372045623903,0.366422643328056,0.3578191271448105,0.34971571241688315,0.3278889048997628,0.3349995541952131,0.2928239240576946,0.30801640362461724,0.25257478666131783,0.26870426586909096,0.26395363982284503,0.2240887406603103,0.19176017317585464,0.20961742172014255,0.15676149612156615,0.1256152047145479,0.1019391487294601,0.09282558597996544,0.06981245681845971,0.06132332989424594,0.03889533236950594,0.023840615661504458,0.0090280904984259,0.01576959461779473,-0.005730694914363299,-0.019939541242739986,-0.0268769708615334,-0.026561116008523452,-0.03322907871546748,-0.06111543770810195,-0.024900953206220457,-0.03125114139685952,-0.009060114048884998,-0.015212722028613318,-0.014153055301166144,-0.020099089494804923,0.016729398280404092,0.01812083237201364,-0.008807307882159412,-5.154132362309545e-05,0.02306331126310782,0.017880149330630382,-0.0013721505601776776,-0.0062432781429760855,0.010384922543564795,0.0200773928066751,0.015731306688286102,0.01868678405578358,0.014730058354496638,0.039422600467566495,0.042996668990587024,0.01834889472477752,0.03659407057216328,0.04796395128751714,0.024022393314572992,0.014551390361459204,0.012446723599500385,0.06037943231480177,0.05880526249775792,0.04328412775058981,0.07781869386162439,0.07708541758335258,0.08375407453067926,0.10494024712589824,0.10509452970230276,0.11977460742299666,0.1347623091067028,0.15717114935842078,0.1585601612060813,0.18159520735291468,0.20494450372340325,0.20016459671288808,0.1885863388659238,0.18442882035097685,0.20902094995792386,0.198361575695284,0.19510992376339592,0.2205919438954059,0.23924651785000414,0.2297329475323707,0.24181695414614215,0.2612662562522765,0.2880688864331698,0.2795470016213089,0.27123969548889937,0.28446314086692964,0.2978675850692824,0.3043233762003454,0.3251424192389994,0.3247490051224068,0.3457841761597845,0.3740012584904868,0.4235948955454049,0.4163179605587773,0.4232472014055621,0.42301738418055385,0.4298149665080637,0.4507135293723768,0.4714522200236317,0.4777679321443201,0.4980597714744607,0.5180598855957835,0.5021656471318471,0.5285440232564552,0.5544765239123977,0.5585743009816613,0.5834425879415547,0.6076869714199407,0.6952392594689972,0.7962560368563711,0.9177765045782486,0.9743959821602708,0.9518128157766028,0.7432805794311378,0.3629310344664695,-0.06844635088113621,-0.4798392539023188,-0.6793459030816046,-0.5034619883868175,-0.2365966397705808,-0.006674404128318249,0.22906092559983546,0.4280370519048823,0.5263482473138831,0.5240834981465797,0.5422121053842572,0.5239317107630933,0.5617632375739358,0.5562344275152538,0.5714177291907347,0.5789429098415683,0.5788799258327161,0.5641850772614864,0.5420332929317674,0.5267074422751652,0.5253769230037165,0.5238762146329324,0.4867048851343952,0.4992428295013925,0.4833199934813798,0.4603144883511299,0.44449124723434336,0.4216698554698597,0.44166452991822425,0.0,0.0,0.0,0.0,0.0,0.0,0.0,0.0,0.0,0.0,0.0,0.0,0.0,0.0,0.0,0.0,0.0,0.0,0.0,0.0,0.0,0.0,0.0,0.0,0.0,0.0,0.0,0.0,0.0,0.0,0.0,0.0,0.0,0.0,0.0,0.0,0.0,0.0,0.0,0.0,0.0,0.0,0.0,0.0,0.0,0.0,0.0,0.0,0.0,0.0,0.0,0.0,0.0,0.0,0.0,0.0,0.0,0.0,0.0,0.0,0.0,0.0,0.0,0.0,0.0,0.0,0.0,0.0,0.0,0.0,0.0,0.0,0.0,0.0,0.0,0.0,0.0,0.0,0.0,0.0,0.0,0.0,0.0,0.0,0.0,0.0,0.0,0.0,0.0,0.0,0.0,0.0,0.0,0.0,0.0,0.0,0.0,0.0,0.0,0.0,0.0,0.0,0.0,0.0,0.0,0.0,0.0,0.0,0
0.4466342698770093,0.25442498604011593,-0.003701517945197361,-0.24623407306201275,-0.3549588195826637,-0.2768871083275099,-0.10988396296928583,0.035977784072383674,0.1811329449242893,0.25629932299497216,0.26967653183539675,0.2620872048923959,0.27435262723014336,0.2861222083658821,0.28520006140183995,0.2838570948735652,0.2862067159681786,0.2759707242170243,0.27764986485847104,0.2831192018847828,0.27201829801671845,0.27292175246775224,0.25731027692302266,0.2374435951995101,0.23373621991093144,0.22174306203836272,0.2137202029483244,0.20561046459578494,0.189277562660638,0.1932865238369976,0.16871871262401686,0.1808395819619216,0.16033849795338048,0.1602450527249654,0.15610532090361026,0.1560888772834687,0.15205236543584846,0.1603198745320335,0.1645904320889971,0.15264030169840068,0.16525941376253045,0.17391029502313735,0.17452287196926594,0.17933835223472774,0.1924409954908535,0.21383612704315252,0.2027477332515529,0.19180340942843474,0.2095516994734519,0.18666728409176095,0.1843210017999556,0.1821220042970005,0.1474444086546705,0.1536904008602902,0.12745207341296558,0.1298959936037924,0.12023714961198888,0.12293848292177208,0.12168195709100722,0.09607088331108464,0.0868785294745155,0.07370711800848835,0.0565486253178467,0.03947269694590487,0.034704771040971735,0.01776774932132787,-0.003191338626117804,0.008520711665220443,-0.008275496338352863,-0.008730422248520052,-0.017320379963838846,-0.03405262794839114,-0.038542590859860254,-0.034870684400637335,-0.018957587378860857,-0.027501042628255697,-0.04010446457489985,-0.04044669271988277,-0.02851490733640072,-0.016526559284023166,-0.02485246585424374,-0.0086132715304572,0.04444843879571389,0.044639956641931364,0.05315574522389956,0.05370732875039163,0.07894241774018021,0.0799477006941857,0.08937022488244865,0.11538841179214368,0.14171201001495876,0.17651841724488646,0.19536002122338525,0.22272477918855285,0.19338284274905213,0.2215369075483074,0.21748681861250985,0.2301845942013669,0.20255218561492214,0.17538329740769915,0.17315847067705056,0.1632648421669972,0.1538690595698108,0.1531369542535531,0.15292143754474574,0.1532307304332607,0.12144798790929873,0.10651635229061687,0.10844190656630803,0.1027619750993416,0.12210586748000013,0.13385377670372425,0.1216974359328588,0.13457651184583272,0.15618145984892845,0.16204598711774912,0.1684833966612027,0.1754940305620202,0.23201384057467445,0.24832462006543135,0.2652042079012873,0.2989609752817763,0.2598729878598225,0.2539626248383733,0.2730659111817464,0.2519250746042893,0.2639342584088477,0.2601452160510818,0.2405448334040855,0.23774299700735646,0.2598801646318626,0.27431522859298296,0.28103008319775685,0.2963174018733221,0.3038441515039176,0.2954318927348935,0.30368104373144744,0.3040980180624676,0.28034378623974465,0.23238994898122026,0.23361138341899326,0.2472747875357864,0.2284896159092841,0.2506271792909861,0.2606384780884393,0.26256578701014005,0.2808402659424966,0.27872119683207564,0.2724809471869002,0.28246852858306937,0.2923292511254032,0.3020191632723208,0.2992587388138051,0.3247814312068084,0.3214462934371388,0.3136715080646568,0.3258736504177557,0.3539214637488654,0.3773699112459221,0.4450988269485706,0.5366595175878724,0.5174160095270621,0.3506025500092365,0.10140174104895547,-0.15684949300385054,-0.3426586594598355,-0.3785964026018784,-0.2565274545992365,-0.13955816327345796,-0.019492924027365792,0.12411123878390867,0.2382944744999293,0.2945645379484284,0.3092864068994306,0.3151357369965123,0.3243964490809137,0.3167265869227063,0.3084849113762601,0.3282627126851921,0.3230889851873539,0.321551835388242,0.3155354152818836,0.3091563821253099,0.29021766480223443,0.2709888724588225,0.251504050130734,0.2562641139536295,0.23636404440983114,0.216302218794179,0.21649779490723067,0.20843239694972487,0.18397675500372807,0.1839370090780469,0.21241604023116914,0.2082672070515708,0.20821571022497645,0.2163614077085924,0.2041788149885903,0.2165460438771912,0.2167794318113326,0.2252867609345788,0.2094602397305496,0.2223297414043288,0.21905118768235174,0.22002799142731352,0.22119424420160827,0.2347950881239148,0.24860633329732856,0.26263672887168554,0.2728157432910947,0.2832276071641418,0.2816430363244544,0.25583133046762435,0.2628870215330892,0.2661084958002445,0.24918301348368035,0.2488109940182933,0.2609112341833085,0.244698947636437,0.21648057091606526,0.2170295431102038,0.2014794297487399,0.1738991633025704,0.14243470651950396,0.15193349171807632,0.14529129719178055,0.1224956690034967,0.09984557745586096,0.0895613426991039,0.054926333566844066,0.04894029991531584,0.0348858881397562,0.024981952022627863,0.011056982546650834,0.009407571829147513,-0.008528157712136823,-0.02645371628265137,-0.02399376623880231,0.0,0.0,0.0,0.0,0.0,0.0,0.0,0.0,0.0,0.0,0.0,0.0,0.0,0.0,0.0,0.0,0.0,0.0,0.0,0.0,0.0,0.0,0.0,0.0,0.0,0.0,0.0,0.0,0.0,0.0,0.0,0.0,0.0,0.0,0.0,0.0,0.0,0.0,0.0,0.0,0.0,0.0,0.0,0.0,0.0,0.0,0.0,0.0,0.0,0.0,0.0,0.0,0.0,0.0,0.0,0.0,0.0,0.0,0.0,0.0,0.0,0.0,0
0.4835637013436336,0.57379894413216,0.712327965960486,0.7663804565092546,0.7638433072602591,0.6487765707803248,0.31633972632900736,-0.13573872376966842,-0.5678203553839675,-0.484006069399483,-0.19863189155733835,0.043864638821841315,0.2435486229007944,0.3236471860907699,0.3331207465789301,0.3488691066540689,0.3988936489105139,0.3994300022468119,0.39244631161229376,0.4129234742218882,0.41900266863067054,0.4247050134514684,0.4021380287774233,0.3792891158517331,0.3701731640586701,0.37483266516814656,0.3374262554091305,0.33483045795068284,0.2972298465583877,0.3084828337021291,0.29877083284596834,0.28908197263687363,0.3004028878676485,0.2489400091553763,0.27442628380319456,0.2511538922073581,0.2629711601644155,0.25402014601364536,0.25226460025121034,0.28566700327254324,0.2494688130466563,0.2484675767392588,0.254739833068576,0.2473461289993399,0.26122774247224084,0.25448695826902873,0.276033012629817,0.2699951105940709,0.25733883346448755,0.2799841643213819,0.28904154195382586,0.2635610075676313,0.2733994147579761,0.28363354054914336,0.2802945467215135,0.2843384298097166,0.2678230307849157,0.2796425253544198,0.2569257407601365,0.2765051177191558,0.28249205121644505,0.2469375560489449,0.2536552439035868,0.2397672295073225,0.2262173663235697,0.1850515548888652,0.17912282224998985,0.14554875967692255,0.12622482159138695,0.10716372999618486,0.09533332752318154,0.09071567040120153,0.051380834686089234,0.0541477027899745,0.02215938736422396,0.011278491425108584,0.0075150013480580645,-0.003121152883955065,-0.013664327109793631,-0.010163330074405908,-0.02057717591800734,-0.03095240975811356,-0.027333621880527882,-0.03767396559846911,-0.03404199285595358,-0.016443678907827556,0.00813298439599397,0.018731066186311783,0.029319847850956288,0.018942264200475088,0.008552606952518957,-0.022806430392925396,-0.012269190086220369,0.03317964638925477,0.0017778043573228634,-0.001694388640321885,0.029749877867526812,0.02625981889070118,0.04371901120867192,0.02624689095156797,0.036711935589099916,0.033203732590666765,0.036678941125504114,0.04015305200662225,0.043626623236716434,0.01915900971565983,0.008661854054113979,0.0,0.0,0.0,0.0,0.0,0.0,0.0,0.0,0.0,0.0,0.0,0.0,0.0,0.0,0.0,0.0,0.0,0.0,0.0,0.0,0.0,0.0,0.0,0.0,0.0,0.0,0.0,0.0,0.0,0.0,0.0,0.0,0.0,0.0,0.0,0.0,0.0,0.0,0.0,0.0,0.0,0.0,0.0,0.0,0.0,0.0,0.0,0.0,0.0,0.0,0.0,0.0,0.0,0.0,0.0,0.0,0.0,0.0,0.0,0.0,0.0,0.0,0.0,0.0,0.0,0.0,0.0,0.0,0.0,0.0,0.0,0.0,0.0,0.0,0.0,0.0,0.0,0.0,0.0,0.0,0.0,0.0,0.0,0.0,0.0,0.0,0.0,0.0,0.0,0.0,0.0,0.0,0.0,0.0,0.0,0.0,0.0,0.0,0.0,0.0,0.0,0.0,0.0,0.0,0.0,0.0,0.0,0.0,0.0,0.0,0.0,0.0,0.0,0.0,0.0,0.0,0.0,0.0,0.0,0.0,0.0,0.0,0.0,0.0,0.0,0.0,0.0,0.0,0.0,0.0,0.0,0.0,0.0,0.0,0.0,0.0,0.0,0.0,0.0,0.0,0.0,0.0,0.0,0.0,0.0,0.0,0.0,0.0,0.0,0.0,0.0,0.0,0.0,0.0,0.0,0.0,0.0,0.0,0.0,0.0,0.0,0.0,0.0,0.0,0.0,0.0,0.0,0.0,0.0,0.0,0.0,0.0,0.0,0.0,0.0,0.0,0.0,0.0,0.0,0.0,0.0,0.0,0.0,0.0,0.0,0.0,0.0,0.0,0.0,0.0,0.0,0.0,0.0,0
0.4835637013436336,0.57379894413216,0.712327965960486,0.7663804565092546,0.7638433072602591,0.6487765707803248,0.31633972632900736,-0.13573872376966842,-0.5678203553839675,-0.484006069399483,-0.19863189155733835,0.043864638821841315,0.2435486229007944,0.3236471860907699,0.3331207465789301,0.3488691066540689,0.3988936489105139,0.3994300022468119,0.39244631161229376,0.4129234742218882,0.41900266863067054,0.4247050134514684,0.4021380287774233,0.3792891158517331,0.3701731640586701,0.37483266516814656,0.3374262554091305,0.33483045795068284,0.2972298465583877,0.3084828337021291,0.29877083284596834,0.28908197263687363,0.3004028878676485,0.2489400091553763,0.27442628380319456,0.2511538922073581,0.2629711601644155,0.25402014601364536,0.25226460025121034,0.28566700327254324,0.2494688130466563,0.2484675767392588,0.254739833068576,0.2473461289993399,0.26122774247224084,0.25448695826902873,0.276033012629817,0.2699951105940709,0.25733883346448755,0.2799841643213819,0.28904154195382586,0.2635610075676313,0.2733994147579761,0.28363354054914336,0.2802945467215135,0.2843384298097166,0.2678230307849157,0.2796425253544198,0.2569257407601365,0.2765051177191558,0.28249205121644505,0.2469375560489449,0.2536552439035868,0.2397672295073225,0.2262173663235697,0.1850515548888652,0.17912282224998985,0.14554875967692255,0.12622482159138695,0.10716372999618486,0.09533332752318154,0.09071567040120153,0.051380834686089234,0.0541477027899745,0.02215938736422396,0.011278491425108584,0.0075150013480580645,-0.003121152883955065,-0.013664327109793631,-0.010163330074405908,-0.02057717591800734,-0.03095240975811356,-0.027333621880527882,-0.03767396559846911,-0.03404199285595358,-0.016443678907827556,0.00813298439599397,0.018731066186311783,0.029319847850956288,0.018942264200475088,0.008552606952518957,-0.022806430392925396,-0.012269190086220369,0.03317964638925477,0.0017778043573228634,-0.001694388640321885,0.029749877867526812,0.02625981889070118,0.04371901120867192,0.02624689095156797,0.036711935589099916,0.033203732590666765,0.036678941125504114,0.04015305200662225,0.043626623236716434,0.01915900971565983,0.008661854054113979,0.0,0.0,0.0,0.0,0.0,0.0,0.0,0.0,0.0,0.0,0.0,0.0,0.0,0.0,0.0,0.0,0.0,0.0,0.0,0.0,0.0,0.0,0.0,0.0,0.0,0.0,0.0,0.0,0.0,0.0,0.0,0.0,0.0,0.0,0.0,0.0,0.0,0.0,0.0,0.0,0.0,0.0,0.0,0.0,0.0,0.0,0.0,0.0,0.0,0.0,0.0,0.0,0.0,0.0,0.0,0.0,0.0,0.0,0.0,0.0,0.0,0.0,0.0,0.0,0.0,0.0,0.0,0.0,0.0,0.0,0.0,0.0,0.0,0.0,0.0,0.0,0.0,0.0,0.0,0.0,0.0,0.0,0.0,0.0,0.0,0.0,0.0,0.0,0.0,0.0,0.0,0.0,0.0,0.0,0.0,0.0,0.0,0.0,0.0,0.0,0.0,0.0,0.0,0.0,0.0,0.0,0.0,0.0,0.0,0.0,0.0,0.0,0.0,0.0,0.0,0.0,0.0,0.0,0.0,0.0,0.0,0.0,0.0,0.0,0.0,0.0,0.0,0.0,0.0,0.0,0.0,0.0,0.0,0.0,0.0,0.0,0.0,0.0,0.0,0.0,0.0,0.0,0.0,0.0,0.0,0.0,0.0,0.0,0.0,0.0,0.0,0.0,0.0,0.0,0.0,0.0,0.0,0.0,0.0,0.0,0.0,0.0,0.0,0.0,0.0,0.0,0.0,0.0,0.0,0.0,0.0,0.0,0.0,0.0,0.0,0.0,0.0,0.0,0.0,0.0,0.0,0.0,0.0,0.0,0.0,0.0,0.0,0.0,0.0,0.0,0.0,0.0,0.0,0
0.7318780608105343,0.3942393917411661,-0.04305033585485429,-0.4554090683892793,-0.6395115993342371,-0.510098053036935,-0.2377497555052233,0.046369958146944085,0.2964209907865809,0.4600014248344327,0.5043926263957205,0.5084206677086403,0.5181011560658739,0.5466392136743824,0.5547446634635345,0.5753020697278705,0.5887005142668027,0.5556414365799645,0.5680551045939467,0.5800756475021527,0.5327111770295095,0.5244450308381411,0.5553340540871391,0.5335702293597717,0.4985745344985646,0.496326868091373,0.5006271612921391,0.4590265092345583,0.4503052758460485,0.4548177009743344,0.4332310071513323,0.3855796743993117,0.3906350797432234,0.4090580775730699,0.38182280331402535,0.3811331190304042,0.3610823829359286,0.3545011107364426,0.341725303954064,0.29652760300887976,0.3107875344310331,0.3254666043936936,0.3405790625006468,0.31676799944379713,0.3327833977563129,0.3230187070088833,0.3465358961882609,0.337725135854611,0.3228371042392879,0.3084360251585368,0.34045403982194017,0.3007820323470437,0.29440319686139266,0.2885058630563652,0.2896464201862137,0.2518871062040639,0.26052048276046896,0.2564829029479696,0.23320212602850396,0.2169125718318775,0.2272859055807892,0.19869205618088495,0.17704682224838228,0.14264912297445326,0.13485128968444646,0.08801952291447257,0.074312709470199,0.0609038785160554,0.04777363063530607,0.021779084698869817,0.0222698294813236,0.022979458897056403,-0.01548172168164301,0.01841301593917768,0.006536269840354969,-0.005199739050443287,0.00943241172367205,-0.0020784245629172165,-0.026627555833123564,-0.03142532677009654,-0.00992590682508738,-0.02775795460454475,-0.04556376821014612,-0.017421420141404517,-0.008951660479952616,-0.02671928690422165,-0.018233949316609318,-0.009741822444974265,-0.0012409944060841642,0.0203945493493783,0.04204458687929367,0.024342439882889488,0.019783460187129433,0.021808580538489605,0.01073545757319226,-0.013433595326013755,0.0017963903181438367,0.017059418823822975,0.012674251316659512,0.00832909520405345,0.03027368311862445,0.032580231486275785,0.02837510273278276,0.03734608497923963,0.020126527102938944,0.002965477215512209,0.005550294199479185,0.0016372019346379749,0.017475105321127168,0.0005738379153580066,0.023113329231267573,-0.00020462040183146215,-0.01032337709879053,-0.0006789963073347156,0.009047092859729777,0.005735114390722385,0.015634778617356727,0.025626235616915845,0.016027968696313198,0.03277421899604846,0.036498495762584064,0.03376526454662228,0.031138808406386637,0.03518324157377742,0.03933934539370005,0.0304861366983754,0.021748790009203225,0.03281391601337619,0.03087530788232524,0.048742480682665706,0.05360890913970878,0.05203735584522092,0.03746713815346965,0.06895319919670757,0.034948991263109117,0.04700163415505117,0.03949518082509032,0.07804522114714117,0.07078902120377982,0.08990317176338708,0.06977054912323312,0.10881329497663987,0.08892077848046155,0.08882948261937018,0.11509797121290485,0.0955453007754737,0.10890649005058718,0.11580748531867598,0.12936639709953215,0.14301599108609206,0.13706520894635355,0.1639997518295995,0.15819604082249195,0.16557668315303306,0.15988602050777964,0.2001682184440661,0.20767328256311898,0.2217588123616484,0.2292886601981396,0.2433719240229221,0.2574317895535948,0.2648902256481364,0.2657295026020546,0.273053743452681,0.29340415399335795,0.3070742203628043,0.31404072746839834,0.3142789248464158,0.3208856690224476,0.3141483021450779,0.3268452707063572,0.3261375644920601,0.3513620136228485,0.3434299885844151,0.35479810919248383,0.3788669807445473,0.3959122573545988,0.4583851733629692,0.5728038633733669,0.6866298726953456,0.7276371168297121,0.6957735526891506,0.5450523788254255,0.19667537194015536,-0.2641187016150243,-0.6011755211463801,-0.35522166240332664,-0.07741123331814095,0.1470081945846562,0.28528911261952,0.30468327705993337,0.3036727896633443,0.3282455199990039,0.33908716751802104,0.3428129106192397,0.3525978208621418,0.348807312759274,0.3839825123953191,0.35318467550296145,0.34832079579661623,0.3300643291377923,0.34438764153821305,0.3257144425478561,0.30689054872563865,0.28795220507588165,0.3017420651325449,0.2892391023178925,0.3029677874839617,0.0,0.0,0.0,0.0,0.0,0.0,0.0,0.0,0.0,0.0,0.0,0.0,0.0,0.0,0.0,0.0,0.0,0.0,0.0,0.0,0.0,0.0,0.0,0.0,0.0,0.0,0.0,0.0,0.0,0.0,0.0,0.0,0.0,0.0,0.0,0.0,0.0,0.0,0.0,0.0,0.0,0.0,0.0,0.0,0.0,0.0,0.0,0.0,0.0,0.0,0.0,0.0,0.0,0.0,0.0,0.0,0.0,0.0,0.0,0.0,0.0,0.0,0.0,0.0,0.0,0.0,0.0,0.0,0.0,0.0,0.0,0.0,0.0,0.0,0.0,0.0,0.0,0.0,0.0,0.0,0.0,0.0,0.0,0.0,0.0,0.0,0.0,0.0,0.0,0.0,0.0,0.0,0
0.7739393938149259,0.6120756735078274,-0.15210966268297885,-0.8551673841288245,-0.5226084250373294,-0.011456411106301505,0.3604253466594772,0.35811472821314805,0.3825619313057776,0.4476615509867383,0.4152494147311528,0.4305377955858564,0.4382983090700111,0.4247704693132339,0.410749975036459,0.4446771019745629,0.4160215421313816,0.3939543197561229,0.3923509772577044,0.3628800103242923,0.360883081137754,0.3587599348810355,0.36346688840453895,0.3474000886761295,0.3451589422783804,0.3567827427105598,0.354662356810935,0.31118686750405755,0.32315373830099864,0.3214786715807533,0.3269275317690655,0.3533529006817479,0.33857729811465803,0.33100828056430875,0.3237583099081411,0.3444965690650546,0.3379505195635309,0.3248743278315018,0.3467554961940173,0.3690514752221937,0.3572179817096637,0.3596489897915523,0.3556199353473501,0.34513948166131664,0.3351261891346056,0.33249689247096165,0.3303434003100387,0.3286675340236006,0.3136461128332642,0.3129243639224099,0.27811751886155706,0.2714260480645633,0.2790206039753949,0.2663354562580603,0.2195385051232642,0.20082474648672508,0.18253630075619448,0.13010260899911838,0.06424560133401741,0.05406828388237349,0.04426318763935845,0.03481597499130264,0.05335878787488735,0.044583491548049324,0.04994513750679853,0.08325185346339667,0.07537141480554856,0.04011128326056053,0.07421864629753132,0.08091358476511909,0.08782596231705113,0.0949385371728408,0.08841027798904505,0.08204637959582346,0.11729829563823428,0.11120691563113423,0.13286939736249334,0.14079553912054496,0.12114117571282515,0.12917819013489715,0.16488445794386633,0.17294380707330884,0.16715599320023394,0.14749655684947158,0.14158690363217336,0.16322435124356155,0.18473545814490455,0.16462261624257085,0.2134441485302294,0.20676059752500847,0.22748169502046264,0.22028263467571346,0.2542476266397071,0.2602262753167697,0.25200701647196183,0.2710236856052566,0.2757687555826756,0.2938500963175358,0.3390508484462317,0.42515268335467504,0.5313772010916725,0.6576789015923307,0.7141578500903085,0.6731159003739081,0.4999396602256067,0.12545399576551847,-0.7752507095977228,-0.5434339125691886,-0.036131199868883496,0.19378717753406685,0.28462192279176296,0.2917326675215485,0.40871112456259995,0.4006236846632693,0.4057651567111938,0.4034598164944215,0.4075882870580804,0.4043824732819261,0.3800722421042778,0.3830905155002405,0.36510486205169396,0.38145606313652536,0.37689627114315344,0.3791158337785497,0.36050981253574976,0.3556764502777727,0.33700711036942205,0.33909645474240163,0.3550674089934291,0.3365711519375128,0.3389322153012011,0.3276216701398409,0.3648723458797161,0.33321187820787607,0.3708980614628196,0.3673667161270482,0.3710203381739207,0.3818778602272079,0.40686803502556135,0.3907126289691806,0.41636487844953707,0.3939841858806477,0.4203431026995909,0.3848619539253435,0.4119559202248295,0.4117763262414576,0.41197091552076665,0.384891970994085,0.3927414935536041,0.35948605530021155,0.34732376895877515,0.3424225224415897,0.3378601422586766,0.30597771715772804,0.2536730226685868,0.20857733008222729,0.20523231754108187,0.16068014161920227,0.09563706097763827,0.09993528304245423,0.06296795577381116,0.01927290700347344,0.003387649723426281,0.0014678740451123358,-0.014154097291420515,-0.029675897586060544,-0.04511716593259806,-0.03284802134826307,-0.03435104888524456,-0.008165610434834924,-0.009591257570695828,-0.010986663534629194,-0.01235629126525728,-0.006791884751593902,-0.00811903978469977,-0.002516006060293837,0.010016387601539157,0.008742525751572795,-0.02016158192478555,-0.007579866855888633,-0.008804499018108168,-0.016921851351312956,-0.02501746036796421,-0.02617525500464518,-0.020388462755775657,-0.0076478244665503,0.025881206354943682,0.024917150578218958,0.02403017748219772,0.01632028046061415,0.015622358406032174,0.0219478781764674,0.0,0.0,0.0,0.0,0.0,0.0,0.0,0.0,0.0,0.0,0.0,0.0,0.0,0.0,0.0,0.0,0.0,0.0,0.0,0.0,0.0,0.0,0.0,0.0,0.0,0.0,0.0,0.0,0.0,0.0,0.0,0.0,0.0,0.0,0.0,0.0,0.0,0.0,0.0,0.0,0.0,0.0,0.0,0.0,0.0,0.0,0.0,0.0,0.0,0.0,0.0,0.0,0.0,0.0,0.0,0.0,0.0,0.0,0.0,0.0,0.0,0.0,0.0,0.0,0.0,0.0,0.0,0.0,0.0,0.0,0.0,0.0,0.0,0.0,0.0,0.0,0.0,0.0,0.0,0.0,0.0,0.0,0.0,0.0,0.0,0.0,0.0,0.0,0.0,0.0,0.0,0.0,0.0,0.0,0.0,0.0,0.0,0.0,0.0,0.0,0.0,0.0,0.0,0.0,0.0,0.0,0.0,0.0,0
0.7777181375536659,0.5085964739407298,0.0916792896480098,-0.32647471153904634,-0.6139722954254873,-0.5875616735395964,-0.33523543713148696,-0.04758543745062621,0.194815905575411,0.3920582542028739,0.5222327798174108,0.5267661655282778,0.5597251455945341,0.5551986525336836,0.5572604041928656,0.5366562864557144,0.5521194660681334,0.5670578537332793,0.5815391275420985,0.5369680855200752,0.5287292355345646,0.5055542886720092,0.5114948851339893,0.4952775645893261,0.4716188596056332,0.4772303431537737,0.4608311629460219,0.44446313651317854,0.4501657772302293,0.4486488369773077,0.4179523224026849,0.394774041686641,0.39381219645677135,0.40043299208236605,0.37067064248363535,0.3852099545652417,0.3634187587441011,0.32731803774569634,0.34292199078386165,0.3002630461536608,0.3166795910479549,0.3408608826128167,0.3801546393725577,0.3539168083827852,0.3501490646574674,0.3321987184771181,0.32940387975014584,0.3271059638092214,0.3326422557586892,0.3606809107700987,0.3452308592364537,0.36694934008668856,0.3525092485579325,0.3312367234989535,0.3104586244212041,0.3194976714435919,0.3216824820186843,0.2803400761106913,0.2761159548238011,0.27966663360645744,0.2469822361332817,0.2293740605070427,0.2194921251431345,0.1733227736015275,0.14950633033990576,0.1480222084258911,0.11018902861925953,0.0799797499270848,0.07936926362022521,0.04967449950352278,0.02753456329681654,0.0789183347355449,0.05715189356862694,0.028203587267010888,0.058041477542177,0.03665335075908751,0.022674331806874396,0.008746811934697696,0.024175597005179596,-0.011722134808480951,-0.0109816974795126,-0.03228740331882195,-0.03899994861473997,-0.0531370071284762,-0.06005001964100061,-0.052417884514630066,-0.04491131215088831,-0.03019851646119745,-0.008275950379349554,-0.0011347147711454823,-0.01610011309305147,-0.0018372962274366426,0.012332552886807204,-0.002911574146070131,0.0037668141826834173,0.01771193560814555,0.05359801141942002,0.016111590390568895,0.022581615619300083,-0.00030819587726083964,0.028108377547442696,0.012517452489993905,0.0262526337366457,0.032659879531025005,0.039080050435735314,0.06751885490803093,0.051991738840623136,-0.00016113349780887026,-0.0009422962300136547,0.02032564227655473,0.026987657575559897,0.004386140383526777,0.011188402448934728,-0.003925850365802501,0.010378110218055923,0.017445318270744727,0.017283283957068657,-0.004765580978807379,0.009966104761104048,0.032156108040692535,0.01781713469927545,0.04761432494504185,0.0628951235570469,0.049001770824866384,0.03527122614460363,0.03637519270945947,0.030322669371382782,0.03911750668850425,0.01877085323238964,0.013283729151361931,0.022662027157332586,0.024914056752494498,0.04204304771105025,0.059389577251797374,0.025631484393173608,0.021431411952166718,0.10545435779726972,0.08706002234109181,0.09090531939649538,0.10966162672979476,0.09200483399856177,0.08193285531354982,0.09411312237324518,0.09188511803268792,0.11191291055154856,0.11020254719664094,0.10875206604344413,0.13689145975172556,0.13596011005663128,0.12062177020625126,0.17153206402134274,0.15670334990010948,0.164122296491162,0.17178720497099784,0.20169058948677746,0.1878340380853454,0.18887072551001094,0.21212534815472286,0.2355916356717057,0.2445947626834672,0.2464562426454095,0.2778263884272183,0.26536669666200235,0.28971989238843704,0.3142072842593268,0.3168137435220625,0.34151512076083196,0.3589606265208629,0.3837927973539243,0.37932483582948295,0.3748605759262372,0.41436696619275415,0.4464865081134061,0.4198596313377344,0.4151096338291759,0.4248676470887198,0.4270977158751376,0.4290917829970625,0.3941446221924027,0.38087143450146543,0.42588793345037496,0.4631528498497434,0.4852828298467095,0.5068897206152352,0.5572479541091816,0.6509644166397579,0.7879781970843546,0.8729025567369633,0.8983368841648813,0.8495436978255981,0.6311234629249151,0.2723249920995559,-0.16094352964594838,-0.5221177173647615,-0.5912928405044882,-0.3904872520313827,-0.11764326642043338,0.10265895411255688,0.3364955689847256,0.4519645731987848,0.4931424136081834,0.5261007940345769,0.5069213686321885,0.5090032506036599,0.488422928992401,0.4819119093928354,0.4895367272996207,0.4893639918567942,0.5034528981069024,0.4585376215112172,0.4279999322070043,0.4045617460761554,0.402940355791974,0.4085210088309355,0.4066869379677371,0.3534893109839341,0.36629238536092495,0.37181350561092297,0.3774257463514813,0.3318402783564311,0.3524140140024293,0.373189566539135,0.3722028207282826,0.0,0.0,0.0,0.0,0.0,0.0,0.0,0.0,0.0,0.0,0.0,0.0,0.0,0.0,0.0,0.0,0.0,0.0,0.0,0.0,0.0,0.0,0.0,0.0,0.0,0.0,0.0,0.0,0.0,0.0,0.0,0.0,0.0,0.0,0.0,0.0,0.0,0.0,0.0,0.0,0.0,0.0,0.0,0.0,0.0,0.0,0.0,0.0,0.0,0.0,0.0,0.0,0.0,0.0,0.0,0.0,0.0,0.0,0.0,0.0,0.0,0.0,0.0,0.0,0.0,0.0,0.0,0.0,0.0,0.0,0.0,0.0,0.0,0.0,0.0,0.0,0.0,0
0.7457711431291939,0.6489674741949708,0.4266004667025746,0.09048496032465378,-0.3000411729920106,-0.5965308288320637,-0.573280005294457,0.0311158439079473,0.2602833664533222,0.3519188320118549,0.38331977602882333,0.3842568090788784,0.4142018534355815,0.4316339338759573,0.4366145237846702,0.43514358403627396,0.4332188924327026,0.41901411407929495,0.4104039762847185,0.4014985286488373,0.39828706007074943,0.3829942693186763,0.3853680290020053,0.3638665488440766,0.35417450530234396,0.36821217286328334,0.34661030722614306,0.336929444901358,0.3689064523691515,0.3594042439309129,0.35597809386605456,0.35271566849674285,0.3496434999142331,0.3408457109718793,0.3382266132842104,0.34180752291808303,0.3337861278286126,0.3082396982524161,0.3127096464314971,0.31750744983510765,0.3167056050225014,0.3221969579943577,0.322110188585097,0.3223943026230244,0.3349373410450609,0.33598185885926396,0.3136500277061024,0.3154687959123337,0.3117351499803177,0.29056643604710986,0.2816629611909239,0.27313906004088445,0.2709295958899854,0.23938354671901105,0.24978015773281745,0.2308219813891251,0.2240825887764754,0.18796535763968505,0.16998223020400227,0.1344751696340691,0.10519174577896052,0.0761756278141109,0.0592918959349009,0.0426426668203381,0.05591428030685895,0.01592059548595561,0.0058132703453536725,-0.010069029921366943,-0.0139218582509528,-0.011702393660540628,-0.015307138250291985,-0.0069282540951783106,-0.016281614368504515,-0.02555726878296971,0.0008782166807677835,0.0036103734296500704,0.006393767713352754,0.009220365091451122,-0.011680483483551772,-0.0028510795867204364,0.005998345618994196,0.0029797688018777663,0.01778965625539647,-0.0030445798596452213,-0.0001233487991153379,0.02654677282062153,0.0056714721866370455,-0.015230783056694503,0.0054178007180828575,0.014146133509881368,0.02283020048375193,-0.010119894861948598,0.016281332649535858,-0.004902268499569989,-0.002387561446953418,5.8725832271385426e-05,0.008373320479120245,-0.007150924616371329,-0.0049334505160698715,-0.002799475539586952,0.017070124628614926,-0.010674298979567657,0.0030743064656567533,0.010789157682639128,0.006527975635107096,-0.003770281339884058,0.0036552494335178156,-0.024662604766366367,-0.0055561847676205344,0.013450307038839671,0.008595778737885272,-0.014177700539356497,0.004537706295373221,-0.0006023756388418313,-0.01771395033719085,0.0007309093881735721,-0.004669808321670011,0.013613502891860968,0.014001208125763106,0.02026070666466205,0.0026935168511163475,0.008829449298410154,0.008969907577984583,0.020941416390500414,0.00910464465105508,-0.002773386836752431,0.0031336515478946657,-0.008813458038462412,0.008915090126277178,0.014740254149353055,-0.003213824139654304,0.026345962621382564,0.014315594299807891,0.02010706052211201,0.00808194878387917,-0.0039324430185837264,0.001891142601285624,-0.004144828564330216,0.0017279107570632864,0.007634147639324484,0.025461243154991275,0.019571354929395463,0.0018516785581206426,0.002011248758649975,0.031937154011398905,0.020347433506721264,0.014772879940368813,0.027100310313574943,0.05139453078449778,0.016373109754601312,0.03491337409900595,0.0238512620618556,0.03665738749026698,0.03769256008166975,0.06854579982081489,0.057933670698043276,0.041504015846747726,0.06678568005108369,0.06249438738395949,0.028633275904584036,0.0483742104340463,0.07419470811677062,0.04075010724745358,0.04903345361488485,0.06934338474703336,0.06603764734504085,0.06288009798870912,0.08957490872916105,0.0807756066640951,0.08400753854827495,0.10521112764152207,0.09686056622993884,0.0767766227991316,0.07466087285099159,0.07268934272782855,0.06491897678670419,0.057287647257083574,0.1032580670500145,0.10183587548979024,0.08272040012065299,0.10531368760525876,0.09832316649397796,0.13303123459814387,0.13220365662429753,0.13147779965441564,0.14866843277351674,0.148123856741595,0.15953873123162265,0.1650818100208207,0.17068363183098734,0.1941552012939872,0.1879595673683829,0.2114904301087815,0.19938699092122655,0.21698159826989588,0.2048520448332856,0.22238795157306776,0.23392758463775604,0.24539261785301406,0.2389409727683489,0.2264325722679701,0.24942937282901506,0.2663231595319418,0.26520769860813603,0.0,0.0,0.0,0.0,0.0,0.0,0.0,0.0,0.0,0.0,0.0,0.0,0.0,0.0,0.0,0.0,0.0,0.0,0.0,0.0,0.0,0.0,0.0,0.0,0.0,0.0,0.0,0.0,0.0,0.0,0.0,0.0,0.0,0.0,0.0,0.0,0.0,0.0,0.0,0.0,0.0,0.0,0.0,0.0,0.0,0.0,0.0,0.0,0.0,0.0,0.0,0.0,0.0,0.0,0.0,0.0,0.0,0.0,0.0,0.0,0.0,0.0,0.0,0.0,0.0,0.0,0.0,0.0,0.0,0.0,0.0,0.0,0.0,0.0,0.0,0.0,0.0,0.0,0.0,0.0,0.0,0.0,0.0,0.0,0.0,0.0,0.0,0.0,0.0,0.0,0.0,0.0,0.0,0.0,0.0,0.0,0
0.808917246997739,0.4942251214824106,0.0339038802760909,-0.406995034258752,-0.6152545049826029,-0.5358779529160226,-0.27206955258993,-0.016433423823121244,0.2379963722583908,0.4224981518094372,0.4958723806009586,0.4994874307070478,0.5091133693373578,0.5317094172694611,0.5398280752166198,0.5541850296414584,0.5610890933687618,0.5537271431976588,0.5596874249792749,0.5171045622356144,0.5017270780414096,0.4723267166572069,0.4977660721000447,0.4680036693665684,0.4518972520098722,0.4219705349718063,0.4264341576023795,0.4171649608060288,0.42172683721082216,0.3851115748261114,0.4036872208159008,0.3673948498015405,0.3657177300535637,0.36428226467738667,0.3631172026872388,0.3484878018870403,0.32041917429368355,0.3271005337814996,0.2997452988375727,0.29342028063718617,0.29438244263420243,0.2682447764826026,0.27006965561755936,0.26546725855695824,0.2682122577668555,0.2714354936785366,0.2613856307625058,0.25871415080926224,0.26342872398267325,0.2411315523783886,0.2812785491393059,0.2600185398662884,0.2392814860537556,0.2397110397064713,0.2406646470248136,0.2214985556539616,0.21661448911180092,0.2328897238254681,0.20839210415472756,0.19128166840260696,0.16778989881617948,0.1585514957316395,0.14979614603822394,0.12087190896819852,0.10617277396903987,0.07128377713375335,0.057478607585893626,0.044103083934695794,0.031145242094834963,0.025473732365059214,0.013314544619428176,-0.012225623737167714,-0.009874297576112469,-0.007166189329461704,-0.017873403572015962,-0.028244024492618813,-0.010762768507789174,-0.02048168764563106,0.011403216719627652,-0.025203818412723747,0.00731144332225628,0.01949808096900061,0.011355990708130093,0.003527475928338747,0.04417812283633769,0.023214297313127026,0.043848026233365305,0.05791285261138584,0.04476543981936136,0.05257051066012815,0.08132671981287475,0.08286661480778769,0.07783068553638099,0.10750151225557264,0.13059126727494075,0.1264540900949801,0.1363709813552832,0.14657563022905054,0.1501818789340686,0.14718367170946509,0.15133587168395835,0.1626309362689227,0.17417973129688108,0.15844980474719714,0.17047785249449018,0.1964914291694288,0.22271723701341897,0.22161932601173576,0.22070731175941,0.19932385745839407,0.2469038811659638,0.26709876203380584,0.280532837985576,0.287186606752642,0.3145625030001519,0.3075915066663083,0.3144155483691884,0.3281283415733945,0.34182202766578706,0.3417062724920258,0.35527404218458797,0.3893740896461104,0.3889258773135845,0.3882977744469581,0.4218562056767924,0.4207531306523861,0.4124700883349067,0.43136734881936106,0.4705181104533578,0.4610659006523277,0.4786494271304949,0.5163350734786679,0.5052593159450857,0.5554577564894283,0.6531084425839284,0.7568633048140649,0.8391326780220899,0.8516806080352524,0.7462669450174118,0.4333622713324304,0.01609681519524124,-0.4230438666890589,-0.7190042793055367,-0.43833617739171016,-0.1865290801019548,0.07088678099902372,0.30647138051369605,0.4652609990126567,0.4785287149106127,0.4839703273020557,0.4885433795475417,0.512964664954976,0.4953785153214532,0.4909008909121184,0.5064794308030912,0.4940126403700947,0.4742048415866245,0.4746387212624669,0.4609670810877665,0.4401253589560175,0.4740933671212499,0.4528278447233822,0.4383040329228137,0.396163220147823,0.4158995314973912,0.4012225689680973,0.3865757181492228,0.4064003585172044,0.3919234131774983,0.37070146182666497,0.3702891245441992,0.3563116538068524,0.349439129841695,0.32905484192057205,0.3364678462151135,0.35105803952730585,0.3384419665209189,0.3605661051624223,0.3830435526155551,0.39212810791200897,0.34654831526774155,0.35640912604700925,0.38043539108365343,0.35670767446740753,0.3471596663019169,0.3586765939565134,0.3086910953087927,0.307297392039175,0.306328959684273,0.3126644164896801,0.2850150047597432,0.26466042227063785,0.25847476722605306,0.2526883098290882,0.24041086280849905,0.2422743150494629,0.21698183928740916,0.18516291098162552,0.15368425088321824,0.14317332372772382,0.11921014663348292,0.10930153494765167,0.09966869856969704,0.07653230089141108,0.05363584655906375,0.05160329245691312,0.04289248299353586,0.020603509259524252,0.0,0.0,0.0,0.0,0.0,0.0,0.0,0.0,0.0,0.0,0.0,0.0,0.0,0.0,0.0,0.0,0.0,0.0,0.0,0.0,0.0,0.0,0.0,0.0,0.0,0.0,0.0,0.0,0.0,0.0,0.0,0.0,0.0,0.0,0.0,0.0,0.0,0.0,0.0,0.0,0.0,0.0,0.0,0.0,0.0,0.0,0.0,0.0,0.0,0.0,0.0,0.0,0.0,0.0,0.0,0.0,0.0,0.0,0.0,0.0,0.0,0.0,0.0,0.0,0.0,0.0,0.0,0.0,0.0,0.0,0.0,0.0,0.0,0.0,0.0,0.0,0.0,0.0,0.0,0.0,0.0,0.0,0.0,0.0,0.0,0.0,0.0,0.0,0.0,0.0,0.0,0.0,0
0.6063911315531766,0.28726737694959786,-0.1160565988621538,-0.5142375959889619,-0.7215897005679214,-0.586782320661971,-0.2955772233876369,-0.03368043154097988,0.21965515890293935,0.46453734691158005,0.5359327955887814,0.5853242507283115,0.6196942455706145,0.5978565424384322,0.6162385031731318,0.626766967444022,0.663935712521808,0.6521420234504747,0.625873223987327,0.6471367167775225,0.6196775724117674,0.6399010029829777,0.6390690846083835,0.6172490428951258,0.5813857430044153,0.5384209638522476,0.5021744123253958,0.4864631032058133,0.4706973659059283,0.4893317767185944,0.4736060349574453,0.4648507516691137,0.4080624812771602,0.4133754915392108,0.4257819723126608,0.4246762210749112,0.4100929110919793,0.3958262620477621,0.3887876082621083,0.4027671398230489,0.41026809348361737,0.3975533619601332,0.40593046582438985,0.3666115794894885,0.3553043806055467,0.3789063647698583,0.3892665718618728,0.3932788264251568,0.4322391811678811,0.44422919891169454,0.463659969875237,0.4630128490357201,0.4560518824674621,0.4152537917835799,0.3612588626342269,0.3147053044005972,0.2962295201695721,0.2576579905065837,0.2196240638243898,0.24404480964275174,0.22081532687379515,0.17744619219545055,0.12080437351053636,0.11968346558634352,0.11214059607793538,0.08439813851949587,0.08460541983766254,0.09210299597345388,0.09311183474028206,0.08073327833607229,0.06871070809805392,0.07078710169706455,0.05253924895395284,0.048351934748985546,0.05820550676872136,0.040795061543089435,0.009862083770426088,0.013552028671223572,0.003678613562658373,-0.00601699790280234,-0.008674495365252216,-0.018075501548462408,-0.020477475501173688,0.004744675800012988,0.009409641743742569,-0.01337890260776302,-0.02235148494404186,0.003120133342637661,-0.005784539442327806,-0.021554322001311042,-0.030439153304423157,-0.039329429359663125,-0.05511265445546607,-0.02274508248904397,-0.011032759846303508,0.0006712815630896738,0.005491718343684635,0.010314893542608028,0.008265452949409396,0.013110495477648615,0.03861707871362085,0.02974384569621728,0.034661769871325465,0.018971657171692625,0.04460582881411385,0.03587981316724515,-0.0003210656354893935,0.025458355934180343,0.03753323431793595,-0.019138896635842742,-0.006937313559152723,-0.015307026572068698,-0.023599028357994555,-0.02492452723179524,-0.01927332450013446,-0.027275358338066942,-0.01451205675887863,-0.008489770712247359,0.011452371793989823,0.00404853518477956,0.051887854814077504,0.04489606860736884,0.07942370203564461,0.06603851380325107,0.10797124268181883,0.08138474556715154,0.08262805628260478,0.11171811313490916,0.1617906063910214,0.18469565833037635,0.22173343597278175,0.2591565036638125,0.29009715198135594,0.28704387102230355,0.3188153889906841,0.3166123008813179,0.3079652962049776,0.292880141812961,0.2920035694285626,0.25717249737944137,0.2640774121662772,0.23702914663842445,0.23795391124802984,0.2324450427086098,0.2273796973610805,0.2089913646226664,0.2254399111075394,0.2354333047796435,0.2596059004988012,0.2635441967623697,0.20595255913871124,0.19691240326404266,0.16072157272548315,0.15929362453798898,0.1582096235157555,0.15745401250231852,0.1638912781925891,0.18438512001141574,0.225798417927256,0.21930394608854806,0.2543325523399716,0.2414122806196668,0.2768524454893139,0.2849402819618734,0.27941249448148303,0.30152770238884097,0.3443772836657249,0.3528852643589515,0.3545439674228309,0.3699631164858592,0.3784656530597389,0.4075385131370388,0.4227392262866285,0.4309082937817675,0.4388841031995836,0.4535028875757362,0.4403136761284121,0.4611949191542573,0.4748103418891476,0.4742255380918257,0.4869079019667879,0.5127991169928701,0.5449575972099047,0.5557966879636612,0.6209395333043131,0.7196748097056958,0.8175264191449935,0.8662529954263559,0.872655763917779,0.7471999301293839,0.4209888409909493,0.004023814819412775,-0.39369593501249306,-0.6484095454521243,-0.5881529080365621,-0.3023720415767905,-0.06623963264383209,0.13409542331393312,0.37441803770866,0.5378490742895923,0.5419116992132482,0.5449556108730179,0.5608302652144495,0.5896207236060511,0.5970050687675407,0.6174667843099458,0.6166780198240229,0.6153545167625479,0.0,0.0,0.0,0.0,0.0,0.0,0.0,0.0,0.0,0.0,0.0,0.0,0.0,0.0,0.0,0.0,0.0,0.0,0.0,0.0,0.0,0.0,0.0,0.0,0.0,0.0,0.0,0.0,0.0,0.0,0.0,0.0,0.0,0.0,0.0,0.0,0.0,0.0,0.0,0.0,0.0,0.0,0.0,0.0,0.0,0.0,0.0,0.0,0.0,0.0,0.0,0.0,0.0,0.0,0.0,0.0,0.0,0.0,0.0,0.0,0.0,0.0,0.0,0.0,0.0,0.0,0.0,0.0,0.0,0.0,0.0,0.0,0.0,0.0,0.0,0.0,0.0,0.0,0.0,0.0,0.0,0.0,0.0,0.0,0.0,0.0,0.0,0.0,0.0,0.0,0.0,0.0,0
0.9867300532728029,0.8492409707076332,0.5710589985499767,0.18702524410962895,-0.2610367900142175,-0.5915995246607818,-0.5951695798366696,-0.3346221463848711,-0.07534814098561471,0.14082132748527196,0.3977968187443831,0.4930929144416669,0.5664994858781099,0.5692021731115842,0.5571625424683889,0.5514130613420055,0.5590129101444223,0.5520922593003686,0.5656457394295367,0.5508422136776369,0.5356854733899777,0.5481765557007987,0.5464613134730686,0.5166238610245389,0.4726865827039559,0.505507036169055,0.4824123969441646,0.4732995799657545,0.4572548305112344,0.4482882802820664,0.4324667723679979,0.4168106601705466,0.42230863592614937,0.37913905022086586,0.3990946572917282,0.4053645499019752,0.3560620782635113,0.3699593292064721,0.3842100940564499,0.3918483190175146,0.3509797763213136,0.3454427894769275,0.3682656694974792,0.3775487472601922,0.338375762898333,0.3485483299048502,0.33123510528411704,0.321367012649104,0.33291756768408426,0.3519176769007057,0.329470329300826,0.32145551306377473,0.3278695643421119,0.32076620967327024,0.3071237891688131,0.2869337885248651,0.26018615781860505,0.2548104147958311,0.22189701984325744,0.20334341689260008,0.17817868513096202,0.1882981422878758,0.14986170468042054,0.13270385999155354,0.10187958782985236,0.07832520895971802,0.06900603357883177,0.05294597792126817,0.009168613190934169,0.028461255212094468,-0.01493159415015607,-0.009267055467723285,-0.038387847174001295,-0.004519292137963346,-0.026425834499204975,-0.02728447270163644,-0.049018954669528055,-0.021786426951996563,-0.03640014273844571,-0.02999577265112873,-0.016543285727033882,-0.03096555315791901,-0.003405115757541183,0.017249167453254888,0.010049763277183163,0.030886808699415555,0.00991587993727967,0.01001215987747842,-0.010727976938541592,0.010570552735723706,0.0459755937075118,0.06755493793129635,0.04039089689919237,0.055299954847652835,0.042437630617666484,0.03673792531630452,0.05916412669370445,0.053841582382082184,0.03474785003692478,0.05777172161215021,0.053067304803398274,0.04159667604477693,0.04432164643387007,0.06823331791610046,0.029514313231583,0.032948679732385154,0.05060055609558972,0.019607663332928644,0.030782982309943207,0.07016063708800163,0.03995159080087511,0.05192397331086309,0.06417020186572124,0.0836791881840719,0.040601766705233217,0.0676606204199056,0.09500596236263316,0.1226401731087624,0.11563890528187573,0.1508412076549372,0.16538053911857573,0.15925685961689576,0.1673955551132588,0.1758244611959949,0.17057057647565882,0.17957152394684206,0.18186731966052053,0.17745283356322195,0.16632202626487586,0.20434997578636724,0.2077059168506415,0.21829257294979268,0.21514437378681675,0.2401619128613592,0.2234806986009492,0.22096954914258,0.2326141605446282,0.251413873433334,0.24242586302657315,0.2405585533167588,0.2737339055825983,0.2650939195441759,0.2774842379398567,0.30389667219450384,0.3233511451430097,0.34280706247446724,0.32731070961590125,0.3676411684780524,0.3659741186395709,0.3781589143298544,0.4251168269857555,0.422988478483698,0.4206321262193895,0.4249924091398022,0.4430118630312776,0.4816308987181113,0.4709499555369885,0.4877573269423005,0.5040601928728039,0.5477452991557443,0.6047853678110602,0.7589438903136602,0.8634680649267295,0.9322620586349816,0.9093732152389008,0.7807557207350216,0.4694919589942873,0.08027692530318882,-0.3450639877710911,-0.6110302761894071,-0.5360591560025567,-0.2738218234358399,-0.02683530318547046,0.19799640948849734,0.4077423698485925,0.5256476361626111,0.5308372326616236,0.5141975646887667,0.5316861304790611,0.5205085973450668,0.5016909811813769,0.5102271965083781,0.5042708929632564,0.5257961760599008,0.4840548688543169,0.4908684323689523,0.4554836404045885,0.461776077029605,0.4469287866219809,0.4529012634451664,0.4168720083528218,0.4227075199644897,0.4075819502674717,0.3785198435553737,0.40541096147156463,0.0,0.0,0.0,0.0,0.0,0.0,0.0,0.0,0.0,0.0,0.0,0.0,0.0,0.0,0.0,0.0,0.0,0.0,0.0,0.0,0.0,0.0,0.0,0.0,0.0,0.0,0.0,0.0,0.0,0.0,0.0,0.0,0.0,0.0,0.0,0.0,0.0,0.0,0.0,0.0,0.0,0.0,0.0,0.0,0.0,0.0,0.0,0.0,0.0,0.0,0.0,0.0,0.0,0.0,0.0,0.0,0.0,0.0,0.0,0.0,0.0,0.0,0.0,0.0,0.0,0.0,0.0,0.0,0.0,0.0,0.0,0.0,0.0,0.0,0.0,0.0,0.0,0.0,0.0,0.0,0.0,0.0,0.0,0.0,0.0,0.0,0.0,0.0,0.0,0.0,0.0,0.0,0.0,0.0,0.0,0.0,0.0,0.0,0.0,0.0,0.0,0.0,0.0,0.0,0.0,0
0.8279336431545998,0.5454455334707476,0.105319545404948,-0.3360987706748552,-0.6011321063391314,-0.5760680777530776,-0.3391277554656132,-0.07513890685484037,0.18042891045310494,0.4134455616875528,0.545783155955339,0.5490870660072233,0.5229936436340693,0.5244719258727821,0.5607130039203168,0.5606869695298475,0.5315794879736799,0.5730133212796326,0.5428426807725255,0.5549063286223401,0.5310497508518279,0.5282201284610859,0.4824790407986775,0.4792114187277211,0.4758060727602477,0.4509817020105088,0.4332299574341239,0.4225971888657844,0.4049060568841848,0.4015309168475988,0.4125118149247014,0.4023329818640605,0.3710303936206921,0.38974563001575,0.3731816615501168,0.3995870257179325,0.3623285937243087,0.3467618007730531,0.3386896086815403,0.35235629167055954,0.3664506227473334,0.3383273284783124,0.31777920336719306,0.3332650656217164,0.3492452905756641,0.3230678256843861,0.3542941032388709,0.3504933782571549,0.3472268422426409,0.3231678418070035,0.3209848414056479,0.31934783567682845,0.3182574989939068,0.2892698627786475,0.27504698269636657,0.2400310909789153,0.2411029448135915,0.24981296259498295,0.23059959564984864,0.2332291848773904,0.2008054948822624,0.17598178586665947,0.15874574468667446,0.11353037052394785,0.11142929212796616,0.06709881642806145,0.058742208928512125,0.022347168577421687,-0.013658999197790588,-0.020849100705548396,-0.006348452414874813,-0.027055721001958702,-0.033207546743439724,-0.03903485360040438,-0.008990079945266207,-0.014183379135916253,-0.019062627176081454,-0.00940663730778466,0.0005645419641144162,-0.003368244234699487,-0.006981107388833003,0.032393207212727815,0.02231814797721093,0.012572232407900764,0.017380058651818582,0.022523115782405338,0.04222585218522728,0.048048034311643985,0.06843530990859127,0.08205775561110107,0.11024967519628354,0.11034810817452932,0.15346172765752716,0.14715113929501866,0.16963445870261828,0.19957840399677929,0.19431656046234733,0.22495370034182266,0.20615687012660094,0.21613950726098316,0.17667726423661745,0.22286755944075484,0.2267087504094537,0.2379671191685911,0.22107867556303634,0.2542504244517373,0.237919226472648,0.24317894828611186,0.2273500821066653,0.2544133275506733,0.25324377797510195,0.2735982010730586,0.2727921981284002,0.29346914107123423,0.2929418992334215,0.3067402516852687,0.35617098968137706,0.3629887090316243,0.3698291710937187,0.4122155607287185,0.4190077903552569,0.43283589616383744,0.4536632499873843,0.44589725171381744,0.4450506484458532,0.4653016731406355,0.4781617641834378,0.4764723181104822,0.517069194627111,0.5430136862274016,0.5329183078249821,0.5365004747960951,0.575031891713026,0.6057847266677445,0.6998004574424357,0.7859023018335586,0.9280144481442733,0.9767343085730916,0.9390914094145862,0.7510027777607411,0.3554915067995966,-0.11243250336086998,-0.4750965607515878,-0.6472571925060272,-0.5294042684781773,-0.2566213003411924,0.01472620897796548,0.26340160508485433,0.4610573984008827,0.5793447823394337,0.5828018834737934,0.5781791627154294,0.5868950283291358,0.5948111899183698,0.5806756610583426,0.5730088121400482,0.5932173486230703,0.570265210732572,0.5539963190097517,0.5586979349042313,0.5417684574592003,0.5459326308654295,0.5356941133872513,0.5253291644975762,0.4651145112208061,0.4830932927631358,0.4655404299526472,0.4338328976599457,0.42356686615969663,0.42056100569034427,0.4390749148684209,0.4293692355274883,0.41992079121068493,0.42498273550876303,0.3948092684305761,0.4218676961333934,0.4208543119005261,0.39179243831406,0.4129216707686728,0.4060428915285485,0.3996163415460873,0.4078787084530225,0.4095108740338565,0.39741320378575895,0.4000378234170525,0.4031703022514129,0.39259420942339934,0.354091098216059,0.3516589360255437,0.3852970658145721,0.36967393361392814,0.3545605284780535,0.0,0.0,0.0,0.0,0.0,0.0,0.0,0.0,0.0,0.0,0.0,0.0,0.0,0.0,0.0,0.0,0.0,0.0,0.0,0.0,0.0,0.0,0.0,0.0,0.0,0.0,0.0,0.0,0.0,0.0,0.0,0.0,0.0,0.0,0.0,0.0,0.0,0.0,0.0,0.0,0.0,0.0,0.0,0.0,0.0,0.0,0.0,0.0,0.0,0.0,0.0,0.0,0.0,0.0,0.0,0.0,0.0,0.0,0.0,0.0,0.0,0.0,0.0,0.0,0.0,0.0,0.0,0.0,0.0,0.0,0.0,0.0,0.0,0.0,0.0,0.0,0.0,0.0,0.0,0.0,0.0,0.0,0.0,0.0,0.0,0.0,0.0,0.0,0.0,0.0,0.0,0.0,0.0,0.0,0.0,0.0,0.0,0.0,0.0,0.0,0.0,0.0,0.0,0.0,0.0,0.0,0.0,0.0,0
0.7318780608105343,0.3942393917411661,-0.04305033585485429,-0.4554090683892793,-0.6395115993342371,-0.510098053036935,-0.2377497555052233,0.046369958146944085,0.2964209907865809,0.4600014248344327,0.5043926263957205,0.5084206677086403,0.5181011560658739,0.5466392136743824,0.5547446634635345,0.5753020697278705,0.5887005142668027,0.5556414365799645,0.5680551045939467,0.5800756475021527,0.5327111770295095,0.5244450308381411,0.5553340540871391,0.5335702293597717,0.4985745344985646,0.496326868091373,0.5006271612921391,0.4590265092345583,0.4503052758460485,0.4548177009743344,0.4332310071513323,0.3855796743993117,0.3906350797432234,0.4090580775730699,0.38182280331402535,0.3811331190304042,0.3610823829359286,0.3545011107364426,0.341725303954064,0.29652760300887976,0.3107875344310331,0.3254666043936936,0.3405790625006468,0.31676799944379713,0.3327833977563129,0.3230187070088833,0.3465358961882609,0.337725135854611,0.3228371042392879,0.3084360251585368,0.34045403982194017,0.3007820323470437,0.29440319686139266,0.2885058630563652,0.2896464201862137,0.2518871062040639,0.26052048276046896,0.2564829029479696,0.23320212602850396,0.2169125718318775,0.2272859055807892,0.19869205618088495,0.17704682224838228,0.14264912297445326,0.13485128968444646,0.08801952291447257,0.074312709470199,0.0609038785160554,0.04777363063530607,0.021779084698869817,0.0222698294813236,0.022979458897056403,-0.01548172168164301,0.01841301593917768,0.006536269840354969,-0.005199739050443287,0.00943241172367205,-0.0020784245629172165,-0.026627555833123564,-0.03142532677009654,-0.00992590682508738,-0.02775795460454475,-0.04556376821014612,-0.017421420141404517,-0.008951660479952616,-0.02671928690422165,-0.018233949316609318,-0.009741822444974265,-0.0012409944060841642,0.0203945493493783,0.04204458687929367,0.024342439882889488,0.019783460187129433,0.021808580538489605,0.01073545757319226,-0.013433595326013755,0.0017963903181438367,0.017059418823822975,0.012674251316659512,0.00832909520405345,0.03027368311862445,0.032580231486275785,0.02837510273278276,0.03734608497923963,0.020126527102938944,0.002965477215512209,0.005550294199479185,0.0016372019346379749,0.017475105321127168,0.0005738379153580066,0.023113329231267573,-0.00020462040183146215,-0.01032337709879053,-0.0006789963073347156,0.009047092859729777,0.005735114390722385,0.015634778617356727,0.025626235616915845,0.016027968696313198,0.03277421899604846,0.036498495762584064,0.03376526454662228,0.031138808406386637,0.03518324157377742,0.03933934539370005,0.0304861366983754,0.021748790009203225,0.03281391601337619,0.03087530788232524,0.048742480682665706,0.05360890913970878,0.05203735584522092,0.03746713815346965,0.06895319919670757,0.034948991263109117,0.04700163415505117,0.03949518082509032,0.07804522114714117,0.07078902120377982,0.08990317176338708,0.06977054912323312,0.10881329497663987,0.08892077848046155,0.08882948261937018,0.11509797121290485,0.0955453007754737,0.10890649005058718,0.11580748531867598,0.12936639709953215,0.14301599108609206,0.13706520894635355,0.1639997518295995,0.15819604082249195,0.16557668315303306,0.15988602050777964,0.2001682184440661,0.20767328256311898,0.2217588123616484,0.2292886601981396,0.2433719240229221,0.2574317895535948,0.2648902256481364,0.2657295026020546,0.273053743452681,0.29340415399335795,0.3070742203628043,0.31404072746839834,0.3142789248464158,0.3208856690224476,0.3141483021450779,0.3268452707063572,0.3261375644920601,0.3513620136228485,0.3434299885844151,0.35479810919248383,0.3788669807445473,0.3959122573545988,0.4583851733629692,0.5728038633733669,0.6866298726953456,0.7276371168297121,0.6957735526891506,0.5450523788254255,0.19667537194015536,-0.2641187016150243,-0.6011755211463801,-0.35522166240332664,-0.07741123331814095,0.1470081945846562,0.28528911261952,0.30468327705993337,0.3036727896633443,0.3282455199990039,0.33908716751802104,0.3428129106192397,0.3525978208621418,0.348807312759274,0.3839825123953191,0.35318467550296145,0.34832079579661623,0.3300643291377923,0.34438764153821305,0.3257144425478561,0.30689054872563865,0.28795220507588165,0.3017420651325449,0.2892391023178925,0.3029677874839617,0.0,0.0,0.0,0.0,0.0,0.0,0.0,0.0,0.0,0.0,0.0,0.0,0.0,0.0,0.0,0.0,0.0,0.0,0.0,0.0,0.0,0.0,0.0,0.0,0.0,0.0,0.0,0.0,0.0,0.0,0.0,0.0,0.0,0.0,0.0,0.0,0.0,0.0,0.0,0.0,0.0,0.0,0.0,0.0,0.0,0.0,0.0,0.0,0.0,0.0,0.0,0.0,0.0,0.0,0.0,0.0,0.0,0.0,0.0,0.0,0.0,0.0,0.0,0.0,0.0,0.0,0.0,0.0,0.0,0.0,0.0,0.0,0.0,0.0,0.0,0.0,0.0,0.0,0.0,0.0,0.0,0.0,0.0,0.0,0.0,0.0,0.0,0.0,0.0,0.0,0.0,0.0,0
0.8968355870834419,0.7175988289877238,0.35359848175080577,-0.07714249165096654,-0.4894108392160377,-0.5814535567224232,-0.4451664617069994,-0.19863648800465936,0.08602284153890108,0.2973473429654879,0.3960498767639401,0.4675120000194341,0.4593199290417573,0.4634124917031785,0.4733023903291747,0.4956231873757171,0.497636547207967,0.5122175420399125,0.4869381041486127,0.5005993766529444,0.4810835302623064,0.4875020046187423,0.4674168278065455,0.4668114193471323,0.47917415290596904,0.4520599479160896,0.42488356829043417,0.4173727518527735,0.4164451690266551,0.4090164033718669,0.4016847220117813,0.3551152268124186,0.361202783145718,0.35436235449204995,0.3280613956861574,0.3413814757157748,0.3549786943145119,0.3426306215015529,0.34372893836737445,0.3582940812704873,0.32729047055642263,0.34259727281926305,0.3254907146923513,0.3284770817521946,0.3253219689640099,0.3291588604864638,0.3071884936930432,0.31847220051360275,0.264591650620094,0.316152053779,0.28286992399234673,0.28285485853628384,0.2504905596360008,0.2579526757683999,0.23962224243157998,0.22830283430740786,0.2239888849841559,0.2004273321500195,0.18385670232058096,0.18739134268180865,0.1519672065749192,0.11694313933156182,0.10199246065792382,0.10054155115859027,0.07976992708993708,0.07247248796534872,0.045827848483810114,0.03919173554310723,0.04598852672644877,0.04651922646541296,0.05389255223132672,0.03528586872404955,0.01036897995249174,0.005373102092696152,0.0005982793004711528,-0.017093882537408896,0.004774105439198476,0.013695938465653788,-0.0034651805143508887,-0.0007918196685277907,0.002017896062795339,-0.0016109058448879545,0.00799324638034134,-0.008552319821830634,-0.011891253820232229,0.017648841697261882,0.007879253361219595,-0.021526580091329347,0.0015974494521894516,0.0050645460069776395,-0.03738097422367533,-0.027324637026157627,-0.01070336611678782,-0.0006435463889850082,-0.029955311705816542,-0.013340140056867246,-0.016413201396067795,-0.012926158013373537,-0.02256023311994216,0.007182052619320548,0.004130138428602921,0.020783610954882837,0.017779795843776033,0.0016870349981786177,-0.0012416527885631054,-0.010684377333612893,0.01929675546764475,0.009970471402619623,0.0007139945115198757,0.011219733192767787,0.03493373788890719,0.025932471364957483,0.010469696278489295,0.021360634221193,0.012681391278560241,0.03037020708358175,0.03506460610809824,0.0005251381658678603,-0.001063993305235272,-0.0025040050366505764,0.01589669609135793,0.021337232307193043,0.040070943724065285,0.05898153219016505,0.05182932200601124,0.08423658291513189,0.05778561060253432,0.10371388044698647,0.09079503504014602,0.09777303349151432,0.104967551988271,0.08613618925595183,0.06752872795414411,0.09507928585091828,0.0900514597376528,0.09837855434234896,0.09381594957446876,0.10261124222251396,0.13132679420580912,0.13403174561565614,0.13697205447062688,0.17295459722704132,0.15011538214789494,0.16687562202101372,0.17073924133835489,0.1945099819679592,0.19225166892394335,0.18364304063527895,0.1949234628690692,0.1998386744054025,0.19837979379295884,0.20366011757999875,0.18942241883695535,0.22127069268434388,0.24669939239400965,0.25913298505966936,0.2651178814710306,0.2777607853493523,0.2904823090370561,0.3163864418620668,0.3357677777583812,0.3617272717101693,0.3679946682838535,0.38735220077778576,0.3935259651486884,0.40617124076761496,0.4055718077969343,0.4310637129110995,0.43668032317133065,0.4420687362850477,0.4668738665580548,0.5044920635665686,0.5023862223421378,0.5261253101925694,0.5428519535474117,0.5459525025955677,0.5813033020379843,0.6357236694448071,0.7419611360450061,0.8671441684844401,0.9390279920244288,0.9575409707666896,0.8832372420941218,0.663542978491818,0.291811056433995,-0.15330831356582938,-0.5341120826811316,-0.5882124544625471,-0.4140582646190601,-0.16253517744829218,0.061441598462608826,0.2973272444908345,0.4599064514725318,0.5230167209759132,0.5261091410016981,0.5217553616599538,0.5165932823397074,0.5303813708461302,0.5566291576320768,0.5560355782611643,0.5549126711159867,0.5402001628223879,0.5250813598287615,0.4702441588108756,0.4741671915637042,0.42535590357418135,0.40259943879109983,0.3928225740330641,0.0,0.0,0.0,0.0,0.0,0.0,0.0,0.0,0.0,0.0,0.0,0.0,0.0,0.0,0.0,0.0,0.0,0.0,0.0,0.0,0.0,0.0,0.0,0.0,0.0,0.0,0.0,0.0,0.0,0.0,0.0,0.0,0.0,0.0,0.0,0.0,0.0,0.0,0.0,0.0,0.0,0.0,0.0,0.0,0.0,0.0,0.0,0.0,0.0,0.0,0.0,0.0,0.0,0.0,0.0,0.0,0.0,0.0,0.0,0.0,0.0,0.0,0.0,0.0,0.0,0.0,0.0,0.0,0.0,0.0,0.0,0.0,0.0,0.0,0.0,0.0,0.0,0.0,0.0,0.0,0.0,0.0,0.0,0.0,0.0,0.0,0.0,0.0,0.0,0.0,0.0,0.0,0
0.8012367511156347,0.6819139972773011,0.3833989879598228,-0.023098157273264853,-0.4129034249173409,-0.578171567909026,-0.459534254848533,-0.17578759782387532,0.035503033639978115,0.2397618984773287,0.4073627475543752,0.4552123219917988,0.4487314675855022,0.4652200453888944,0.4334595313090871,0.460448444939716,0.4571418318113337,0.4651866397225525,0.4668210741672413,0.4739842430038625,0.45108775470904,0.4457098870719998,0.4163169775498191,0.43424540258174815,0.3985507328949565,0.4043276747550268,0.4040934458444765,0.39788840748391596,0.3976321918458431,0.3855392133629258,0.3794657722642229,0.3735036584444926,0.3617427644696318,0.3620336980254783,0.33281880148846404,0.3275889376194647,0.3226049115110893,0.3238291186090512,0.32534105001538866,0.3271592233461057,0.3233598838523976,0.34366151494669284,0.3346119440081834,0.30810438236362864,0.3176148878969764,0.3512708757151205,0.33185107059537283,0.3128266454709512,0.3060825944028112,0.31756170165912306,0.2878581188399424,0.2823179685875426,0.2534136667219936,0.2546071936860146,0.2324276409819405,0.2284531576290716,0.19515104561512767,0.18003779521497426,0.1771631100122233,0.15681321076327706,0.1308579520258962,0.1289883412704628,0.08584440112466442,0.06675971378476668,0.059839038650770636,0.047246155664549865,0.03490712821101823,-0.0009554448534809301,0.028753128323364036,-0.006676259042534249,-0.024089613756803067,0.01808317200263096,0.018838998741746868,0.019750172380064983,0.0029824480465281016,0.027929875693476047,-0.00047029678750960195,0.0009384086325255543,-0.0035003985304367428,-0.001917948175990733,-0.0002670746445454782,-0.004500430071433178,0.003191941418338684,0.01091719494282755,0.0008418240008253045,-0.0032832128779423887,0.004471101648454901,0.01221215984849594,0.031809914273384504,-0.002094137160733777,0.005538777220791534,0.001231486546681735,0.032497768464264463,-0.0016647470255252573,-0.00027663998560949405,0.001006817502214299,-0.003766392065260651,-0.03242958254444546,0.004115911887545873,-0.00701011456104382,-0.02423110111301317,-0.005969821030277442,-0.005697076173080422,0.00034529230559115213,-0.017549826461038486,-0.011861151491947663,-0.0004128368277429976,-0.03667178365698971,-0.00776677548111958,0.0031355812524564578,-0.027724125464418,-0.011233055786196128,-0.01867316888348847,-0.01439373491455457,-0.028089352341752076,-0.018165504307921132,-0.008372107722571569,0.0013052288659295061,0.040584920557240806,0.03819439971238398,0.041673808958945686,0.02727535203781326,0.012835543937738074,0.03995334590894462,0.02547409617321175,0.01693713769587329,0.02029716645487344,0.06527137638070149,0.02117942710993784,0.024669706602408244,0.04011177279360964,0.04969699724918111,0.047497842295014574,0.0572897500698075,0.06126340560613711,0.04754985314738856,0.02804241325815247,0.0680999796897792,0.0489212905352427,0.04774605015304508,0.04676338774230166,0.045984130750552035,0.05135951846795556,0.056959268944900936,0.0449715521150677,0.051050064051816016,0.06332311069427833,0.06397809707170843,0.04114275725736498,0.06017289900828024,0.06167056551697399,0.06940653834528833,0.06556677108532896,0.08580268123253522,0.08853696487423199,0.08565770002036327,0.09499316765560724,0.0987273465187914,0.08498438604246343,0.0834724616393469,0.11201803248111857,0.12904068378156278,0.10484073198341834,0.11070882453849756,0.14070669112069376,0.1294890512641937,0.16616670811824652,0.1913336758978852,0.19310830326106931,0.21307379313340424,0.22152463498427805,0.2481607095096971,0.2692149788464674,0.3084443296043141,0.33019784572248473,0.322585651556812,0.33312267706948384,0.3261532000606129,0.32542628931251033,0.3368674458628115,0.34857860663902984,0.34866002423144965,0.36085408229467214,0.34949496458759355,0.3858466724707498,0.3688927357026601,0.3283089593187662,0.3234725321886226,0.3246493167436114,0.3139848493715705,0.3092669171711042,0.27481592638054425,0.2521791304778955,0.2710211175424137,0.3194206951407936,0.3616927330959079,0.41561631506317903,0.4276809683196623,0.4334838269542136,0.4032727843957044,0.4261064798450392,0.42470345767156603,0.4881182101798674,0.5509463190087197,0.0,0.0,0.0,0.0,0.0,0.0,0.0,0.0,0.0,0.0,0.0,0.0,0.0,0.0,0.0,0.0,0.0,0.0,0.0,0.0,0.0,0.0,0.0,0.0,0.0,0.0,0.0,0.0,0.0,0.0,0.0,0.0,0.0,0.0,0.0,0.0,0.0,0.0,0.0,0.0,0.0,0.0,0.0,0.0,0.0,0.0,0.0,0.0,0.0,0.0,0.0,0.0,0.0,0.0,0.0,0.0,0.0,0.0,0.0,0.0,0.0,0.0,0.0,0.0,0.0,0.0,0.0,0.0,0.0,0.0,0.0,0.0,0.0,0.0,0.0,0.0,0.0,0.0,0.0,0.0,0.0,0.0,0.0,0.0,0.0,0.0,0.0,0.0,0.0,0.0,0.0,0.0,0.0,0.0,0.0,0.0,0
0.7359006027440301,0.40471151532674826,-0.02296020247216103,-0.4592159282987063,-0.6475072298481035,-0.5145546892279855,-0.2656525880460712,-0.003391246856263204,0.2576543179476912,0.4515818729613264,0.4904903797175143,0.5284492265415618,0.5655427317693683,0.5871875602966518,0.5861300549024955,0.5844436448162784,0.5162087614528139,0.5281455763223942,0.5396640063837528,0.5728264062260807,0.5910323873423436,0.5503461914964517,0.5094841836487175,0.4904974490433749,0.4934370087126671,0.4743563976194464,0.4186367059296185,0.3776492024003196,0.37343304021705853,0.42802548431933296,0.4241443261379783,0.4351503624990389,0.4097496743575164,0.4506287844541086,0.4404969988704151,0.43070899927566997,0.3992922088838711,0.4342594813193832,0.4549740450139693,0.44678950747520396,0.4390522349225825,0.4317763372399653,0.42497372905003866,0.4186541660938027,0.4128252792436121,0.3781625837128944,0.35133208096189905,0.37633038723498136,0.37249976696667947,0.33983816450686233,0.3370017064827577,0.3419872587635046,0.3621200245978062,0.3460634525218782,0.2938067196509833,0.2713298231563395,0.2786187408023487,0.27166306012215163,0.243113503540306,0.22961446874821476,0.18715157630249646,0.15969936585171668,0.1252388909133417,0.13507546247825092,0.0938636534023845,0.08223749549295195,0.04884545049245961,0.03765814171725135,0.02665339788320058,0.030471387400593474,0.01975711183058137,0.00915045395952405,-0.05270135258499592,-0.07050100798718092,-0.04426877856405291,0.0039842501720521685,-0.0137413521304562,-0.016797407012861938,-0.027189508946335927,-0.0229266230662375,-0.01134515389267308,-0.007111833513582098,0.019102717354861232,-0.02069153593172132,-0.0018420612175918316,-0.005004517367777592,-0.0008468042961266537,0.02529864231861433,0.044104433661961484,0.018910548829194948,0.015711824751765958,0.0345104534351635,0.02398100914658317,0.006122949571195804,0.017600623683174953,0.014420788274679719,0.025915168104993228,0.05941789903838447,0.04893793139303957,0.04580400795003736,0.042684582024605684,0.03224787791193276,-0.007503104709751821,0.01875456215077975,0.0010343625630240716,0.012662326749272907,-0.00502062098643105,-0.0006860356963152889,0.01100245415316825,-0.013948737119138176,-0.002213160654275292,-0.005115637612669544,0.0066767826627813906,-0.00349501355846512,0.008367388176401584,-0.0163923440118591,0.032217044892128816,0.014883176877598384,0.019601186356309568,-0.012283978616346836,-0.014774872841499816,0.012134565484472112,0.0317892737929892,0.00020162324562003985,-0.01662858998707218,0.032633418063311034,-0.005986145635461715,0.02883650338933008,0.0637855391894667,0.025544991634211502,0.038776222784786304,0.08882286063399435,0.12436581130840375,0.10141804241730372,0.06398196690521771,0.04139447943240858,0.02632962676418343,0.07012129346964609,0.10678314291737856,0.07766099346652003,0.11474527508312507,0.13005086151755374,0.11624961436105745,0.10267527293570074,0.08933097292737976,0.14221188701884385,0.1366675957153475,0.1680221363734371,0.14828622308607467,0.10678981938792784,0.10952467536767027,0.1271594344035634,0.15235970904156426,0.1411279480453367,0.12279089435024153,0.11200957405785067,0.12344439931526448,0.13509269423659148,0.16894619929608912,0.15900591234025258,0.19325460402208924,0.1983591268305115,0.21097295093677504,0.2090885099403074,0.21469221615792666,0.25710194206092524,0.2703119138981997,0.2983026563642995,0.30439578102693804,0.3399014751048373,0.3388083142854264,0.3450907587041225,0.33672902408155303,0.3650266566547943,0.37129793506043857,0.3921778855631096,0.3983071275645376,0.4263168699502432,0.4615087908909393,0.4451874033908437,0.44330750805963176,0.4631616347937674,0.4607125577730045,0.4872433081302379,0.5133770518683068,0.5243995299675581,0.5349239389111761,0.5522283475876708,0.6569132062361005,0.7755935864162757,0.8935413198981701,0.9740268436927516,0.921656082328195,0.7730151909448937,0.4253681100593679,-0.01871492817113821,-0.4200032904448095,-0.6172670487505818,-0.5078964195409925,-0.2311956636007469,0.05158169165423367,0.2525291383663121,0.43772252830690267,0.489923810676121,0.5118679139721689,0.4889672275218061,0.5166191652675862,0.5362360787784158,0.5552202869005932,0.5516414049119256,0.5035662719887851,0.5063790586529072,0.5308088224452545,0.4962545498323262,0.4394326627888973,0.40438960761401777,0.4278371278463997,0.4584948779124257,0.4377478674558152,0.3949688808101885,0.3815260303609008,0.3827929032756856,0.3694761678980752,0.0,0.0,0.0,0.0,0.0,0.0,0.0,0.0,0.0,0.0,0.0,0.0,0.0,0.0,0.0,0.0,0.0,0.0,0.0,0.0,0.0,0.0,0.0,0.0,0.0,0.0,0.0,0.0,0.0,0.0,0.0,0.0,0.0,0.0,0.0,0.0,0.0,0.0,0.0,0.0,0.0,0.0,0.0,0.0,0.0,0.0,0.0,0.0,0.0,0.0,0.0,0.0,0.0,0.0,0.0,0.0,0.0,0.0,0.0,0.0,0.0,0.0,0.0,0.0,0.0,0.0,0.0,0.0,0.0,0.0,0.0,0.0,0.0,0.0,0.0,0.0,0.0,0
0.8279336431545998,0.5454455334707476,0.105319545404948,-0.3360987706748552,-0.6011321063391314,-0.5760680777530776,-0.3391277554656132,-0.07513890685484037,0.18042891045310494,0.4134455616875528,0.545783155955339,0.5490870660072233,0.5229936436340693,0.5244719258727821,0.5607130039203168,0.5606869695298475,0.5315794879736799,0.5730133212796326,0.5428426807725255,0.5549063286223401,0.5310497508518279,0.5282201284610859,0.4824790407986775,0.4792114187277211,0.4758060727602477,0.4509817020105088,0.4332299574341239,0.4225971888657844,0.4049060568841848,0.4015309168475988,0.4125118149247014,0.4023329818640605,0.3710303936206921,0.38974563001575,0.3731816615501168,0.3995870257179325,0.3623285937243087,0.3467618007730531,0.3386896086815403,0.35235629167055954,0.3664506227473334,0.3383273284783124,0.31777920336719306,0.3332650656217164,0.3492452905756641,0.3230678256843861,0.3542941032388709,0.3504933782571549,0.3472268422426409,0.3231678418070035,0.3209848414056479,0.31934783567682845,0.3182574989939068,0.2892698627786475,0.27504698269636657,0.2400310909789153,0.2411029448135915,0.24981296259498295,0.23059959564984864,0.2332291848773904,0.2008054948822624,0.17598178586665947,0.15874574468667446,0.11353037052394785,0.11142929212796616,0.06709881642806145,0.058742208928512125,0.022347168577421687,-0.013658999197790588,-0.020849100705548396,-0.006348452414874813,-0.027055721001958702,-0.033207546743439724,-0.03903485360040438,-0.008990079945266207,-0.014183379135916253,-0.019062627176081454,-0.00940663730778466,0.0005645419641144162,-0.003368244234699487,-0.006981107388833003,0.032393207212727815,0.02231814797721093,0.012572232407900764,0.017380058651818582,0.022523115782405338,0.04222585218522728,0.048048034311643985,0.06843530990859127,0.08205775561110107,0.11024967519628354,0.11034810817452932,0.15346172765752716,0.14715113929501866,0.16963445870261828,0.19957840399677929,0.19431656046234733,0.22495370034182266,0.20615687012660094,0.21613950726098316,0.17667726423661745,0.22286755944075484,0.2267087504094537,0.2379671191685911,0.22107867556303634,0.2542504244517373,0.237919226472648,0.24317894828611186,0.2273500821066653,0.2544133275506733,0.25324377797510195,0.2735982010730586,0.2727921981284002,0.29346914107123423,0.2929418992334215,0.3067402516852687,0.35617098968137706,0.3629887090316243,0.3698291710937187,0.4122155607287185,0.4190077903552569,0.43283589616383744,0.4536632499873843,0.44589725171381744,0.4450506484458532,0.4653016731406355,0.4781617641834378,0.4764723181104822,0.517069194627111,0.5430136862274016,0.5329183078249821,0.5365004747960951,0.575031891713026,0.6057847266677445,0.6998004574424357,0.7859023018335586,0.9280144481442733,0.9767343085730916,0.9390914094145862,0.7510027777607411,0.3554915067995966,-0.11243250336086998,-0.4750965607515878,-0.6472571925060272,-0.5294042684781773,-0.2566213003411924,0.01472620897796548,0.26340160508485433,0.4610573984008827,0.5793447823394337,0.5828018834737934,0.5781791627154294,0.5868950283291358,0.5948111899183698,0.5806756610583426,0.5730088121400482,0.5932173486230703,0.570265210732572,0.5539963190097517,0.5586979349042313,0.5417684574592003,0.5459326308654295,0.5356941133872513,0.5253291644975762,0.4651145112208061,0.4830932927631358,0.4655404299526472,0.4338328976599457,0.42356686615969663,0.42056100569034427,0.4390749148684209,0.4293692355274883,0.41992079121068493,0.42498273550876303,0.3948092684305761,0.4218676961333934,0.4208543119005261,0.39179243831406,0.4129216707686728,0.4060428915285485,0.3996163415460873,0.4078787084530225,0.4095108740338565,0.39741320378575895,0.4000378234170525,0.4031703022514129,0.39259420942339934,0.354091098216059,0.3516589360255437,0.3852970658145721,0.36967393361392814,0.3545605284780535,0.0,0.0,0.0,0.0,0.0,0.0,0.0,0.0,0.0,0.0,0.0,0.0,0.0,0.0,0.0,0.0,0.0,0.0,0.0,0.0,0.0,0.0,0.0,0.0,0.0,0.0,0.0,0.0,0.0,0.0,0.0,0.0,0.0,0.0,0.0,0.0,0.0,0.0,0.0,0.0,0.0,0.0,0.0,0.0,0.0,0.0,0.0,0.0,0.0,0.0,0.0,0.0,0.0,0.0,0.0,0.0,0.0,0.0,0.0,0.0,0.0,0.0,0.0,0.0,0.0,0.0,0.0,0.0,0.0,0.0,0.0,0.0,0.0,0.0,0.0,0.0,0.0,0.0,0.0,0.0,0.0,0.0,0.0,0.0,0.0,0.0,0.0,0.0,0.0,0.0,0.0,0.0,0.0,0.0,0.0,0.0,0.0,0.0,0.0,0.0,0.0,0.0,0.0,0.0,0.0,0.0,0.0,0.0,0
0.025873665124247838,0.06384835098260046,0.07270704763485339,0.0964550787256709,0.0911073372001883,0.10800080648946132,0.11048194732356904,0.14988674759284915,0.13823303643444165,0.16351802788033012,0.15975562725980738,0.1856115174614381,0.1824304930432629,0.15021646528192875,0.17696250046590864,0.19667829626383945,0.1800351935169767,0.17836111124236104,0.21365304589296835,0.2052520237578788,0.19715059801035514,0.21867528436949316,0.211161545637107,0.23326384079097706,0.21165047225471886,0.2709662272523982,0.2645521276658227,0.2583905028593663,0.2524698090635462,0.3054372553325594,0.3146236652370233,0.3386734582958123,0.33357440255113463,0.37263266223029495,0.3605051049570274,0.4071568919084335,0.3805786970342897,0.40539685439576095,0.4155906496378966,0.4404599141827884,0.4286448399320134,0.4461035060399652,0.4488042644814742,0.4953683150721799,0.4977645016659143,0.4926117864243458,0.4725316091044888,0.5181330135687161,0.5413750522897974,0.5422042542397253,0.5865569918884486,0.7183694098935725,0.8349246081872576,0.9508221844070032,1.0,0.9677187014816876,0.7952389017853589,0.43848138644484863,-0.03664945124515467,-0.4469313208445068,-0.6238034614092436,-0.50131773187826,-0.2334418977723449,-0.0034261218158540504,0.2328092837548952,0.4166892538268203,0.4969700648374432,0.5250609881363558,0.5230387878347287,0.5203101083358153,0.5536114844459538,0.5790192878536741,0.5599396277871076,0.5770958079303344,0.5352281979407133,0.529719427519194,0.5239643494792997,0.5326827072165854,0.5119315795286646,0.4984229433668815,0.4702061712484879,0.4786531995462616,0.4651460296467597,0.4370568200437598,0.4310854258889882,0.4106044610798277,0.4343069568478464,0.4142337794618223,0.4090737355962334,0.4041885047864177,0.4142677435871322,0.43200157081953694,0.44274552836904996,0.4391855037102592,0.4433351929782075,0.440543568395298,0.423489891104993,0.4435112643091069,0.4639526065957072,0.4408241133995157,0.4327887387505605,0.417849670991036,0.4180029681015879,0.4112475652323615,0.4342403522948553,0.4063160734103534,0.4154549302299359,0.41031748648085503,0.3908897677948816,0.3498232426193296,0.3530924809229164,0.342017708408734,0.3532399580787844,0.33540848568223697,0.3324933535297855,0.285807868531356,0.3126438094586884,0.3029838525364285,0.28612671711363524,0.2620395852320079,0.25268572509073234,0.2580295778999963,0.23403928785921585,0.2393367873782573,0.22255525471518384,0.14699168263817045,0.09326204069150584,0.04665899069975025,-0.0001927662257155325,-0.04000375107441567,-0.028821938537961632,-0.025346581309952168,-0.02961414922363091,-0.01966118739594418,-0.01751646118180767,-0.023209351332261787,-0.05876509132560745,-0.02888662019938132,0.015078593752070529,0.021785826463321563,0.0278803456402668,0.04800979326859657,0.03816162715607871,0.012983109837708446,0.0017863242343936735,0.004553265963396114,-0.030061617468813563,-0.05808132856077955,-0.07952104753953172,-0.06506041451778975,-0.06602907667602367,-0.053092938888057606,-0.03357416125055261,-0.014789860030975313,0.02527606043662343,0.0793110784667989,0.06667749002356174,0.06805231765006356,0.04679216094961797,0.0762408632193139,0.061094405063878164,0.08202852021230314,0.08773353617511967,0.05622939270835446,0.04619315246762,0.03564403539429861,0.02459854725508306,0.027738026790537527,-0.028246377415800637,-0.04068352114194647,-0.08287971108864195,-0.05948976029056351,-0.04380823694139142,0.0008635262477848022,0.0452358079751671,0.096681410606447,0.1552404047312523,0.1476273215619153,0.09587848887005967,0.08068954106689552,0.050770532424752136,0.03548867533552042,0.020215894756283933,0.04165147737991919,0.041172036058514314,0.07014155934213387,0.06993624596529853,0.1065845391041444,0.1214619371041663,0.1292684613584057,0.16670104274129133,0.13847086503850994,0.09593839047101932,0.09779589450247682,0.09274758894922393,0.10282225261837234,0.07672314460884698,0.05847558266962528,0.05544197294884031,0.060319418022664176,0.05113973206335553,0.0719269780193011,0.06404988478188928,0.09352941675703016,0.10906612854882304,0.1473501742785742,0.16441360116968118,0.2336078092470584,0.2889657701241541,0.286516804166444,0.32893889885103755,0.3135984523543467,0.35783538606901555,0.403007919066846,0.375807470048661,0.3935685881983194,0.3976438093337477,0.4027087574001748,0.3794420345416372,0.386510296522676,0.39458823473336985,0.3890136192063629,0.3991172806152722,0.0,0.0,0.0,0.0,0.0,0.0,0.0,0.0,0.0,0.0,0.0,0.0,0.0,0.0,0.0,0.0,0.0,0.0,0.0,0.0,0.0,0.0,0.0,0.0,0.0,0.0,0.0,0.0,0.0,0.0,0.0,0.0,0.0,0.0,0.0,0.0,0.0,0.0,0.0,0.0,0.0,0.0,0.0,0.0,0.0,0.0,0.0,0.0,0.0,0.0,0.0,0.0,0.0,0.0,0.0,0.0,0.0,0.0,0.0,0.0,0.0,0.0,0.0,0.0,0.0,0.0,0.0,0.0,0.0,0.0,0.0,0.0,0.0,0.0,0.0,0.0,0.0,0
0.9518128157766028,0.7432805794311378,0.3629310344664695,-0.06844635088113621,-0.4798392539023188,-0.6793459030816046,-0.5034619883868175,-0.2365966397705808,-0.006674404128318249,0.22906092559983546,0.4280370519048823,0.5263482473138831,0.5240834981465797,0.5422121053842572,0.5239317107630933,0.5617632375739358,0.5562344275152538,0.5714177291907347,0.5789429098415683,0.5788799258327161,0.5641850772614864,0.5420332929317674,0.5267074422751652,0.5253769230037165,0.5238762146329324,0.4867048851343952,0.4992428295013925,0.4833199934813798,0.4603144883511299,0.44449124723434336,0.4216698554698597,0.44166452991822425,0.4120721480286118,0.3969241330958494,0.3891422325229776,0.3816462090923714,0.3815754029814522,0.3889564845834912,0.3753711702023264,0.3692853237842094,0.37783064776022734,0.3939154750286387,0.3606709184627308,0.34921982931429896,0.3524648783963953,0.3704177519760298,0.3888668508896111,0.39359872388478795,0.3561764522687456,0.34771181109851435,0.3753179405709216,0.3465555805802741,0.3396418717056871,0.3190200368986989,0.3273499779856398,0.307739339949191,0.2815125081062943,0.2913246137365058,0.23761414949474846,0.24125175955911995,0.2240055765500409,0.20719318857259889,0.16235573283226626,0.146362449205828,0.13786338870725404,0.10839710898516336,0.0863875707960686,0.07892590825162335,0.03621673110079018,0.04356872397197839,0.015632113135430458,0.016382899632966342,-0.01819670161004313,-0.009909326520632705,-0.02277111340127676,-0.007025074318756065,-0.026684242933752263,-0.0035457544627941593,-0.03006248639384293,-0.02091794054057008,-0.01167570918321825,-0.030786635844574167,-0.021371316217796445,-0.03320884456220802,-0.023636384671730747,0.007347485181319202,-0.04691499111539983,0.012681140371843815,0.0012641666332875456,0.01128201182454682,0.028521170483834395,0.031657319186199295,-0.000634008099162007,0.04542703381933896,0.034743696005397985,0.024209564321366717,-0.0003895646199295453,0.03206112338376838,0.022018202268847344,0.03348560138748383,0.030916478257378026,0.02142839228685092,0.04769255606735537,0.05994017485802242,0.07239906943314448,0.07085371465372105,0.055309746491613715,0.061326254415633774,0.08179748202723244,0.06695279697796086,0.05946105812232045,0.08065850489151358,0.059441179221091975,0.08114147392238451,0.11020853819804516,0.11820187709646295,0.11934501394196352,0.12786088104948712,0.15086105245579934,0.19545646289326046,0.1763173925986081,0.19299294490698576,0.20281611050448115,0.16311891511245727,0.16633683988071246,0.2124646501741094,0.19483485637674175,0.17032642227085878,0.20292809901753225,0.2144125550836298,0.20476982137967487,0.2450964722844614,0.2571620657124791,0.248064072733112,0.2604524863709381,0.25164692069291644,0.26429482614082955,0.28415630249701906,0.3183224127290098,0.3454397528103956,0.3085995193371828,0.32866022053422994,0.355820544354287,0.3758313432145248,0.3744416904293919,0.3729525879221441,0.3855524038544799,0.41931688007205337,0.4315444997867673,0.4577500267102741,0.4410061666413675,0.4523770445845906,0.4491523956639791,0.4455057855431828,0.4342762494645581,0.4722974491194754,0.5168502130745933,0.5892098623872655,0.696427610757571,0.8313302027300667,0.8871902389677906,0.8354945405669177,0.6690577773317418,0.3095828260628068,-0.17190478911303228,-0.5621658609209589,-0.6052802818125622,-0.3297050006068296,-0.06960221127947458,0.18221376871786868,0.3618276186125916,0.462209198988079,0.4834373228427267,0.4611422998944592,0.4807273535463185,0.4995996935339642,0.5107179337218102,0.507038189975803,0.5170678323377434,0.4910933185743312,0.478949182856569,0.4451383652516107,0.4679335959303702,0.462057863650528,0.42756095613904105,0.4142656817052796,0.4079958568758921,0.4087947499553271,0.4167035892687488,0.3890969898489439,0.36867662184800776,0.35547764061445875,0.0,0.0,0.0,0.0,0.0,0.0,0.0,0.0,0.0,0.0,0.0,0.0,0.0,0.0,0.0,0.0,0.0,0.0,0.0,0.0,0.0,0.0,0.0,0.0,0.0,0.0,0.0,0.0,0.0,0.0,0.0,0.0,0.0,0.0,0.0,0.0,0.0,0.0,0.0,0.0,0.0,0.0,0.0,0.0,0.0,0.0,0.0,0.0,0.0,0.0,0.0,0.0,0.0,0.0,0.0,0.0,0.0,0.0,0.0,0.0,0.0,0.0,0.0,0.0,0.0,0.0,0.0,0.0,0.0,0.0,0.0,0.0,0.0,0.0,0.0,0.0,0.0,0.0,0.0,0.0,0.0,0.0,0.0,0.0,0.0,0.0,0.0,0.0,0.0,0.0,0.0,0.0,0.0,0.0,0.0,0.0,0.0,0.0,0.0,0.0,0.0,0.0,0.0,0.0,0.0,0.0,0.0,0.0,0
