0.6598556628869078,0.7481571508210568,0.8524404102676264,0.8846980998200346,0.8393652653935438,0.7658369624288482,0.647546729921198,0.4404420611730647,0.22688540768991164,0.045265472354151175,-0.08801594958521547,-0.16755017580973516,-0.18792016248574456,-0.2756075877511122,-0.2327861225342764,-0.1694040799320529,-0.12943033874049936,-0.10734969465374172,-0.07564887427735259,-0.08925105551980886,-0.0656611471067032,-0.06528310475477464,-0.022096450435145,0.0199966297441535,0.06106759525062533,0.1011878055686256,0.1129460983365672,0.14038456817454514,0.14509809544826638,0.17662395142608533,0.22953424886994936,0.2819108875172681,0.32832394933898673,0.3853278799579859,0.3815323905519091,0.4324243379131656,0.444623825711674,0.4456705481307112,0.4301233164248669,0.414524486702362,0.4319035943596151,0.3998627928371554,0.367916715295775,0.36908866567752185,0.3759392320233432,0.3720200435340442,0.3793559528254212,0.3705019626987146,0.3729756121913317,0.3483352682117492,0.3570734122190581,0.3442554746625533,0.337391750148365,0.3529979254020636,0.3086520207617934,0.31430580713182965,0.33150554301333035,0.33278880198160365,0.31817371659220817,0.3371447451710304,0.32375944584191857,0.3165061137352641,0.3098998787714839,0.3094471749436125,0.3151564434436973,0.30504880502153875,0.3121082376606509,0.2813741012750329,0.2952952777773235,0.2989081596698272,0.2757227660896115,0.2807013845536561,0.2753653878380268,0.2707027349262047,0.2447213481651732,0.2688673325153235,0.2441958269809197,0.2421503685789497,0.2407337372201833,0.2564226051746993,0.245231564726366,0.2456205755699225,0.2465803815279465,0.23160405501854486,0.21716209536747536,0.21422740057862774,0.18980023643267,0.19882289039875645,0.20829360811936976,0.17971319782094722,0.16252451908737575,0.17868731642858754,0.15122454230324392,0.15156222487643756,0.14119677015868765,0.13658825936531993,0.13221029452143698,0.12803223801243754,0.1405121210770272,0.11465357187201106,0.09439549542226452,0.0906975636752452,0.08703676009296799,0.05589672804644325,0.05220732524677738,0.0319621504927605,0.017111861165673797,-0.014364591576698853,-0.02402746581835545,-0.02840008802302512,-0.04949994534677718,-0.026895177413422216,-0.04855319049497663,-0.04853842337699545,-0.04885379511742634,-0.04951184041762387,-0.03952756626522007,-0.051882822435752034,-0.04810194066525132,-0.02268298363117645,-0.01409099073936744,-0.027810186702660736,-0.0033661379706551218,-0.0012035216602609045,0.01716928432339481,0.013293810187439256,0.0146688199116953,0.0213107944989692,0.022243255004781484,0.04496471904183146,0.04002338678424033,0.0623996563128029,0.07913063276589008,0.0902317690931499,0.09571812259106656,0.10659718600046474,0.13387597347155622,0.12260364654950565,0.12775756343147204,0.12186781977248495,0.12693186215409474,0.12647142470760106,0.10950405020658556,0.11451463878184436,0.10853378012321216,0.11905236766485372,0.11309987585450905,0.10167673029082444,0.09028634777147374,0.11191385321844467,0.10610438399490342,0.10034561072023936,0.09464245698395664,0.08899934464750557,0.09441310896323768,0.0614192638692572,0.06697104717476475,0.06160319365600014,0.06730386615467761,0.06208937308379825,0.05145790284499778,0.007928673583487766,0.03593528539319993,0.047535783168939465,0.02074535174820171,0.038011361019835,0.011391334796542672,0.02882879248520212,0.002381010885037418,0.0254877516038825,0.03219190859831681,-0.010485091804279737,-0.0036073449978358506,0.014350967167613412,0.02140533544458733,0.006564065433955211,0.0028069021226540475,0.01563134116932797,0.0230526476901448,0.0030860086445665285,-0.005792627953659113,-0.0035824326319796322,-0.0177642421261522,-0.004364789920123404,-0.0018557714187345234,0.006255965644146722,0.008981533324971848,-0.026653760806008217,-0.034688674657533315,-0.015116753650184191,-0.0009069075900074685,-0.00853728028667356,0.011471390225485793,-0.0013296890780962454,0.013532384056110538,0.0066017721702368816,0.021862106271575844,0.02634677813625624,0.025564173341027358,0.047008318935119975,0.0632086811309671,0.0906660375121516,0.09091641660291967,0.10244559981963322,0.11427092428223305,0.13189854478743998,0.13884827157098092,0.1461214718838243,0.1757117053387664,0.1616687081157547,0.20843108018559575,0.19508243781023835,0.2480453036679195,0.24090483315140485,0.26710267349066524,0.2771717415500854,0.30409026820457863,0.33686355205760565,0.3095309382453553,0.32651982993564177,0.3493485568001677,0.36701603241945097,0.3740158669328188,0.3813291653042152,0.3779493892118767,0.3913431967993649,0.4159966966537367,0.4299047107412855,0.4275493109496006,0.44188552275386894,0.4563982441683852,0.4490737204782364,0.4803425645011856,0.4952078343529383,0.5046275060554941,0.53604640949646,0.5289637586004228,0.565783612901342,0.5530212014634053,0.5785715533853072,0.5819229635167219,0.590503926675046,0.6042578115548927,0.6561036941408,0.6910145363027581,0.7858746586305205,0.8691609574981449,0.8858357298111758,0.8303249163847073,0.7685037917758947,0.656314612885449,0.4936673405078673,0.2529864373566155,0.066090753554658,-0.09459898145342882,-0.20169793566090566,-0.31025893968169105,-0.39836545660351297,-0.21322085624791867,0.0,0.0,0.0,0.0,0.0,0.0,0.0,0.0,0.0,0.0,0.0,0.0,0.0,0.0,0.0,0.0,0.0,0.0,0.0,0.0,0.0,0.0,0.0,0.0,0.0,0.0,0.0,0.0,0.0,0.0,0.0,0.0,0.0,0.0,0.0,0.0,0.0,0.0,0.0,0.0,0.0,0
0.01981923010667213,0.017719082822554102,-0.005315684323816878,0.029777186117091167,0.012316425884312126,0.016093981011999808,0.009488385563006628,0.024126103363782937,0.023114873045889696,0.0011863177271222785,0.01631995518441366,-0.005271390723356278,0.004933045288297782,0.004770511377349996,-0.005756428807783421,-0.00029189787395043367,-0.010456814281306572,-0.02043606108458172,-0.02495486298006662,0.0023461668395855784,-0.00704322945654913,-0.005678636002140839,0.02226102705918761,0.0398907038596474,0.03667856482360734,0.04425792107758562,0.06790856275798332,0.07074471855592726,0.06858695281431622,0.0983381462302904,0.117840823774347,0.15345569647921362,0.15248287338162006,0.17817638166790256,0.1883761357208589,0.2041691692748812,0.1939348989890972,0.19457039842974927,0.2113477663718336,0.2548087962578121,0.2775168820772709,0.31109415656769274,0.3186426871291883,0.3528643335218813,0.3873993495005811,0.3853448894595118,0.3941268511074875,0.4242745327926644,0.4230672519954399,0.4484662227321777,0.4635585283327261,0.4630530149125712,0.4838215509502264,0.4784030093477927,0.5100178618082466,0.49957616499413604,0.5261054510624569,0.5684880714196673,0.5687090743087597,0.5688933484020822,0.595350936268235,0.6269530283339493,0.6162145006739819,0.6526844501038709,0.6625181992634347,0.6930931603177889,0.7232647550880908,0.8109449527215749,0.9033580881330688,0.916100436395886,0.8490944361042354,0.8129419632587751,0.6916019450512629,0.5060665994695637,0.272054018972358,0.11596378359395812,-0.030820585121385493,-0.14204413009808622,-0.18090763126605355,-0.26344773242713554,-0.3053985254187841,-0.3067997548552085,-0.28874482256853723,-0.21959130921960154,-0.06766936471108824,0.01950902656710057,0.005122326723340054,0.031551595982464334,0.030351168179330125,-0.0089474378951414,0.02441249774167668,0.04617384685904472,0.09330471211128047,0.1237129524915888,0.1585539707031159,0.19262921328695246,0.19438599641704304,0.20606001839368468,0.25407400302881666,0.2910602985618653,0.3328979930957448,0.3585700467956653,0.39449376301199895,0.4670846522448839,0.4551775619808022,0.4589730401002348,0.4574440056483055,0.4822677579995232,0.4702472939581138,0.4583258818592263,0.4412790986458705,0.42442156467056413,0.4288776964487077,0.3967097755959987,0.3912032922871999,0.38604040531739947,0.3654426525041413,0.3926896542548213,0.388751180738191,0.3747377215444442,0.3875698250662468,0.38510615321577796,0.3673687702117605,0.3712724873783615,0.36521160144293535,0.359743892926068,0.3338013111735877,0.3295620170453608,0.3259544921611948,0.3282589079281049,0.310129800863894,0.2873854063474937,0.28638374414774864,0.2913160569508028,0.27583082048516233,0.2820937316520103,0.28375043044546555,0.2702571489493645,0.2574220380926843,0.2557812299991985,0.2705989021630317,0.2438899429386553,0.2178105705557433,0.2397864513137132,0.20439280439483087,0.20648901578853188,0.209166761533765,0.19659935530223466,0.19512440508750595,0.17310119317232325,0.1990307090871184,0.18329305127259996,0.16803401100239548,0.17958646052650046,0.1546810840940594,0.14600235345000304,0.14298595670033856,0.15614952201714033,0.14330328744811327,0.1360460555657723,0.10799856971215076,0.111840905790883,0.11065125188195878,0.09913124197759048,0.10887662944994096,0.08188132418416744,0.06028137455199292,0.03350574432393361,0.0278777684998431,0.038096609434101765,0.006154614897661708,0.005810630164892347,0.00013945182845840034,-0.02670148249429188,-0.03784806068868374,-0.03859897415487404,-0.04479065376617144,-0.030090523337671232,-0.031409761805863835,-0.04349134935185387,-0.03472194463208158,-0.04727341989721874,-0.028442333462942525,-0.04147543809812872,-0.028391431602426662,-0.02607708695912073,-0.002897802212531519,0.009535491682778546,0.0006948091412915532,0.012758792094617078,0.00357539868898156,0.015323203587988103,0.005850083266909003,0.0015225153379602387,0.028706948162941375,0.0241684746602793,0.03008539460283185,0.07809455188216627,0.06279528445695384,0.08961324059144943,0.06895905635351822,0.07463361284803838,0.0802947635148931,0.10176532878156996,0.09689038488769433,0.0920331769992094,0.06612045815500635,0.08767986905888736,0.09874269934535787,0.0835051404052466,0.05778689503263704,0.07430192113212057,0.05926786720680745,0.0601273631977495,0.08215740255099382,0.0568453328033515,0.03690344365216793,0.038149067931914485,0.034234013804175505,0.05678724139923995,0.04783619184653199,0.033738702650605745,0.030311037096138957,0.016474617138085925,0.02912805589025977,0.01029786874313338,-0.003117559202845441,0.0046974355855928535,0.028476142732008,0.004974485658737266,0.007985600913327312,-0.009922752776650879,0.009230493777540509,0.01274333451752302,0.011161727465952068,0.009760899409351969,0.02435735636452691,0.012790212829739326,0.017229141827807274,0.04821974731373308,0.026706199266014058,0.021211117109251047,0.015926306425711183,0.02666747185882753,0.0007315606675395499,0.0066407397209743676,0.012774489360743014,0.03494826439988513,0.009917442987114528,0.006203916516287482,-0.007813156075667795,0.010034698401013823,0.012315347555129336,0.014844619055486487,0.028167611474696156,0.041746679084439735,0.045044035318340815,0.08549902759067164,0.0735134225896048,0.10396192268922523,0.1083281695932886,0.11823796806565012,0.0,0.0,0.0,0.0,0.0,0.0,0.0,0.0,0.0,0.0,0.0,0.0,0.0,0.0,0.0,0.0,0.0,0.0,0.0,0.0,0.0,0.0,0.0,0.0,0.0,0.0,0.0,0.0,0.0,0.0,0.0,0.0,0.0,0.0,0.0,0.0,0.0,0.0,0
0.5330863524625037,0.6277018946390827,0.7372200283914013,0.7314545222750073,0.6936211869064817,0.6340619269893926,0.4850399127209422,0.29332553470932915,0.11609679388324574,-0.031109917536519132,-0.2941143383740346,-0.4075368489689397,-0.3454007057600454,-0.1597657155859412,-0.12647463589940122,-0.0893385723278401,-0.07953725476929334,-0.03455160627690886,-0.001160366825233417,0.02591118361406915,0.0727579463442989,0.12383455103260747,0.14798021027632915,0.1764937306203858,0.18862300110836144,0.2521003302356737,0.29412160386196057,0.3459818025457813,0.3921292763974181,0.4118056278581121,0.415480605282894,0.4396469867987992,0.4271051534493204,0.4403686965236754,0.4222336633046551,0.4091842189120837,0.4116773284973256,0.3933227514503923,0.3749833841349677,0.38272517406100703,0.3593319096610861,0.35168582094248385,0.3442071281325865,0.3317243285497326,0.3350892872767633,0.3439221042147048,0.3270211327780323,0.32084823765107234,0.2889933997720862,0.2939403332786915,0.3044809876609907,0.2842008249473913,0.28516908668184965,0.2709682914837096,0.2572297097271685,0.2647882747049942,0.2311973494009477,0.22933943461816156,0.2279955199724479,0.2323805727026467,0.2268883490298831,0.20632147879247595,0.2175316349872855,0.20847412156323328,0.21558845673155327,0.2128529032125276,0.21067977010435515,0.2090702667206619,0.18720447793610828,0.18151663863433656,0.18679990559636975,0.18743649249998068,0.18862775006352853,0.18516405630285268,0.1822448816150996,0.19547880609719145,0.198833356541413,0.1975051889061905,0.21230501826325332,0.1859673057579564,0.18094085949122246,0.17639327356698686,0.15669625514491647,0.16868084253865442,0.16028195314002347,0.15230390957703532,0.16034521530790727,0.13754339915096447,0.14634056115905786,0.1294627051873832,0.10250535202873176,0.10188344620248373,0.10155120658091464,0.08587237813912701,0.04962023361624757,0.05523284726988505,0.04022761901579187,0.01499192124588545,0.02114303177416013,-0.003802201745569478,0.01300342438609768,0.003871995556954496,-0.01039916594184085,-0.019422792699165317,-0.012810629383131277,0.004212371223369303,-0.0256277042530508,-0.03988938176697555,-0.007358859201256874,-0.0373540244682529,-0.025786338227521927,-0.019509227547129256,-0.0029134566726644905,-0.028053167353472783,-0.032471833839884584,-0.026580513971732903,-0.020787180764635937,0.0005278067147587247,-0.019884184458425103,0.001263689672676745,0.011929700301706644,-0.008697781135969545,-0.00856019421308617,-0.003263383093542159,-0.0032073609627577505,-0.00838179546470181,0.0020440214960631945,0.03328654100545781,0.01769195528889338,0.02814176965985058,0.043827081291517335,0.023118775608118872,0.0284878740990472,0.02871496297930028,0.03422062810473505,0.024195205196221488,0.06110914303194742,0.05128223661321487,0.051979490436441816,0.04239038618643269,0.0433442877307693,0.08608038250515967,0.05089212618304178,0.0887334675574316,0.085102195199252,0.07644116905291898,0.09919282355187282,0.1065189267632497,0.1088359461503828,0.1269698521020288,0.1349009109869556,0.1378388608848425,0.16701785417095735,0.16518605210577586,0.17398611830104746,0.177804695077946,0.18184762586716804,0.2017299005959924,0.20622044011331028,0.21613733421879666,0.2418876060898681,0.2470320383770122,0.2575904174130296,0.2839662410904429,0.310536630549544,0.3164722693393902,0.3329924659261728,0.3496748043345068,0.36130022138670603,0.3782629588111489,0.3849303630349632,0.4021030134906832,0.3829143340786549,0.4158261999449021,0.4383530566229463,0.4400574481155961,0.4625499042606627,0.4537484349282014,0.4500540391592327,0.4826604294925739,0.4994787840363874,0.5056730629570039,0.5116097467868617,0.5536778764932276,0.6110087396343193,0.6835509264190854,0.7660449542527485,0.7803576741454971,0.7108123200030915,0.6510335969035238,0.5176720520222104,0.3314753325671565,0.1548286394663353,0.0,0.0,0.0,0.0,0.0,0.0,0.0,0.0,0.0,0.0,0.0,0.0,0.0,0.0,0.0,0.0,0.0,0.0,0.0,0.0,0.0,0.0,0.0,0.0,0.0,0.0,0.0,0.0,0.0,0.0,0.0,0.0,0.0,0.0,0.0,0.0,0.0,0.0,0.0,0.0,0.0,0.0,0.0,0.0,0.0,0.0,0.0,0.0,0.0,0.0,0.0,0.0,0.0,0.0,0.0,0.0,0.0,0.0,0.0,0.0,0.0,0.0,0.0,0.0,0.0,0.0,0.0,0.0,0.0,0.0,0.0,0.0,0.0,0.0,0.0,0.0,0.0,0.0,0.0,0.0,0.0,0.0,0.0,0.0,0.0,0.0,0.0,0.0,0.0,0.0,0.0,0.0,0.0,0.0,0.0,0.0,0.0,0.0,0.0,0.0,0.0,0.0,0.0,0.0,0.0,0.0,0.0,0
0.7015927853700482,0.775122601874053,0.8583065944213077,0.9000683817086376,0.8748318247724807,0.813126258827054,0.7403757381529333,0.554477582036473,0.3369580517679513,0.13873519560263398,-0.00967825009254052,-0.11347659004823216,-0.22376137053199507,-0.23349524752529946,-0.2549586109836485,-0.2677860926765864,-0.2617899168546485,-0.2369586816385996,-0.19325611510710355,-0.023504391999208844,0.02753010483529304,0.05174307258197795,0.06451646915814109,0.10673652763830012,0.1529773704459046,0.1778125863217653,0.2170258804140456,0.2400882807392543,0.24707517083160044,0.2635652676564736,0.3049342392543754,0.3304464613197813,0.37587838649372657,0.42089484066525135,0.4655623974295322,0.4742391784859229,0.4826936725650284,0.5011874633289761,0.5093742803244276,0.5073089742587954,0.5052456625171252,0.4981332056160397,0.4707161242948147,0.4485437028228341,0.4520619651143429,0.4456047178453843,0.4292098548037952,0.3876103214302717,0.3973532390575433,0.397259308054771,0.3873581233191255,0.3472736663531684,0.34334339703563543,0.3500867169356228,0.3471222176797586,0.3446721811081887,0.3223517128028681,0.3005814491809827,0.30998222845018825,0.2842561571950707,0.2897273682265171,0.2907004375842872,0.2922857468674363,0.29959222417283143,0.2922228022960203,0.2752834499440146,0.24877776793529785,0.22801070099465465,0.2333868567325473,0.19349338076462608,0.18994345500776927,0.1717257177745081,0.15413964572882022,0.1422820433570605,0.16165257154542326,0.17143839170116418,0.14102767051771534,0.1418258529868918,0.16362317056988274,0.14520007785344188,0.15795978744591388,0.15088302336684434,0.13926150790556366,0.12308348861273415,0.12274014382954684,0.0923102484110282,0.10829372609989464,0.09416283585210823,0.1162146848414786,0.12342505361374345,0.11067730261186977,0.10345961580065903,0.10685599666033133,0.1157481178239934,0.11991621087025138,0.1244426489606738,0.0834001379306045,0.0987870578631373,0.06856510085999386,0.06922720219570412,0.0548441917308836,0.05089924803337623,0.04206802125393021,0.043631347694156115,0.030062599119421708,0.047247623981595176,0.023751264605656592,0.005458982892358591,0.002549774564511333,-0.0003019258225747532,-0.023522603236979217,-0.026327832669623658,-0.01894002220929276,-0.026881799124218862,-0.01446311008631962,-0.03780766993790305,-0.030616056937409326,-0.018401579555941718,-0.0317755445137114,-0.035035722312149915,-0.028183212197579424,-0.016316691797219462,-0.014733974882164866,-0.0285295115887556,-0.011787284580547128,-0.00530398138428413,0.001133898010494624,-0.007764176380103344,0.013922141084744145,0.02539851847582536,0.031778715223876534,0.022873643443490403,0.024200403777302947,0.04597326217618161,0.04739729584380413,0.02848460631367388,0.040256125877985764,0.05211813601363004,0.048779437240418784,0.06595763723265458,0.06285649814969776,0.059890333656927336,0.0825740499117484,0.08500955877665854,0.11311468118521285,0.09548595720927984,0.10864565780831673,0.1066938139235851,0.12024351488581345,0.12379734203697272,0.14286634324662986,0.15705278642698792,0.15105913193305087,0.1503943090520268,0.18566739854998116,0.19056950050560986,0.21611164247450865,0.24189120432153136,0.2322017650297684,0.27885836348921506,0.2798404201493926,0.2963549779525509,0.3130940790210832,0.3198491904770093,0.3217129342955055,0.3237763332057949,0.3515324284704973,0.3743626679508785,0.3769494621696132,0.35927607015958724,0.397837467824132,0.3956960043526476,0.40383833620819015,0.4120382600795888,0.4202693670130256,0.43360409463789934,0.4367091521387052,0.44995542810108463,0.46820709369233293,0.4761242567535709,0.4634655908649673,0.486299177054129,0.5088744570794012,0.4954384412032436,0.5173546375806884,0.5184614078116357,0.5242090351150697,0.5600452104029345,0.6208095628948975,0.7013389215845729,0.8015679181922778,0.8092077287043454,0.7292863770814106,0.6535432564122543,0.5410905372163283,0.3306334951987333,0.1343055309454639,-0.0020733961936835704,-0.2367202693772505,-0.36058658702591057,-0.3839403504389804,-0.36802437293517903,-0.11899965477407999,-0.08060558071446118,0.0,0.0,0.0,0.0,0.0,0.0,0.0,0.0,0.0,0.0,0.0,0.0,0.0,0.0,0.0,0.0,0.0,0.0,0.0,0.0,0.0,0.0,0.0,0.0,0.0,0.0,0.0,0.0,0.0,0.0,0.0,0.0,0.0,0.0,0.0,0.0,0.0,0.0,0.0,0.0,0.0,0.0,0.0,0.0,0.0,0.0,0.0,0.0,0.0,0.0,0.0,0.0,0.0,0.0,0.0,0.0,0.0,0.0,0.0,0.0,0.0,0.0,0.0,0.0,0.0,0.0,0.0,0.0,0.0,0.0,0.0,0.0,0.0,0.0,0.0,0.0,0.0,0.0,0.0,0.0,0.0,0.0,0.0,0.0,0.0,0.0,0.0,0.0,0.0,0.0,0.0,0.0,0.0,0.0,0.0,0.0,0
0.3525620724021656,0.26350831964170834,0.14186986678812213,0.058267279113467074,-0.01946581381639086,-0.0785270997408552,-0.09326413885240913,-0.1022584227420974,-0.13444637418681832,-0.11918054463010115,-0.0789507307458317,-0.058719894071718876,-0.04241417392666539,-0.0364386182552001,-0.04719424565532849,-0.029685499877891656,-0.016002010988038197,-0.015746101912865018,0.012874537790005046,0.03135197510133416,0.033298908365714155,0.04444857490438013,0.058413349807506273,0.0720174554960441,0.08850896147149966,0.14325627288461976,0.16241698683718034,0.1942066279483642,0.21938644770573024,0.2187167265636976,0.22434976122287686,0.2266798503427715,0.225736379555034,0.2279717402393692,0.22698891679897645,0.24208631036756845,0.23795600438219214,0.22104577630581693,0.2234987704106053,0.22927598213506006,0.20948901112922413,0.20912591085722312,0.20250815671778555,0.19928894379025636,0.19948424589224095,0.20310904039662628,0.19732902896046173,0.2014295934321137,0.1993623637046331,0.2007745191123185,0.1960398247357389,0.1819551809301711,0.1778009948673317,0.17073606820651355,0.1639786614702946,0.17038239022186738,0.1674672848209463,0.15844908030450966,0.1465426743731116,0.16387079864477155,0.15261750396188464,0.13847983072780135,0.13751784753739682,0.1400943739971774,0.1365715421244119,0.12373492261180273,0.12727802945720867,0.11507650565814168,0.12245881886865567,0.10766319159263137,0.10601690380750001,0.1078777231436087,0.10681495672043737,0.08997323312154641,0.09267769046049072,0.09243576465892596,0.08923891526561857,0.08307813965051161,0.07715605856262359,0.0746748773602748,0.07562434604784075,0.07999384125531023,0.09098443106459343,0.0732519487045719,0.07496558139692039,0.07041654990957713,0.06280432634544021,0.052115961151006425,0.05761060819305201,0.05036611715376929,0.036792814972480235,0.032936985478876565,0.0419964502439676,0.02219989212270909,0.01207752332910238,0.011614610193865657,0.007948080365493021,-0.0021489878596168965,-0.01226734720451179,-0.0031492679437851077,-0.006928968132475814,0.0020768856805654912,0.0013712415936827011,-0.018694684384601132,-0.0099524307762373,-0.023805916891368517,-0.021720168496961345,-0.032611410844567056,-0.024364483870344324,-0.029102520899458913,-0.02434115787902707,-0.013289822605894513,-0.01842804790881969,-0.001204782184027918,0.00947931579011749,0.007208188705123852,0.0080502188714826,-0.004046943177777113,0.003045356444057555,0.006850973331219547,0.01380237401402644,0.017483712473321644,0.027539421546337768,0.02149315091522636,0.018625317022505517,0.041428298418590664,0.044940919480622704,0.05486732806459161,0.04551833414345998,0.042597586531979946,0.058960228158625436,0.06570428450646333,0.06283611242028649,0.06321001851807281,0.06361964736897867,0.06085832749206783,0.0613552780291228,0.05226699638837727,0.04644622979088982,0.04389718582812941,0.038199700713112336,0.04862994776214071,0.049494935261886745,0.034373845791195165,0.0321783797644049,0.033275230842803365,0.024818862222127248,0.022872196884825804,0.027437685850777712,0.025669387484269744,0.02078157082941861,0.015988376583403532,0.008079702388245845,0.00990571381234322,0.005407909862714521,0.0010122270333725626,0.022416992220692,0.002170509624007976,0.010939963024724959,0.019818368568491028,0.022383174716702276,0.005787591691608124,0.011789900551666338,0.017906961944338568,0.008079716714887442,0.011217990204892165,0.01768673247352571,0.014638767916358238,0.008499249937208533,0.005693258746055884,0.006221692909326114,0.003661283379847449,0.020497356164850385,0.01497382749211098,0.0063638330020100225,0.010728363892138932,0.005583544657101567,0.03589890719637138,0.021373242119275663,0.03267243050224343,0.034463950624981365,0.04602030015712545,0.03522069127012852,0.04060963665428378,0.05255042929164987,0.058194089542450124,0.06075172288302075,0.06985828296655391,0.07587600224571613,0.08843918132367018,0.10112139355530836,0.12034404839422365,0.12361942352417415,0.13985230808710594,0.14334169037576533,0.15656690302613646,0.15382551836097302,0.17365571734155122,0.17750524203391005,0.1910623576985392,0.19825753761224396,0.2344134129184707,0.23848953626342165,0.24259430586213845,0.2627745796137219,0.27010702841461715,0.2709997745985419,0.2847078682586792,0.2919401696055162,0.302312741473066,0.30616776955258196,0.3195424845608253,0.3520484472284055,0.3843869944106422,0.4325904680307897,0.4773565227669594,0.4929565111976189,0.4761438861341848,0.4525782617683847,0.40294789754138893,0.2983025812821035,0.16750733840567947,0.0779705376981843,-0.0024744463742149194,-0.05138944644595845,-0.07203261666829562,-0.07408136834236745,-0.08969075668629402,-0.12210017302533616,-0.1552680706209582,-0.09926370302419386,-0.06650195645943552,-0.04732964330051705,-0.022451049514452936,-0.00789873006231472,-0.02933931577642508,-0.022500739047498785,-0.01625816266715557,-0.004151846546635103,0.03633984179653568,0.06349753779721465,0.07735859964852483,0.09723248549781102,0.10388343181559764,0.11662002379380362,0.1226296314706699,0.1476438766681412,0.15636444616061915,0.20021816699172235,0.21820864930502296,0.2264281719209031,0.2345437834691944,0.2201007047023505,0.22167230555329287,0.22001360312568569,0.2247871323245323,0.2167457018239532,0.20554962252527395,0.2040701911749631,0.205905259329465,0.1853792407523568,0.18426898072760825,0.17368486702264424,0.16006913137015644,0.16592348494676062,0.16556779497863774,0.16222972523741086,0.17198438995033544,0.16914918773856671,0.1601613530378284,0.16109348325886147,0.15589667926912265,0.0,0.0,0.0,0.0,0.0,0.0,0.0,0.0,0.0,0.0,0.0,0.0,0.0,0.0,0.0,0.0,0.0,0.0,0.0,0.0,0.0,0.0,0.0,0.0,0.0,0.0,0.0,0.0,0
0.8624761572867607,0.7816300333888221,0.5812466196730186,0.35283145129580096,0.1771104564116258,-0.005289310977949735,-0.1298096235813511,-0.23427040892696915,-0.2756540068622368,-0.3186875092346948,-0.3203048130722756,-0.3236231462406992,-0.18852539457721773,-0.07661132124926752,-0.030919071053946583,-0.00826590456167111,0.007592103046655163,0.022122961082166468,0.04079464089548193,0.11218180629799683,0.1555385079011549,0.22482699501856274,0.2392999796600915,0.27447121084962345,0.29269788303773736,0.2886659206256446,0.3055549379851707,0.3596013542362992,0.3916031553420536,0.4339584857942986,0.4382382763024046,0.4745549962411642,0.4459800618761062,0.4549514809223469,0.4476428700457067,0.4564391773057663,0.4328978567810383,0.43095273765865705,0.43987528002309945,0.4112163365040189,0.3989032176591773,0.4083660245046231,0.3803726589269431,0.3580676382871093,0.37381687731390334,0.3522174927089593,0.341796790931824,0.32642011274120697,0.33305789298744537,0.3078536786535954,0.2939396583533088,0.323669780662948,0.2946877648493889,0.2878396249018289,0.286979594450581,0.3029022198500723,0.2871287583278321,0.2935576099047981,0.2952604831913998,0.3030260717011516,0.2899231399540171,0.2829024411840796,0.28735987747193137,0.3140782867704067,0.2876254640817879,0.2726647440125661,0.2691978184285381,0.2664483151028854,0.2536385158196972,0.2684845235815174,0.26787591743159384,0.2787494889883777,0.24721543472401594,0.2487029665899573,0.2400963520026253,0.24293881947698426,0.2518306451239992,0.2344291384382985,0.23921560552800206,0.24462162535771625,0.22907758081402,0.2302844859042913,0.21589365425018284,0.2128271022798437,0.22106401503091289,0.1920873599454876,0.1851460068345452,0.1894393100744421,0.1887773479270524,0.19391100337993888,0.1832601132272374,0.16757364701475372,0.15221130760327953,0.14792031036981926,0.12772865694370478,0.11854711319719415,0.09879065289923046,0.11153386169656428,0.0759187724403825,0.06196067107710155,0.058849208192558615,0.044997023800339896,0.058088317896916125,0.05498180972692217,0.03564273116898577,0.010812739961581514,0.007398366782871448,-0.012354116366055731,-0.016149919478123814,-0.047129984287471005,-0.04066671059692895,-0.04528337893422555,-0.06639260341399973,-0.06629589315430898,-0.045006902667021016,-0.04025144104528841,-0.01970248672868882,-0.03724280042106545,-0.0120445114788272,-0.0195383723413289,-0.021998633145931083,-0.030192841344652013,-0.02255635221267408,-0.009851755011939016,-0.002839496150927981,0.030827716954186363,0.037283840488201235,0.03809958187959787,0.033292060599863504,0.044431607160367134,0.04459323215214416,0.03918182631488088,0.055155458959893655,0.04942344849154582,0.07588514445696624,0.09683769275042868,0.11229631253161892,0.11688738838731133,0.11601344419161325,0.13662982091948114,0.11947767332748582,0.1292295318653925,0.10123692036785267,0.1163361769019486,0.13143107450786146,0.1088131549293356,0.10776360967480296,0.09596112965130843,0.10035572117677392,0.12634350922568208,0.06616475892050598,0.09225332365745742,0.07529510447987713,0.06917945423571235,0.05774679429956665,0.07333235360880225,0.05128076544674957,0.05086835527727025,0.07209933793147262,0.055705819669763165,0.0501865539448142,0.05554486222016941,0.023288661566572805,0.03963435094165162,0.045312752479635066,0.03493799398747557,0.04623077978394511,0.0037562814244422866,0.02606005315058705,0.021541965429128042,0.017145466884399663,0.0074837961242221265,0.01950020833576806,0.01547771667385606,0.011582740636740722,-0.002960129588145504,0.009568791732956376,0.02761761731719097,0.018857711268848405,0.031785555370849095,0.012518879813048792,0.014942263546482275,0.012114967161068272,0.004037928457646488,-0.0038996249533312494,-0.006308485651055655,-0.008575776519242134,0.010853730786769895,-0.007289176456306717,-0.01989510793590471,-0.016184083174380155,-0.02309268434996956,-0.013672452308529816,0.001308813217961092,-0.005080439772849205,0.02105348593933733,0.036614463296536975,0.036224712664470825,0.04144802325878273,0.04690625124931417,0.05799774633468599,0.0639555725289189,0.07556590539509304,0.10900295110287332,0.10500363261012842,0.11207133554892723,0.12482541668869783,0.13788467244219002,0.15125562547951818,0.16494410904743406,0.15740179857677075,0.1986815013134282,0.21873812749867105,0.22296249934852616,0.2598511484639651,0.2809091847134022,0.3076889737073307,0.31863467343473784,0.3191306553619813,0.34688980008873777,0.3641864871791383,0.3440700625172088,0.36196670835904704,0.3747571781525867,0.4039806201255931,0.3903490529532238,0.4092812350187296,0.4122619141177974,0.4585407993288948,0.4672684284252758,0.4707484045496017,0.4797285929645998,0.4995661548065274,0.5032857502619893,0.5393464470690851,0.5538261392326551,0.5520718782542295,0.5663696984268808,0.5481776179175734,0.5621061811181827,0.5973262861502255,0.6160642686820743,0.6883104854396263,0.8032269570607182,0.8745353572484907,0.8375067451090893,0.7998350193742024,0.7237244308617028,0.5713752312143651,0.40197436037287015,0.2046573464039209,0.054771313653582634,-0.05316289258552796,-0.1192363504929153,-0.13814673738883967,-0.2662309146736977,-0.2987931440498321,-0.2466464106606023,-0.15290541660737,-0.13609833796475246,-0.09381645903043027,-0.06912359514006698,-0.08352124752792697,-0.06690239415112383,-0.03536568459941914,0.00577328803376546,0.06197899116394012,0.09560906026459376,0.12829267514318396,0.13316338410183798,0.17495605051491864,0.19447281309756864,0.22950524270473824,0.3124555874428649,0.3571812394343203,0.4014700873658381,0.4346130805579244,0.489005964056231,0.5108287036898413,0.5163073752558399,0.5162771500233448,0.5107939169557021,0.5052993340149554,0.0,0.0,0.0,0.0,0.0,0.0,0.0,0.0,0.0,0.0,0.0,0.0,0.0,0.0,0.0,0.0,0.0,0
0.4777036985866955,0.5431212975266706,0.6588719268832095,0.7175463650687796,0.7360367932186437,0.680379883202518,0.6126622562698483,0.4650122211844868,0.2882095069776884,0.09913023659712,-0.05144962703460513,-0.18620739219476606,-0.23741206338612414,-0.2785702930028533,-0.3492648982706237,-0.18394070303494064,-0.1046315553656455,-0.054789524214752514,-0.017408233062743347,0.02452389961470048,0.008917120071582933,-0.00766396447890627,0.02569499508707539,0.052555019398806115,0.1125306301742848,0.1491824567927165,0.1682229145213709,0.19796452673022025,0.2441181216596773,0.2558914026900521,0.2785444821747424,0.3290851254913979,0.3793179972652828,0.417996757207274,0.4621242359569964,0.4947998931478073,0.5160715183031243,0.5090337864356581,0.5132809272379961,0.4893016361813366,0.4766850313846974,0.4472152224139532,0.4404764974547835,0.41129770606055305,0.4049089114620889,0.3817849178454856,0.36455085339349547,0.3362784428380534,0.3252392961868021,0.32580206103268883,0.2871320507422049,0.2770474332502204,0.2673113112676548,0.2579364697869956,0.23198371673293325,0.2120640648740371,0.209486940052799,0.19600921326515847,0.16598756208734208,0.1759300325907251,0.16933957083393555,0.1518705917666537,0.12917666364070568,0.1182110223624522,0.11897561744369542,0.13147180734112573,0.12744928811461192,0.11255837948746726,0.11504961795155172,0.11232105567310637,0.1269718776002571,0.1137981450308895,0.10669827345595692,0.1000186148494595,0.11070584170901754,0.1105044184092022,0.08245868280286968,0.08306519576949316,0.08406690333892906,0.06285654971880174,0.06462902082718094,0.06677632625442569,0.052340365949537664,0.049564414009862175,0.041489774800940016,0.04505878588872304,0.04896250987155483,0.047541997557596416,0.05208869545370005,0.0569431718454895,0.028194667056377107,0.016685339250118628,0.033705711090906657,0.03404408677876907,0.012040096511406258,0.03548597581479384,0.042218989428247235,0.0378787867061651,0.028104805907998763,0.035486936410506736,0.03741321903644326,0.005621303670133772,0.00790228269350479,-0.006607263196719333,0.001632623244721783,-0.006940462099363586,0.0015638440394256466,-0.012416211275319064,-0.009339399746770298,-0.0005152350717512744,-0.019853197719096792,-0.010859303150360294,-0.007441096833261286,-0.009603811579238787,-0.02300218679927952,-0.01938876851978909,0.0012350149218385582,-0.011982344412502741,0.014412336446436894,0.0069678276932084535,0.005237097535617627,0.02617222532734419,0.024572915695364912,0.017391090946745232,0.01592833702022527,-0.0024151281233906878,0.02451403639121929,0.0006634227716370756,0.005137119271414908,-0.012915699759186373,0.008658384419434693,-0.009241320055314523,-0.004460210744277558,-0.005246223342842178,0.011005051707346242,0.010396387318391412,0.021182849918353813,0.03206795942712928,0.00915427583537673,0.014597828357654146,0.008850757369697185,0.014517478799314887,-0.002299770716939085,0.009254375426297654,0.009632086252656021,0.015787619551358215,0.0051236904249671094,0.01154507007541637,0.0011539420412251939,-0.009095646330716078,0.009050773544266423,-0.006554881722701492,0.006243956308068639,0.0192010627300795,0.0040701814170523475,0.023008376297344105,0.019518207369721013,-0.006395745371463914,0.03567441653705508,0.02707929951572064,0.03562637723653867,0.061320425930055385,0.03071326814622159,0.062463678960251276,0.054871953234890594,0.0813946921306431,0.07988309835832175,0.07294117021148135,0.0831725065681849,0.07102799305942856,0.08736151551362557,0.10392361556676746,0.10941503855850866,0.12078707772916016,0.12673941172510553,0.1272715422648335,0.1506334048885081,0.14597130972612626,0.1697848703118499,0.17686912725584902,0.18982083428890406,0.1916843662699308,0.2220052839911423,0.21862434675547684,0.2380356874181365,0.2350285026451465,0.28304528250277805,0.3142720043211178,0.3399962192562958,0.34325283958568564,0.3635772126430333,0.3896510479641647,0.3706027426726141,0.4024642967340938,0.4061092384844503,0.4323639945242239,0.4359993313440653,0.43958641565961465,0.4826448747010951,0.4577865866692335,0.4723291296827634,0.4697316013188263,0.5290558615988392,0.5542048032700599,0.6016344384016032,0.643044805482364,0.6896844293552724,0.8093007546766997,0.8944811590647174,0.9112617491823326,0.8765260808204781,0.7958527264538471,0.6465648084079939,0.4229321102560809,0.1983241717996838,0.03480799117233346,-0.09030362766950197,-0.1488461332755886,-0.1578481033810383,-0.17952568336827635,-0.2026272475011976,-0.2384849691187636,-0.24190963693395445,-0.15638895658019047,-0.10054427089153513,-0.07432758217249318,-0.03247963299185905,0.00246333315691708,0.007968158345519706,-0.027197900663539745,0.02698771064512986,0.046290522918874304,0.09293297749013142,0.13308365467502753,0.18941280516227,0.20548702516983625,0.23787623392661505,0.2640463341739132,0.28406289328685524,0.31494079892013466,0.3454424508952445,0.375629101337176,0.4281611291736536,0.4635446866456793,0.45923442569985,0.4378843885893035,0.4560476024175304,0.4629208482948873,0.4415999081162007,0.0,0.0,0.0,0.0,0.0,0.0,0.0,0.0,0.0,0.0,0.0,0.0,0.0,0.0,0.0,0.0,0.0,0.0,0.0,0.0,0.0,0.0,0.0,0.0,0.0,0.0,0.0,0.0,0.0,0.0,0.0,0.0,0.0,0.0,0.0,0.0,0.0,0.0,0.0,0.0,0.0,0.0,0.0,0.0,0.0,0.0,0.0,0.0,0.0,0.0,0.0,0
0.5274791823916374,0.3714452792171241,0.15219511246613945,0.03603134696212766,-0.07589994666168387,-0.15767366229837726,-0.18335748334610166,-0.2777789997585185,-0.2382029414985037,-0.19981135852302556,-0.11579398204857215,-0.03810510691999211,-0.00828975958463761,0.015296797248914296,0.02750788253783737,-0.0027989311676864326,0.002415604819734486,0.01720832539393134,0.0416317232937162,0.09653474115467876,0.09358429977716877,0.10042085682586267,0.1170956602441238,0.11766378594802612,0.13856933219055415,0.1746627370289543,0.2311920136430139,0.266612096037425,0.33816030796423163,0.3470986205769653,0.3558604677502503,0.3748862080195972,0.3522248128029648,0.35030432674849465,0.3327674876728444,0.3204457557016491,0.32896979313850483,0.3167781862276169,0.2839009482410336,0.30835351832888763,0.2705828247217303,0.2693978812357655,0.273627999158047,0.2728976787246262,0.2984231239083672,0.2774364945017189,0.2931424777195424,0.28316862202539633,0.2579288859548656,0.25383148212343043,0.23969459170232696,0.2415256005359927,0.25933502607290065,0.2151451683645056,0.2337432561865727,0.2267509492203821,0.2149705521075551,0.2088049677657647,0.17186381839851367,0.1821366298456893,0.1876337190130606,0.18315669798465656,0.15830710669130998,0.1442786411571723,0.12027286602485088,0.11748196438975785,0.1203053121215656,0.10274342971092258,0.08558844198332606,0.09483109403172582,0.08887296120704792,0.07810648455075915,0.06772452675491887,0.0629195599791637,0.05848544979129443,0.04921574716131166,0.0403019786011691,0.03693542454408441,0.059904565867185615,0.04161242103225975,0.03924092460869002,0.05278132927314288,0.030233351651651374,0.023579124155623504,0.022411020214496362,0.026719563331288408,0.03649516495391703,0.020533299024876595,0.010018864826049427,-0.005456412903985753,0.020889614309637324,0.005861263685984264,-0.0037589023889243274,0.007616845257007346,0.024381788983995668,0.01013263712962648,0.011652119876157704,0.01333330892744886,0.009967485695962224,0.006744132896817543,0.019250951376908212,0.011084268416452535,0.003030788871523589,0.0054788942076502475,-0.012776121140391459,-0.020549382317083836,-0.03344700659681036,-0.0150818192166238,-0.00705047771696614,-0.009355134988645252,-0.011599006157883809,-0.008583551597681609,-0.00030826376005448075,0.01322818034038354,0.006031463051070304,0.004098540424552588,-0.002967599536145598,-0.0047674533822980895,0.003899630272176145,0.0022390857984241805,0.011049399946250205,0.009535976393220931,0.028895503415913907,0.011939343872806587,0.031457065759885834,0.03025982776139255,0.023946507060653717,0.03331496352645855,0.06356553534125778,0.06270792028207284,0.08793331197487063,0.08725077682939432,0.0970542193270452,0.1121440358185318,0.11172273542966288,0.09058966851987114,0.10593323465012497,0.11095870074102876,0.12126041186222634,0.11083908641304943,0.09528790836757887,0.07980123953526122,0.06437383130140019,0.07499570596810712,0.0440721522455176,0.05478296941866818,0.04473198484300436,0.05030629766654469,0.04030404157756957,0.03551443857888159,0.020332571260868012,0.015547282533930541,0.01595164372260921,0.011139514430430209,-0.014494459481899926,-0.014166080036034085,0.0017197538894139664,-0.029231850652576764,-0.023840043638966885,-0.028899547635931562,-0.023614078605686442,-0.023578544945629144,-0.0027925398388814857,-0.023638694245012925,-0.013321890232680895,-0.008226577871211468,0.012454532180253029,0.01753817094145757,0.012234945051693744,-0.0034437605252028236,0.0069073158920856855,0.012105021342313234,0.012160972235260548,0.022684126409404787,0.007292041052351378,0.028385705638493644,0.04958252747459909,0.029300637954305837,0.035139734235236864,0.035915821264404894,0.04723693415156079,0.07431266045814708,0.06516187773032357,0.061387503673766865,0.0733973262771587,0.08040402268405568,0.09281470695898948,0.09504042122337272,0.09748741344808827,0.120959724371115,0.1186721654935506,0.1270250872714879,0.14602430890798462,0.16527674651145993,0.17438858606878835,0.2201556610137233,0.2089963152528589,0.21370007942171776,0.20827189346682612,0.239503504618728,0.2450038050718777,0.2611640352106269,0.2619846025850892,0.2682568147866114,0.25917759760671866,0.2815312773526757,0.2937156067055412,0.3217156724898006,0.323926351152092,0.35232532228351005,0.3549059661513713,0.3628460451499981,0.3761267432362753,0.4103248320906649,0.4134264609600991,0.4166018712209659,0.4510192371173487,0.4542602381611553,0.4678869784601292,0.4866670849594134,0.5001667111846569,0.5031487113106853,0.537165644540177,0.5397848746402326,0.5577528932263517,0.5754238851744479,0.5979457825343732,0.6356627742211545,0.6677212555132991,0.7616497211136609,0.8549949775037903,0.8593043529936254,0.8264975185024455,0.7616976425663547,0.6336298233416575,0.4474092883886519,0.21334723110312045,0.030137885572621526,-0.112707394528065,-0.2464739421519919,-0.3400467752345192,0.0,0.0,0.0,0.0,0.0,0.0,0.0,0.0,0.0,0.0,0.0,0.0,0.0,0.0,0.0,0.0,0.0,0.0,0.0,0.0,0.0,0.0,0.0,0.0,0.0,0.0,0.0,0.0,0.0,0.0,0.0,0.0,0.0,0.0,0.0,0.0,0.0,0.0,0.0,0.0,0.0,0.0,0.0,0.0,0.0,0.0,0.0,0.0,0.0,0.0,0.0,0.0,0.0,0.0,0.0,0.0,0.0,0.0,0.0,0
0.6598556628869078,0.7481571508210568,0.8524404102676264,0.8846980998200346,0.8393652653935438,0.7658369624288482,0.647546729921198,0.4404420611730647,0.22688540768991164,0.045265472354151175,-0.08801594958521547,-0.16755017580973516,-0.18792016248574456,-0.2756075877511122,-0.2327861225342764,-0.1694040799320529,-0.12943033874049936,-0.10734969465374172,-0.07564887427735259,-0.08925105551980886,-0.0656611471067032,-0.06528310475477464,-0.022096450435145,0.0199966297441535,0.06106759525062533,0.1011878055686256,0.1129460983365672,0.14038456817454514,0.14509809544826638,0.17662395142608533,0.22953424886994936,0.2819108875172681,0.32832394933898673,0.3853278799579859,0.3815323905519091,0.4324243379131656,0.444623825711674,0.4456705481307112,0.4301233164248669,0.414524486702362,0.4319035943596151,0.3998627928371554,0.367916715295775,0.36908866567752185,0.3759392320233432,0.3720200435340442,0.3793559528254212,0.3705019626987146,0.3729756121913317,0.3483352682117492,0.3570734122190581,0.3442554746625533,0.337391750148365,0.3529979254020636,0.3086520207617934,0.31430580713182965,0.33150554301333035,0.33278880198160365,0.31817371659220817,0.3371447451710304,0.32375944584191857,0.3165061137352641,0.3098998787714839,0.3094471749436125,0.3151564434436973,0.30504880502153875,0.3121082376606509,0.2813741012750329,0.2952952777773235,0.2989081596698272,0.2757227660896115,0.2807013845536561,0.2753653878380268,0.2707027349262047,0.2447213481651732,0.2688673325153235,0.2441958269809197,0.2421503685789497,0.2407337372201833,0.2564226051746993,0.245231564726366,0.2456205755699225,0.2465803815279465,0.23160405501854486,0.21716209536747536,0.21422740057862774,0.18980023643267,0.19882289039875645,0.20829360811936976,0.17971319782094722,0.16252451908737575,0.17868731642858754,0.15122454230324392,0.15156222487643756,0.14119677015868765,0.13658825936531993,0.13221029452143698,0.12803223801243754,0.1405121210770272,0.11465357187201106,0.09439549542226452,0.0906975636752452,0.08703676009296799,0.05589672804644325,0.05220732524677738,0.0319621504927605,0.017111861165673797,-0.014364591576698853,-0.02402746581835545,-0.02840008802302512,-0.04949994534677718,-0.026895177413422216,-0.04855319049497663,-0.04853842337699545,-0.04885379511742634,-0.04951184041762387,-0.03952756626522007,-0.051882822435752034,-0.04810194066525132,-0.02268298363117645,-0.01409099073936744,-0.027810186702660736,-0.0033661379706551218,-0.0012035216602609045,0.01716928432339481,0.013293810187439256,0.0146688199116953,0.0213107944989692,0.022243255004781484,0.04496471904183146,0.04002338678424033,0.0623996563128029,0.07913063276589008,0.0902317690931499,0.09571812259106656,0.10659718600046474,0.13387597347155622,0.12260364654950565,0.12775756343147204,0.12186781977248495,0.12693186215409474,0.12647142470760106,0.10950405020658556,0.11451463878184436,0.10853378012321216,0.11905236766485372,0.11309987585450905,0.10167673029082444,0.09028634777147374,0.11191385321844467,0.10610438399490342,0.10034561072023936,0.09464245698395664,0.08899934464750557,0.09441310896323768,0.0614192638692572,0.06697104717476475,0.06160319365600014,0.06730386615467761,0.06208937308379825,0.05145790284499778,0.007928673583487766,0.03593528539319993,0.047535783168939465,0.02074535174820171,0.038011361019835,0.011391334796542672,0.02882879248520212,0.002381010885037418,0.0254877516038825,0.03219190859831681,-0.010485091804279737,-0.0036073449978358506,0.014350967167613412,0.02140533544458733,0.006564065433955211,0.0028069021226540475,0.01563134116932797,0.0230526476901448,0.0030860086445665285,-0.005792627953659113,-0.0035824326319796322,-0.0177642421261522,-0.004364789920123404,-0.0018557714187345234,0.006255965644146722,0.008981533324971848,-0.026653760806008217,-0.034688674657533315,-0.015116753650184191,-0.0009069075900074685,-0.00853728028667356,0.011471390225485793,-0.0013296890780962454,0.013532384056110538,0.0066017721702368816,0.021862106271575844,0.02634677813625624,0.025564173341027358,0.047008318935119975,0.0632086811309671,0.0906660375121516,0.09091641660291967,0.10244559981963322,0.11427092428223305,0.13189854478743998,0.13884827157098092,0.1461214718838243,0.1757117053387664,0.1616687081157547,0.20843108018559575,0.19508243781023835,0.2480453036679195,0.24090483315140485,0.26710267349066524,0.2771717415500854,0.30409026820457863,0.33686355205760565,0.3095309382453553,0.32651982993564177,0.3493485568001677,0.36701603241945097,0.3740158669328188,0.3813291653042152,0.3779493892118767,0.3913431967993649,0.4159966966537367,0.4299047107412855,0.4275493109496006,0.44188552275386894,0.4563982441683852,0.4490737204782364,0.4803425645011856,0.4952078343529383,0.5046275060554941,0.53604640949646,0.5289637586004228,0.565783612901342,0.5530212014634053,0.5785715533853072,0.5819229635167219,0.590503926675046,0.6042578115548927,0.6561036941408,0.6910145363027581,0.7858746586305205,0.8691609574981449,0.8858357298111758,0.8303249163847073,0.7685037917758947,0.656314612885449,0.4936673405078673,0.2529864373566155,0.066090753554658,-0.09459898145342882,-0.20169793566090566,-0.31025893968169105,-0.39836545660351297,-0.21322085624791867,0.0,0.0,0.0,0.0,0.0,0.0,0.0,0.0,0.0,0.0,0.0,0.0,0.0,0.0,0.0,0.0,0.0,0.0,0.0,0.0,0.0,0.0,0.0,0.0,0.0,0.0,0.0,0.0,0.0,0.0,0.0,0.0,0.0,0.0,0.0,0.0,0.0,0.0,0.0,0.0,0.0,0
0.6945453327079787,0.6047291553602417,0.4069223057946429,0.23876897620238355,0.06958140060407286,-0.07011849953035616,-0.22632275225573004,-0.2970904279084235,-0.2977799519772401,-0.2692260602329162,-0.20122613160558006,-0.12435922274577288,-0.05388255349798365,-0.005041529580539104,0.03752900277791869,0.07899286274502447,0.07860552087274543,0.10274109501359348,0.13615880160020238,0.15341552981069695,0.18007655577436374,0.17539460047411834,0.1751350861278538,0.16405349023528967,0.16261076204233446,0.1861661237529284,0.2245734506446158,0.2880893142623908,0.31555646844075536,0.37333889593056624,0.4155790526609628,0.4168211549646728,0.4383227564459504,0.4342202843384167,0.4300606691051492,0.4156823226861843,0.4064260405907976,0.4125296331421345,0.3881189040134491,0.3791339161711371,0.3447973768202837,0.34634823298673423,0.3430055722191089,0.3041885638738969,0.321736424868136,0.3038542072934297,0.2811671171476669,0.2689961208341485,0.26225715182252146,0.2507638918273113,0.2498332451498701,0.22887270130143675,0.19809575482316108,0.20342110331430574,0.20405103872856936,0.17448955623768492,0.18615685947401625,0.1778487034847021,0.1444698870522716,0.1370342942354237,0.13004148512566616,0.1387975888391721,0.13269992331403518,0.12705327347105858,0.10145541330980926,0.09161345608317444,0.08222494002180454,0.08859238593617172,0.0546052086688095,0.06697776978679934,0.06449786137018422,0.057365635453397526,0.0710836419051168,0.05464054214808666,0.03863915057911544,0.0485811016177836,0.02835332809564565,0.018759748654572587,0.05040232662076048,0.04676388925680351,0.0588496811765895,0.0662520183313214,0.06896654952186389,0.07719040583802411,0.05011130579169057,0.059136530982097986,0.05835225663805967,0.057954336825421685,0.04773470675067877,0.042989545721226784,0.06921660791996201,0.07539983096429613,0.06663278090828896,0.07351318067943093,0.08583116584517128,0.07297287730898774,0.0655349081127335,0.08901257965935823,0.09748819083403212,0.07054812933161235,0.07449371057279212,0.06850685497275961,0.05767727144880366,0.06239704670748952,0.031645284225786226,0.026620724534804772,0.05241197541954728,0.027392096394603074,0.007658367826645156,0.01360158570024509,0.009502533188447591,-0.014853540671045806,0.00683216726455644,-0.02236914556013646,-0.020854578753254336,-0.01923905589347424,-0.02263098550190631,-0.031036041614833764,-0.013852307677814686,-0.02208942710472674,-0.01493940539891097,0.00249968946121291,0.009828488417186964,-0.0184532968624112,0.014575758736963563,-0.008399251136658403,-0.000657034733357825,0.012304548586267209,0.015189515428952412,0.013105447976758802,0.011159852464170115,0.034863796696498466,0.02811378428752032,0.031723373247853015,0.04569872682305569,0.03944040899471892,0.03845872977048676,0.047860174857890216,0.052347410572742906,0.0723292113516036,0.09250774247235853,0.08228208724328616,0.08756446805170855,0.09815672135482352,0.09365843223845474,0.10467776274998927,0.10571243212496556,0.11206689040624443,0.1186414319764578,0.1305376044328196,0.15285636216538356,0.1906980068761811,0.2032539150147793,0.2262281111584664,0.24941544264430215,0.2371050917962048,0.2454013158021865,0.2538935847070445,0.3033810228432017,0.3071388157122301,0.31106420804803137,0.3202456546942918,0.33466914839914,0.33391545358436275,0.35877454262020964,0.373521116681906,0.38323533726810016,0.4185000321444423,0.4231806977331053,0.4380579666719261,0.4426994744010475,0.4574779202669157,0.4619565359224677,0.4816044266016926,0.4653747861381438,0.4999428832552022,0.4934499226942203,0.5427681601392661,0.550932926593145,0.5740040424533738,0.6017267853841144,0.6340453765783511,0.6811028421441742,0.78874538538441,0.8548895076266794,0.8692640884129831,0.8011901057397156,0.7169014199986531,0.6061142840132865,0.3565232306096652,0.14657144818989082,-0.023831394568185747,-0.18538180249105704,-0.4197830841679023,-0.4108502085043329,-0.3116416882685335,-0.18336068351757384,-0.12288709576975684,-0.07915711081745737,-0.0419024943750874,0.03485885519008796,0.06448944411032627,0.13378243465718867,0.15609983632143512,0.0,0.0,0.0,0.0,0.0,0.0,0.0,0.0,0.0,0.0,0.0,0.0,0.0,0.0,0.0,0.0,0.0,0.0,0.0,0.0,0.0,0.0,0.0,0.0,0.0,0.0,0.0,0.0,0.0,0.0,0.0,0.0,0.0,0.0,0.0,0.0,0.0,0.0,0.0,0.0,0.0,0.0,0.0,0.0,0.0,0.0,0.0,0.0,0.0,0.0,0.0,0.0,0.0,0.0,0.0,0.0,0.0,0.0,0.0,0.0,0.0,0.0,0.0,0.0,0.0,0.0,0.0,0.0,0.0,0.0,0.0,0.0,0.0,0.0,0.0,0.0,0.0,0.0,0.0,0.0,0.0,0.0,0.0,0.0,0.0,0.0,0.0,0.0,0.0,0.0,0.0,0.0,0.0,0.0,0.0,0.0,0
0.30431348442369505,0.3301872004518439,0.37190471866928265,0.4294361132171475,0.4224478593716846,0.3926629290273449,0.3689539035446749,0.31916207907019023,0.23682346357010384,0.14759316493675229,0.08354924609245731,0.002891431799722965,-0.026970605421013382,-0.05426171215794088,-0.0822351987606075,-0.08523059455303922,-0.12109342543032835,-0.13523868530326855,-0.13088711653297136,-0.0983983355108368,-0.06024022008871278,-0.03244716112926982,-0.008563339658706698,0.014658076203432931,0.0147681752656588,-0.008197539938337876,0.01324982033094723,0.005268863338630125,0.032137121767755836,0.04249759730558465,0.05565866157410968,0.08450433456003335,0.08731317520466828,0.10266505926895096,0.11132217362220784,0.13259102669229167,0.16971722242792758,0.18740086693888425,0.21458260922185585,0.2416573263853791,0.24617054433033705,0.24742348512845516,0.2518678617041295,0.2563179411433752,0.2479505224719428,0.25569802758335164,0.2570985254400786,0.2393250152354181,0.23451818470116356,0.21378820304464655,0.21248545835531274,0.20171787830855484,0.19756130218360016,0.18718193450741735,0.18344154858967945,0.16386821652021585,0.16701841508049894,0.1543581319432733,0.1580180503095495,0.1555228988375964,0.13724489439003887,0.14494858939343747,0.1336719715612803,0.12590576491079788,0.11844346851014778,0.11129002147231484,0.1044497706929414,0.11719892405947367,0.104571775737467,0.10511584281280502,0.10598500633406263,0.10075676091790453,0.09264427997691917,0.10092058100814988,0.09988924425611394,0.0959740410989422,0.08274996517393689,0.09554843470566897,0.09261078440123877,0.08999512355130676,0.08448668095070026,0.07929437456593244,0.07120256078280801,0.08269175610447382,0.07842486869553905,0.07124543686661057,0.07720867637760376,0.0706125423037751,0.0707235777081256,0.06789934642807792,0.062133267404121686,0.05020635050636266,0.048171712380480965,0.06244600991944859,0.0544766851265495,0.05316432882170727,0.042440285410293696,0.04799253793351081,0.034479535331748364,0.03401294762939553,0.03694736799569051,0.03363721953513333,0.020860879762687815,0.0307293233173907,0.0278999594871906,0.015574878797242024,0.01622844971481329,0.0009418496543487641,-0.0013865727862220597,0.006020830545263318,0.01030563080442647,0.011457647337343729,-0.00016956075901820917,-0.011738004660366256,-0.02004588815509081,-0.009042021626532042,-0.017278493850737226,-0.015853073565009732,-0.027255001228167142,-0.006518550210348972,-0.011461631013438,-0.01638772596209831,-0.01808371554161081,-0.006910784255986249,-0.00856116396642953,-0.010181595125818713,-0.002130074450106915,-0.003672257566577135,-0.0019529020089208407,-0.0001767643146200308,0.004875723651837918,0.003575868523967992,0.011991509145881962,0.020493909893133887,0.025878414331035816,0.02494026355535036,0.0337469867116796,0.04266943165509289,0.04850241665302977,0.06410089449403074,0.0541385318497751,0.0764386925233738,0.07318996497381107,0.07330643395520897,0.08642940082995343,0.09971531341269743,0.10674432651839356,0.10430816595907903,0.13416699785628475,0.13850631000750366,0.14302472829018806,0.15093569903467705,0.14939160557940878,0.17051305061545236,0.1789664288291597,0.18438625637275569,0.18034580669806152,0.1989622662094392,0.21774673683013496,0.2077851865247605,0.21404009471823612,0.2268677191574679,0.23341117781523624,0.24329694134128876,0.2533020350348763,0.2569901981368913,0.26719632081996186,0.2806936604374665,0.2942541383611792,0.2917999941999644,0.3150692486177283,0.328708793510761,0.3198484324446725,0.3462818560614461,0.36301492940404295,0.3507483426953588,0.3640585712776351,0.38685480613105866,0.4158926962375673,0.4575621650260238,0.4700700128570314,0.5208311177845316,0.5841079898764974,0.6984019265183498,0.8122733564933077,0.9353085384743428,1.0,0.958108009508042,0.6810860960949343,0.3487416773876753,0.11839427856721928,-0.016453867150112184,-0.17151148402355426,-0.2280046543183757,-0.2598673411279752,-0.28640666435150913,-0.24339124757577796,-0.15007631466941698,-0.05460259349540909,0.049508628085239134,0.16231711031059892,0.2196409744025635,0.2632958259279862,0.3093996156596332,0.3130396559917548,0.3063913820881677,0.2862958986042376,0.28813761312224256,0.2669977624036701,0.2678940905841951,0.2394809196011243,0.22998538870451934,0.2426644657087177,0.22295671617537965,0.22550985784800034,0.2696377283763237,0.3232599246823735,0.36714297379413946,0.3949000647345952,0.4065666899591488,0.3957522282755808,0.4042450692630001,0.39031781482442507,0.3700582979632616,0.3627644696674932,0.3459755261761391,0.33898575436334444,0.3225428763418011,0.29666533673734025,0.2806423849033225,0.25842902155625425,0.25573574865819154,0.2436665932740008,0.2415053473945831,0.2364138889413543,0.24124944489820846,0.233535294869424,0.21006592965396625,0.18690708981623727,0.1544269090017758,0.14153742120449395,0.11290849681072145,0.09102655084541557,0.07910501634913847,0.07714480165604601,0.06908607170695301,0.06135309273422908,0.053945646392581516,0.05328734671855779,0.04974119015221387,0.027245767549568426,0.03719288210737863,0.031400044010355815,0.01950182980453444,0.027193006903988275,0.031987201608864,0.021034112975229276,0.016816045433314376,0.022542780800873383,0.02215159937352201,0.022064155748535014,0.019065785044234618,0.026002059926423883,0.030021901142765626,0.04075858644618623,0.035724547743587715,0.040613056753718055,0.04578444126241591,0.051235034711192125,0.050536802472047414,0.05653387118372046,0.0627976973590264,0.0,0.0,0.0,0.0,0.0,0.0,0.0,0.0,0.0,0.0,0.0,0.0,0.0,0.0,0.0,0.0,0.0,0.0,0.0,0.0,0.0,0.0,0.0,0.0,0.0,0.0,0.0,0.0,0
0.549082860512464,0.4359673813332164,0.23896210589261746,0.09812715757985244,-0.043703449427913495,-0.12432321708313784,-0.16456356473226244,-0.19562435966881636,-0.26945035295309844,-0.25112305558245845,-0.18216277786678564,-0.11963636140475414,-0.06869204906758945,-0.029276588945828942,0.029810572572781874,0.025589925196637327,0.0411659480246289,0.0714107936579867,0.09043589156278006,0.11906347808830475,0.1677350787516883,0.1482791665519224,0.1697482902140942,0.1906805066031638,0.19037354114805893,0.26230701105498444,0.3183050552400141,0.3480424409794912,0.3879035079616774,0.4379399503781448,0.4566804882920855,0.4805035919622642,0.4783137670023887,0.4968650564035322,0.494676913039898,0.4614070814185374,0.44899238457819707,0.4107548813214712,0.42457748932155065,0.4022569340338599,0.3905311805116066,0.3634743719543583,0.3574402508220397,0.3101682850019704,0.2943395176654456,0.2788308546152355,0.284419023220072,0.2540274167990889,0.21881020512433866,0.24106106378892,0.2273686945442556,0.21926395632167928,0.19080488996643696,0.18352012124660788,0.1922261579686265,0.18578794370654586,0.16421023686175915,0.14825738420136095,0.15869291144126133,0.12804740446241447,0.14455453547186714,0.12517306866992894,0.12180440796946193,0.1240677795017248,0.09044102441780633,0.08839407938335278,0.10235435963720828,0.06484754518427002,0.10043358933277197,0.08454591348818208,0.0846522219631567,0.08517772711910476,0.08611760603539027,0.06670609259732163,0.06326841269208204,0.07579855339190669,0.07314940946883729,0.07607478996569858,0.05861697424107295,0.05190928386949796,0.055943971382509984,0.07071302976522602,0.04949700834571113,0.04937868941398161,0.0495886678796869,0.03454742108538435,0.061336988999261786,0.02614522973539676,0.02238460912441164,0.05004513439639024,0.04683514894211067,0.0075541685165839935,0.025613931899821644,0.03872226031034237,0.04686839881326551,0.039661140209698784,0.022279430937820883,0.020662536435529552,0.003658188153662732,-0.002794563179718741,-0.003897461085624882,0.005528275051146475,-0.0056691091798844705,-0.0011697145879575655,0.0034456033195094447,-0.0022137705156605085,0.018172695557533945,0.02307380360296814,0.033239816737299484,0.012329460118262376,0.02780387923160741,0.027751183409619653,0.0433014121868679,0.038112785099388785,0.02774459843970796,0.02256582861007045,0.017374925310664226,0.012160354738889082,0.01729075487022809,0.011993926920260635,0.011828490935276716,0.0012122310338016187,-0.00948648117631922,-0.009899280148395513,-0.031177933730865057,-0.0214312001188715,0.003763443153531038,0.0028799078845248233,-0.013706619681373879,0.0007099375852968548,-0.005775498257876361,-0.007216068807669835,0.017145503685119662,-0.010545274704512851,-0.0072489745120857905,-0.009298138978185438,0.014447058551795572,-0.003485129145077372,0.00956697028455313,-0.013868131530271631,-0.011508737636486641,-0.01449416148292162,0.008318928727929342,0.015413431169943112,0.0016031077068379342,-0.007157580906693855,0.004705559415791401,-0.009514149185336395,0.0020890491032403776,-0.0020005139353779797,-0.016587353026141862,-0.00014488756069266906,-0.00456728900652443,-0.0038967751714875493,-0.008506035255461767,0.012753646346154569,0.0079897240896324,0.00835165788469094,0.008657962407943705,0.04005801586219985,0.024708437307001216,0.04046952530246034,0.045828480360338174,0.02522294727654406,0.04613241092626531,0.061853384890142964,0.04644266939218315,0.03104817797937257,0.0208669453535758,-0.00485479565600738,-0.004589364638643819,0.006099957432081874,0.011650325572225787,-0.0035011357019430643,0.022934579769541445,0.02349357759566225,0.029324305913248312,0.024863931454045432,0.02569025028639991,0.047380934159000604,0.043231974453025165,0.054771324193015086,0.07162542698008982,0.04189941794790758,0.027880919282801668,0.03995605041046568,0.02622923943573657,0.04379743053665429,0.03557459156525155,0.032706669934443315,0.05595917653147688,0.04824551881492473,0.04071102299551182,0.043740256750948885,0.041766937572056594,0.024414693574727003,0.022827978651003982,0.011059702029558721,0.020254081389073853,0.019273727193461748,0.023692312573422837,0.04389328496466652,0.03316855075143424,0.043422254052287605,0.06946695055312907,0.08016433219681582,0.06513626089687227,0.05552523235600152,0.05652276996382735,0.03698921419932645,0.0851575974337905,0.06608520605917484,0.08876497901813256,0.08572512773121634,0.09848613564753847,0.10628650567431297,0.11950502424620525,0.11218904108086712,0.12066686028708895,0.1293649317649056,0.12789923140640522,0.15778638154256716,0.17231016646017833,0.17665487477766806,0.191574321541698,0.211870791892781,0.21677522512075684,0.2322286650987009,0.22188951990730266,0.2324571057056059,0.2431579479624399,0.2332174098611053,0.2545214493641324,0.2759127891253221,0.3077539138020685,0.32407502320333464,0.340425812979355,0.3827346170579572,0.3990761273425793,0.3998046739798338,0.4056528503884059,0.40102034567912587,0.4118258553094116,0.4432255523295319,0.4329018694178644,0.4794290322420295,0.5256752221696506,0.6131186806239346,0.7105732100830076,0.6986173488835573,0.6913819021821961,0.6680508195635612,0.5507131711128745,0.3860177904937793,0.25175153376219395,0.10113622305256374,-0.024375379710299815,-0.10409153558812058,-0.1017478020024844,-0.08487243420619606,-0.11060376275815967,-0.14783985678799424,0.0,0.0,0.0,0.0,0.0,0.0,0.0,0.0,0.0,0.0,0.0,0.0,0.0,0.0,0.0,0.0,0.0,0.0,0.0,0.0,0.0,0.0,0.0,0.0,0.0,0.0,0.0,0.0,0.0,0.0,0.0,0.0,0.0,0.0,0.0,0.0,0.0,0.0,0
0.7418671105666196,0.8036662418594704,0.8978763128040882,0.9694646599393996,0.946904800517987,0.8850836004057754,0.8168974177383131,0.6158413294869469,0.3862569468028442,0.16652548201140802,-0.004973783846693256,-0.16681260858050576,-0.2311440815529675,-0.27499874397699525,-0.3204207453618271,-0.3784352237328365,-0.1302502790490013,-0.10349032836838222,-0.06725823935268206,-0.05997276986047024,-0.07057829850323928,-0.027552630161820447,0.014214939284672119,0.03831283456814154,0.08329384236172532,0.17122122786960833,0.2197254170964945,0.2563648459728096,0.2757181919923348,0.2888521807294006,0.3453072622785281,0.3627078032351005,0.4125768561027961,0.4290245773064501,0.4780736996248509,0.4883337281740728,0.4763548705271812,0.4531884492870072,0.4518691784884015,0.4229828567000722,0.4380347757798824,0.3981383703220261,0.4022768436041692,0.4010274390691124,0.38893693518818295,0.3825358785018856,0.3653742110564897,0.337489292123652,0.33739175721512465,0.3266403481738964,0.3052672229953207,0.3062815662825692,0.3187194898899534,0.3151262443591743,0.29552770314244864,0.2929268238703301,0.2963535401221118,0.2838434342397812,0.2828985965119632,0.2660552649941802,0.27730202616968225,0.27817948672149795,0.2796948565368634,0.25987529479602217,0.2901860983320181,0.2717015222520348,0.27038766978055706,0.2752590794121551,0.27532893770305056,0.2760983848188475,0.2665778543756819,0.2742515026089175,0.29362349305508784,0.2697286282788754,0.2630255520609527,0.2570213533165475,0.2517111357379067,0.23609583130732434,0.2321537732609744,0.23987634114950185,0.22627509394512665,0.21882126755588707,0.23399207991116536,0.20032056200851656,0.18374965742492336,0.18426398851544107,0.1798614856804654,0.16502848790522834,0.17272553797868562,0.1534657040234565,0.15120072666155354,0.1384278162657585,0.10962920041159192,0.10875440424983036,0.10280219856294537,0.08075658356775932,0.07557259188284696,0.05424753272474767,0.04973565706615903,0.04002651162618348,0.041584497556790674,0.02140582616305425,0.017940263748270346,0.003680149967487081,0.01707505439355103,-0.0243472244364893,-0.010683457805098877,-0.007914289659400341,-0.027054916002093803,-0.03514823456561685,-0.03221323267494552,-0.056740661683923735,-0.07576444976858086,0.0,0.0,0.0,0.0,0.0,0.0,0.0,0.0,0.0,0.0,0.0,0.0,0.0,0.0,0.0,0.0,0.0,0.0,0.0,0.0,0.0,0.0,0.0,0.0,0.0,0.0,0.0,0.0,0.0,0.0,0.0,0.0,0.0,0.0,0.0,0.0,0.0,0.0,0.0,0.0,0.0,0.0,0.0,0.0,0.0,0.0,0.0,0.0,0.0,0.0,0.0,0.0,0.0,0.0,0.0,0.0,0.0,0.0,0.0,0.0,0.0,0.0,0.0,0.0,0.0,0.0,0.0,0.0,0.0,0.0,0.0,0.0,0.0,0.0,0.0,0.0,0.0,0.0,0.0,0.0,0.0,0.0,0.0,0.0,0.0,0.0,0.0,0.0,0.0,0.0,0.0,0.0,0.0,0.0,0.0,0.0,0.0,0.0,0.0,0.0,0.0,0.0,0.0,0.0,0.0,0.0,0.0,0.0,0.0,0.0,0.0,0.0,0.0,0.0,0.0,0.0,0.0,0.0,0.0,0.0,0.0,0.0,0.0,0.0,0.0,0.0,0.0,0.0,0.0,0.0,0.0,0.0,0.0,0.0,0.0,0.0,0.0,0.0,0.0,0.0,0.0,0.0,0.0,0.0,0.0,0.0,0.0,0.0,0.0,0.0,0.0,0.0,0.0,0.0,0.0,0.0,0.0,0.0,0.0,0.0,0.0,0.0,0.0,0.0,0.0,0.0,0.0,0.0,0.0,0.0,0.0,0.0,0.0,0.0,0.0,0.0,0.0,0.0,0.0,0.0,0.0,0.0,0.0,0.0,0.0,0.0,0.0,0
0.6322423003074601,0.6828533389403616,0.7826797798024255,0.8434104540531351,0.8153398191879035,0.7756180319214601,0.7131407957326817,0.5616434506748144,0.348623796167427,0.17328025434894834,0.02449653356788289,-0.09229757862789507,-0.16064112010608567,-0.16958000899796646,-0.15778573933032922,-0.18597628916329992,-0.2596981615762957,-0.2300420329619416,-0.13009030999457,-0.06460697629149473,-0.0776715230215611,-0.03134090208380882,-0.008290627924478315,-0.013974158134449972,-0.004203325893026977,0.010054877830038871,0.03438080698159757,0.09641735936829836,0.14107253288954735,0.14634773455923694,0.16746274549825507,0.18793318415270385,0.20782077725559814,0.2106393662733908,0.2405738874376667,0.3031986840483489,0.3599617082675454,0.39988763893168,0.4340619492028232,0.4404742216035675,0.4357214080815896,0.4419139067470049,0.4370347488345122,0.41561170160991695,0.41077988690011147,0.4115471602051019,0.3793410804577241,0.3693531739253146,0.3650696392336944,0.3444591797092675,0.3351295101321659,0.3095301376511513,0.2897497305693592,0.3089067066063313,0.2732581184613707,0.27107587590730503,0.2582549576212365,0.2348141751692656,0.25592753417817626,0.23336100433164975,0.2167704890143762,0.2116855365376464,0.2070876657596645,0.20850428271159355,0.1773365697178902,0.1963289343196356,0.18827108990219385,0.1972960359442956,0.184801102566014,0.1838860643433562,0.21110282624617469,0.1837207002101512,0.1844773986632516,0.20785933889318609,0.18216423339810486,0.1901269143187854,0.1821057381697052,0.20222413590107266,0.2008386028641031,0.20000805422544568,0.1942121582909995,0.1889608803934868,0.18976321480483824,0.180064616858394,0.1653721872056089,0.1567077747084006,0.12096721309937344,0.1353585232432018,0.12265096222917345,0.12695737809199809,0.1096552776083662,0.09279366663709723,0.09290535422707527,0.05481925452273758,0.07780197608107182,0.05704085762154688,0.05319230486016691,0.0607246559060817,0.052043388772728,0.06022581171928204,0.04664554185186279,0.04437932608364385,0.053409786898806516,0.02407848808297694,0.05013358824507377,0.043306723994517814,0.036673549010826825,0.03021560923861563,0.05149250992248991,0.0398133286922541,0.033768559319012584,0.02230765970530184,0.016442513045050396,0.005122296859699585,-0.00615694794123266,0.004647739540928797,-0.02315482288829418,-0.02339592439049206,-0.012639382422289095,-0.00744679182749284,-0.013347249641486274,-0.01380655132023996,-0.041930061132933294,-0.03705580665606791,-0.03228385718064012,-0.03864816756182513,-0.012023140352894016,-0.0241081257356906,-0.014225766888592475,0.0010845038123069408,-0.0002310430947785233,0.014930342841317784,0.013483651618290234,0.017500283917590904,0.015957681801130566,0.03092709103068355,0.034838840777690436,0.049763942380061335,0.059163693246672124,0.05201479050023386,0.04487187811272745,0.05428933998218116,0.06924309297949671,0.07870878252887592,0.06614605930550851,0.07017066577614342,0.0632102312746667,0.039754628415824333,0.02187165643094181,0.04266021284529692,0.01387481808784697,0.01825488382644793,0.02271113315037417,0.02173244054221694,0.02635451252954315,0.031066001377075506,0.01932413050987944,0.029742453358485587,0.02371534726311109,0.039856120321367004,0.00646499138318402,0.017311436024307153,0.022758035623297274,0.017292473269912696,-0.0045976817362664785,0.017762835844539734,0.04025240589447962,0.051843210682805486,0.01392898854900409,0.02027878342164146,0.048832950379849735,0.022375257773371918,0.00709609165942618,0.019544889417017028,0.02663021614276596,0.03387007894367757,0.008172812040845471,0.010212605375270752,0.01792888002068642,0.042354897189081774,0.017304748978384892,-0.002063416549923449,0.028377165074797893,0.02589353807617688,0.03461252106360151,0.054535614910391626,0.04705460769243157,0.05078009427719138,0.04365030039008355,0.06427533172506843,0.07404599625494329,0.10054056297841324,0.0941178511945414,0.09338655403633056,0.10937665137979204,0.1365707105675247,0.12532556379049292,0.13079468252350476,0.14745877774453006,0.15876660939103138,0.15368184864013001,0.187355155238466,0.2156547469195867,0.19996355317481032,0.23403899002685274,0.2351367206071537,0.24185550559024085,0.25418339023220793,0.250044616377432,0.25700299175526314,0.2915897768048754,0.3096628130814638,0.3167193209932646,0.3182549726344484,0.3638890447709583,0.3543167124880993,0.4108572727678409,0.4176553640660603,0.4298386750922337,0.4363450238764515,0.4481726733896154,0.4763177048775091,0.4711018248535295,0.4876416803799451,0.5258950776744278,0.5582391420785117,0.5901422606596248,0.7098047572926921,0.7847980637994469,0.7764560880481393,0.7178122448528129,0.6694743094148067,0.5376083089349143,0.3772994336481563,0.177442403345442,0.03172737345790883,-0.10956324966754932,-0.20789684178415124,-0.24679296427058625,-0.24836096804040345,-0.21262416454135735,-0.13406662239569142,-0.09540258746677177,-0.06902059861789339,-0.05487837413427745,-0.03638012974363492,-0.030018758929416613,-0.02470545639501233,-0.003832916528165895,0.07678675596947279,0.11241931011754973,0.12519002727351622,0.1537705722989141,0.15961290463548855,0.19241859140887788,0.19157543100925326,0.2453927701396032,0.28222519015289244,0.30212947637434795,0.34928619127162297,0.39617095572887534,0.3987106985986645,0.4065963929490732,0.4088448844256716,0.39998663422561226,0.413159599056456,0.40979630475647855,0.0,0.0,0.0,0.0,0.0,0.0,0.0,0.0,0.0,0.0,0.0,0.0,0.0,0.0,0.0,0.0,0.0,0.0,0.0,0.0,0.0,0.0,0.0,0.0,0.0,0.0,0.0,0.0,0.0,0.0,0.0,0.0,0.0,0
0.8472274287907718,0.7562846439206381,0.549707876090099,0.2846583973074505,0.08595996192198002,-0.0725106140498424,-0.18044182007115572,-0.2795654346970511,-0.2970857037890811,-0.3059208117733049,-0.3477306133737495,-0.2975853325164056,-0.1033924073593946,-0.04615214209608278,0.01475141992118406,0.01694292715244255,0.028172398301345675,0.0797546430367099,0.11972404600490062,0.16898484171946898,0.19639048847345003,0.2592789015561573,0.2952716058238024,0.3148590783784904,0.3493503910044119,0.4144379879102796,0.4425322823923925,0.4701419707576834,0.5233635011316152,0.5450106867693391,0.5611750082689583,0.5511000613348848,0.5668968844368895,0.5565734053438638,0.5410049659806775,0.5514741609252314,0.5359805955701367,0.5258014020976594,0.5157759084668861,0.4799207425897792,0.4807352554192453,0.4610009898238186,0.4623924224363006,0.44850645848411386,0.4193728155527693,0.4218641285357434,0.3883405447418037,0.3760805283997632,0.3538753001152234,0.36858946649157415,0.3525754740350737,0.3266692282251352,0.3221149071838589,0.30769484256686,0.2886248797754181,0.2909393967767151,0.29382616857327537,0.2764715154706399,0.270110466243793,0.2539264897098551,0.23833181069378706,0.2181223311080148,0.22452788552611136,0.2107019515095641,0.21828218590092,0.1952148723524522,0.18313552278602027,0.18724354872892165,0.1815073394706676,0.19194452568331266,0.1821116173818703,0.1832293957390981,0.16926253600935218,0.1558149393802391,0.13766958968657145,0.10440367392843518,0.10284888611828334,0.08094106080965477,0.09071587351223148,0.06449318654973163,0.0803329059473087,0.09657920678352397,0.08198589799246564,0.08338157201261806,0.05910910943248821,0.08202136465335376,0.05841032821002765,0.06112814885141717,0.07454138135430102,0.025761079494398275,0.039688599221610825,0.02261442175923879,0.000544238368245484,0.020303698277600143,0.02461809279450676,0.029082860348079206,-0.01837191460340539,0.012359328585031736,-0.014072009871205372,0.022031278688049133,-0.00947311271747718,0.0007032157368684813,-0.02032605777955637,-0.0309368678928421,-0.010323289293704704,0.01027336472930318,-0.01600229167997415,-0.0006752339837707767,-0.02182948574752841,-0.011808509108657644,-0.017464083124053655,-0.012776616401844658,-0.002954965022434234,-0.0036168068077247453,-0.009559467817826869,-0.01037491275617576,0.014755837343293703,0.00857748066292857,0.012729979046433602,0.02200809160985234,0.0051814250191895145,0.009094742300422013,-0.002687503588057353,-0.004140692041223425,-0.0004700537013821927,0.00832459191493295,0.011833434426233184,0.030876728388241924,0.03942950934925218,0.0322867295140298,0.03547325049996605,0.04898868369066118,0.05201239206334834,0.0445435646919564,0.04219618386854019,0.06058400916733074,0.0736804471014103,0.05025358350378646,0.037146402205661316,0.0499715292101468,0.041881191668000216,0.028487579992676162,0.004582604151556561,0.0013931559943239447,0.008505962377410544,-0.010517345608674785,0.01198517579733818,0.003140989983778793,-0.016232179906386666,-0.004496555395027232,-0.008498117867408068,-0.012622208415687768,-0.027278449610970763,-0.021235122834332317,-0.03612816665453603,-0.014696164863131253,-0.01418465979646594,0.012262557545347531,0.03342777730444769,0.03370828159027065,0.03393630969356698,0.049738914603649986,0.029077748747911875,0.02401457105974514,0.04497085300356915,0.019087661810489043,0.008836301618090233,0.035047839045419554,0.024862976849499337,0.02513765102881614,0.020267460146628325,0.02067296587808233,0.02636459304096653,0.016532592048124954,0.027622276849751555,0.02841364785270717,0.02412169167266905,0.014756235097046346,0.026352073104932896,0.022483713773903062,0.0031606577413662864,0.015237453066420822,0.01708333008438883,0.024322638303642417,0.03175957077578885,0.044608234459300934,0.03685247095462533,0.0761662185015525,0.0584576449965719,0.08263023014619854,0.06541153976771885,0.05365417052798531,0.07339032099603679,0.0,0.0,0.0,0.0,0.0,0.0,0.0,0.0,0.0,0.0,0.0,0.0,0.0,0.0,0.0,0.0,0.0,0.0,0.0,0.0,0.0,0.0,0.0,0.0,0.0,0.0,0.0,0.0,0.0,0.0,0.0,0.0,0.0,0.0,0.0,0.0,0.0,0.0,0.0,0.0,0.0,0.0,0.0,0.0,0.0,0.0,0.0,0.0,0.0,0.0,0.0,0.0,0.0,0.0,0.0,0.0,0.0,0.0,0.0,0.0,0.0,0.0,0.0,0.0,0.0,0.0,0.0,0.0,0.0,0.0,0.0,0.0,0.0,0.0,0.0,0.0,0.0,0.0,0.0,0.0,0.0,0.0,0.0,0.0,0.0,0.0,0.0,0.0,0.0,0.0,0.0,0.0,0.0,0.0,0.0,0.0,0.0,0.0,0.0,0.0,0.0,0.0,0.0,0.0,0.0,0.0,0.0,0
0.5467314310480029,0.4691579228064087,0.32520725709150616,0.14950432673727293,0.0036537088887232576,-0.12783022496596896,-0.22959733835309265,-0.3209756070884069,-0.2054207124619484,-0.1488945918923215,-0.12439972691666025,-0.0856520895520669,-0.0403184545362311,-0.0423111345394593,-0.010632060242264294,0.012377724216291394,0.05761316997131456,0.11356996429492736,0.13405325023255832,0.18079284436910426,0.19602923291363966,0.22221829368678606,0.2401433578548345,0.24985901002640956,0.2899633631609497,0.3065459311605949,0.3536200194999589,0.3772721595347099,0.3891131539353441,0.381479554477759,0.37368727771940347,0.36192349537939256,0.3539369294607332,0.34205660072191385,0.3186097602367757,0.31061220495699937,0.31424235553138125,0.3102591879206515,0.29869247140756394,0.287279369792454,0.2644831888794977,0.2611650000503861,0.27734876901678296,0.27451242659774816,0.2835130291901829,0.2889525857477309,0.2754316876588901,0.2506763189897914,0.2262655595548881,0.22148618160055888,0.1900977866304587,0.18992963719986414,0.1901571685196304,0.17537275777946826,0.16871256045084915,0.18174843642117486,0.17208878132039962,0.14744922982418046,0.16565270395215215,0.16888720127498993,0.1455935659809735,0.16130125595758338,0.15819586810813893,0.1632605967784075,0.15336969754693147,0.14394133875687254,0.1465384489961445,0.14959639970540534,0.14925877544658875,0.1455228857063904,0.1345308207708685,0.14325972656573555,0.14086898276119506,0.14662540051670214,0.13354141176567424,0.13244580891593113,0.12791304178710972,0.13535268122388525,0.13933787525164135,0.1244410951323555,0.12919673613327393,0.12275805899448075,0.10896793463322277,0.10708651180349284,0.10168313825876793,0.0696176805064452,0.08796579221400021,0.07191491687657084,0.07541308280370664,0.0868819193154472,0.05619794959881428,0.05658039544756442,0.045614010462895635,0.04640930475895467,0.024259466778430643,0.0099834923324149,-0.0002900002261783016,-0.010432442461896358,0.010375017771577993,0.004299346847107781,-0.005548609695565415,8.749927980539787e-05,-0.0019346499469755898,-0.007776071186278099,-0.009743121549966564,-0.011704838143423726,-0.005965913755204046,0.003606652065480593,0.005437480717704381,0.003369067194322564,0.00895282511430754,-0.008659050723068204,-0.007079425054211062,-0.01715532523415549,-0.011916012471150395,-0.022206211818952833,-0.013343476895209016,-0.02002376404912876,-0.015270195491451019,-0.02606661186997501,-0.021578309562523008,-0.032639675126955175,-0.0168480599532765,-0.02045059151784298,0.0028145530309334173,-0.008714102038454975,-0.0049183322342307365,0.006503821173671967,0.014000311250120924,0.029145895981440174,0.03653395300507506,0.028466660042511582,0.02422732249279311,0.03539015760814216,0.05040242406360655,0.019166474515842528,0.018782015532477585,0.029986835179757657,0.033518627613850986,0.03709624740407234,0.04072943571307763,0.044427748222285735,0.04820053696593684,0.06362035055981102,0.05215134882911892,0.06391025035280634,0.06036063609758685,0.07234627980060848,0.08445697851471448,0.07742769465458868,0.08595558904466732,0.09462928758302876,0.09189145929656632,0.10858350204009903,0.11002031479622362,0.1116244014179111,0.11339982402951693,0.12691350535367033,0.14831390948683906,0.1390586097971208,0.13769389621827272,0.15192958013692015,0.16249347412288484,0.17709394144541035,0.1687482767455263,0.16443550988920005,0.1872793540942545,0.18716771517251676,0.18722254776748976,0.2028559248705801,0.1878074168522892,0.20759529409954472,0.2236661194796602,0.22830120113756136,0.2369075663281385,0.2224918988259124,0.24285810181629974,0.2440292517291731,0.2606800875593837,0.2542491429270773,0.27097205200069,0.29155713828801605,0.2890024246230698,0.3018305154690994,0.3338723141163869,0.32343117528771065,0.32058849864032885,0.3253159188877383,0.3298745219874217,0.34194165894430834,0.3730475042974776,0.430866049970954,0.5076515310241985,0.5725291907458594,0.5792038425398897,0.5584668952994947,0.5102710786445845,0.4384208027673527,0.30431872453023495,0.16958160426742264,0.07269784327892181,-0.028788936085250245,-0.08097365229528407,-0.12631031154145048,-0.11859235066156452,-0.1387988129369359,-0.15611776107951114,0.0,0.0,0.0,0.0,0.0,0.0,0.0,0.0,0.0,0.0,0.0,0.0,0.0,0.0,0.0,0.0,0.0,0.0,0.0,0.0,0.0,0.0,0.0,0.0,0.0,0.0,0.0,0.0,0.0,0.0,0.0,0.0,0.0,0.0,0.0,0.0,0.0,0.0,0.0,0.0,0.0,0.0,0.0,0.0,0.0,0.0,0.0,0.0,0.0,0.0,0.0,0.0,0.0,0.0,0.0,0.0,0.0,0.0,0.0,0.0,0.0,0.0,0.0,0.0,0.0,0.0,0.0,0.0,0.0,0.0,0.0,0.0,0.0,0.0,0.0,0.0,0.0,0.0,0.0,0.0,0.0,0.0,0.0,0.0,0.0,0.0,0.0,0.0,0.0,0.0,0.0,0.0,0.0,0
0.6044909764100861,0.6677825743172603,0.7616606254641191,0.8237786386839523,0.7917863145069218,0.7278923384025161,0.6631606609505202,0.5404193947209923,0.3284439831124604,0.15171104721712872,0.00494233274841045,-0.14309181976729288,-0.2250086373144981,-0.3394958915982041,-0.35166415881688984,-0.2719153841972719,-0.19366017409265826,-0.10648071636775848,-0.062222353087002434,-0.019297982772374912,0.017174243240487608,0.01612736029253738,0.034726516401545386,0.036714451074090715,0.08963631671127067,0.17280488359389204,0.2136311805576288,0.2485180882671911,0.25158586731512605,0.2851857342515741,0.3130551904965937,0.3248809581733473,0.38301000469801466,0.4096541812704,0.4567766571991586,0.5088668722794242,0.5244613357912693,0.5243755645966649,0.5294224532509029,0.5085109811679014,0.4824487739128629,0.4928014318015037,0.4825196857049252,0.4620234837296848,0.462490878689331,0.4372456733846689,0.42265142738378986,0.39797809143651297,0.3943947962990704,0.3807871309209772,0.3571794882358963,0.3547351331999665,0.3163833463238501,0.30961473827506364,0.31887626858271195,0.2922824434177236,0.3025092784022039,0.2717175772817462,0.2622001230671371,0.253206270959596,0.2395544531387924,0.23682235305846105,0.2398259390946505,0.2433799955116446,0.22153759013861116,0.2262025138000657,0.2106649924318282,0.20606606085247448,0.19164440729206836,0.19853898291391908,0.19560622874303973,0.14651146378317373,0.13948213283944086,0.13818184432712194,0.13741428520896362,0.10084167558036107,0.11149852297144848,0.1019050802396872,0.09800337062431352,0.08421387322832244,0.07609735309598578,0.07364376622314413,0.07165255879251757,0.0649228087679953,0.06901375315609247,0.037202752433020514,0.04213979651238982,0.03191158546152864,0.03764667787046266,0.023001791528675184,0.039865654540294886,0.04151442279974782,0.022745087484027128,0.01987546680885264,-0.013818803957173586,-0.0004990850902631691,0.033871989392648065,0.016620668950512892,0.010016396167567084,0.01923710793479667,0.04427056173485183,0.043583384254003064,0.04830379139468224,0.04284861720520496,0.047965359499414786,0.04807039656358436,0.032769996183543725,0.03319122040398016,0.04413006213511501,0.03962183102564762,0.02484239203209662,0.03091805863360053,0.026693468181077696,0.017344008719638287,0.03399558145882653,-0.0012187149653119249,-0.005271942777633799,0.001060365047825974,-0.008186952954758717,0.00330248836322078,-0.03195673461619618,-0.025746182232762083,-0.004027224116250866,0.0020510866645207025,0.002861114237866941,0.008775212476668792,-0.01135531366260395,-0.016017392530573868,-2.7779007550590303e-05,0.0002772590676067059,-0.009917508894115344,0.01090359041645933,0.016024973923816944,0.00544216797168649,-8.886391565269965e-05,0.009807555922528927,0.014366337630902972,0.018772988948136345,-0.02368834748234219,0.011540644887666221,-0.0052958039920236784,-0.01710886612604172,-0.034280891660253436,-0.0049110534819823215,-0.006848500952718884,-0.024519589009482902,-0.01639937534992855,-0.013622398879724044,-0.005800605953039497,0.0018849632247836601,-0.0061264391467405754,0.0013155936442806168,0.008650886384264063,-0.010061001371051644,0.002281515901320266,0.004168522318751958,0.005991383854586005,-0.002619071665866585,-0.006081399742439121,-0.009574424368576659,-0.002706003825683584,-0.006223862782979236,-0.0045445635548343796,0.017915922811344652,0.019650634411784485,0.021434071679357427,0.028470248814698805,0.040772943521730436,0.027215015194999987,0.050091447238727466,0.06270437112860203,0.054686573167561515,0.05719156074752811,0.0650416625430729,0.07824905059731811,0.06568479578694303,0.06888138831234393,0.07227956736003319,0.09665063299406644,0.07972345465898252,0.08378952237867504,0.0984781169907942,0.10303784173266832,0.1286181007145907,0.12332571363596595,0.13906944363279475,0.11876472135905465,0.1298893859540249,0.14649835485898768,0.14264589606829525,0.15985722632714072,0.16180490925591168,0.1692521317787688,0.1822007544899064,0.17989127441743985,0.19865470017561687,0.20734945967969792,0.1955935048768627,0.18933465625147744,0.22490001497309395,0.20886250237910767,0.2346385710556192,0.2555101374646317,0.2507085915070684,0.2669357267757797,0.2782302727516884,0.2742000122161485,0.3015427593890552,0.3083425002894974,0.3153435237917368,0.3380984477311786,0.3402570199620591,0.34255872043628033,0.3657413278206444,0.3734494853984462,0.3864174303362463,0.3942367565950481,0.39168725537505816,0.3891171346717649,0.4176331613497994,0.4252980874664389,0.4224541288294142,0.440201892061438,0.4473583195983186,0.4802098341090191,0.502378810901934,0.5138161295207726,0.5767517095314488,0.6392300562394194,0.7219546017605629,0.7262526075543126,0.6728206998132563,0.6342531667304945,0.5378173112576877,0.3730588169969231,0.21775287701176604,0.08739126715543685,-0.023295842788649948,-0.12476884931977054,-0.14963399593681084,-0.26404149278394706,-0.2967689285626656,-0.2686035931077739,-0.1951144538795109,-0.1333659956076106,-0.06774235657971801,-0.02413603992473512,0.007897792036796414,0.038806269908128764,0.0427055795190688,0.045613005931624116,0.052785103374484534,0.07985845666402037,0.12689899871202012,0.17840187515892372,0.2084813384974677,0.22758165449549755,0.25133617584052137,0.2434758240482243,0.28191310913322204,0.3303764785512005,0.3577830995186545,0.0,0.0,0.0,0.0,0.0,0.0,0.0,0.0,0.0,0.0,0.0,0.0,0.0,0.0,0.0,0.0,0.0,0.0,0.0,0.0,0.0,0.0,0.0,0.0,0.0,0.0,0.0,0.0,0.0,0.0,0.0,0.0,0.0,0.0,0.0,0.0,0.0,0.0,0
0.5549336898384128,0.6272524327748313,0.7407685011705787,0.7757115414667612,0.747637958022725,0.7241504542403951,0.6271074980511026,0.5241044339147104,0.3630180622729313,0.20623295376593773,0.08490175738341897,-0.011464051129934346,-0.2130688290188783,-0.2961746367613618,-0.2868641457779523,-0.17475676657852424,-0.1576453679802492,-0.11059511578569584,-0.06480673228833443,-0.06188046876569234,-0.07574518897535636,-0.054298789230236406,0.002517852349423754,0.027103785147985043,0.06636843668117683,0.08394081478534343,0.12672987961510485,0.11672374538031878,0.14767547872238992,0.19362215418333747,0.21298505464769893,0.2630798323297847,0.3075307548381156,0.3776260052624241,0.3901418383180373,0.4127981356310863,0.4248275261980231,0.4418956993448216,0.42761604265953773,0.4132649651321034,0.3988866311120649,0.3845231386241424,0.3806246267799585,0.4028443298354701,0.4043733658031569,0.3800409805540781,0.37672457569275053,0.3580193684583302,0.3291588345473231,0.32139974835953616,0.3087420431402882,0.2755940806562137,0.2688228920840752,0.2416038109497156,0.23559612858500475,0.2195876796623566,0.18839020967368492,0.2044795970528782,0.2158203875621456,0.1807861400857684,0.17746474288674927,0.19545787837690312,0.1931362350841587,0.16009963080722436,0.15881716630403464,0.14765678663379636,0.16826592693034362,0.14778089332294642,0.14866761237198545,0.13449593429283005,0.1469102323632178,0.13906890546072714,0.11097477775203307,0.1302952089396557,0.1293665420914809,0.11339471743975126,0.1188151349441708,0.10398736119042637,0.0949355995689028,0.09686346249306413,0.0993590344182904,0.09721493324267767,0.08522328006914999,0.07899578096607973,0.05250357380520936,0.07340772115989275,0.06362852580481199,0.05439129643664523,0.05610095256932667,0.06354708848022211,0.04028891138176224,0.04878064819147999,0.04217095142174936,0.051683496082132976,0.02526146216697788,0.0357681974938381,0.010326426292154559,0.011389155711126277,-0.002691013932752806,-0.00589630838839431,-0.013848839838616131,-0.005735035996738175,-0.007585168776553497,0.001416194576822612,0.010855100849136642,-0.005297463534923943,-0.00020031778577476046,0.02614306230494669,0.011269006855448594,0.01242912374928695,0.01920973364461084,0.04722218385409388,0.04961751252139733,0.06803182359975052,0.07643574207444746,0.08523467709186472,0.11003867337969712,0.1404322606921103,0.12956429426970245,0.12427324687228405,0.12455178359793614,0.10957187713839052,0.1521951971069769,0.16392731469675045,0.17078343084541114,0.1831628735739998,0.22187415250645967,0.22964959505193636,0.21168063236915635,0.2356177604892151,0.24939500855938626,0.27902049403857143,0.3036559275703712,0.33889674901611616,0.3743117911573555,0.3786481212517788,0.3935211836385207,0.4084943518158233,0.4287440849560957,0.4490347642399309,0.4693336448875252,0.4791957014251961,0.4994036682712085,0.5038927240250611,0.534260781148284,0.554027966238357,0.5787619121891412,0.5823873396744359,0.5804662176387092,0.6041726563698167,0.6430377217442961,0.6553593522152313,0.7035326262476705,0.7822841146295282,0.907156941525702,1.0,0.9306074697312352,0.8654545427198548,0.7628110475278099,0.6173776097645387,0.3926209344240686,0.2029501546532093,0.06908212081358152,-0.11318775772465588,-0.2554787598808873,-0.3162445715777711,-0.3580149634563507,-0.3495993432428528,-0.3326433558823768,-0.3175293278222425,-0.09599723846975636,0.00933128653099295,0.06101505551569384,0.13722788344368694,0.1808128184382904,0.25432763096406386,0.3214338499809299,0.3457917328106561,0.3795452315262472,0.40717133836167135,0.4235551833447963,0.4704250204870555,0.53225179066365,0.5987091003847068,0.6334428061012561,0.6521459483191124,0.6496883292899449,0.6365515438157668,0.6440340092970592,0.6357657294962114,0.6066035945657375,0.5930414579097338,0.5743149445540074,0.0,0.0,0.0,0.0,0.0,0.0,0.0,0.0,0.0,0.0,0.0,0.0,0.0,0.0,0.0,0.0,0.0,0.0,0.0,0.0,0.0,0.0,0.0,0.0,0.0,0.0,0.0,0.0,0.0,0.0,0.0,0.0,0.0,0.0,0.0,0.0,0.0,0.0,0.0,0.0,0.0,0.0,0.0,0.0,0.0,0.0,0.0,0.0,0.0,0.0,0.0,0.0,0.0,0.0,0.0,0.0,0.0,0.0,0.0,0.0,0.0,0.0,0.0,0.0,0.0,0.0,0.0,0.0,0.0,0.0,0.0,0.0,0.0,0.0,0.0,0.0,0.0,0.0,0.0,0.0,0.0,0.0,0.0,0.0,0.0,0.0,0.0,0.0,0.0,0.0,0.0,0.0,0.0,0.0,0.0,0.0,0.0,0.0,0.0,0.0,0.0,0.0,0.0,0.0,0.0,0.0,0.0,0
0.5269360706478996,0.556000573563207,0.6187329655236606,0.7592342337933984,0.8175232762304838,0.8211472446624157,0.7700709606325756,0.7304429223506879,0.5919070245981629,0.376479074746932,0.18339100010346326,0.062232008776926,-0.0753008214171906,-0.11343172808219633,-0.09633160271623384,-0.12331704613874968,-0.1502886457947058,0.043365479063830814,0.0,0.0,0.0,0.0,0.0,0.0,0.0,0.0,0.0,0.0,0.0,0.0,0.0,0.0,0.0,0.0,0.0,0.0,0.0,0.0,0.0,0.0,0.0,0.0,0.0,0.0,0.0,0.0,0.0,0.0,0.0,0.0,0.0,0.0,0.0,0.0,0.0,0.0,0.0,0.0,0.0,0.0,0.0,0.0,0.0,0.0,0.0,0.0,0.0,0.0,0.0,0.0,0.0,0.0,0.0,0.0,0.0,0.0,0.0,0.0,0.0,0.0,0.0,0.0,0.0,0.0,0.0,0.0,0.0,0.0,0.0,0.0,0.0,0.0,0.0,0.0,0.0,0.0,0.0,0.0,0.0,0.0,0.0,0.0,0.0,0.0,0.0,0.0,0.0,0.0,0.0,0.0,0.0,0.0,0.0,0.0,0.0,0.0,0.0,0.0,0.0,0.0,0.0,0.0,0.0,0.0,0.0,0.0,0.0,0.0,0.0,0.0,0.0,0.0,0.0,0.0,0.0,0.0,0.0,0.0,0.0,0.0,0.0,0.0,0.0,0.0,0.0,0.0,0.0,0.0,0.0,0.0,0.0,0.0,0.0,0.0,0.0,0.0,0.0,0.0,0.0,0.0,0.0,0.0,0.0,0.0,0.0,0.0,0.0,0.0,0.0,0.0,0.0,0.0,0.0,0.0,0.0,0.0,0.0,0.0,0.0,0.0,0.0,0.0,0.0,0.0,0.0,0.0,0.0,0.0,0.0,0.0,0.0,0.0,0.0,0.0,0.0,0.0,0.0,0.0,0.0,0.0,0.0,0.0,0.0,0.0,0.0,0.0,0.0,0.0,0.0,0.0,0.0,0.0,0.0,0.0,0.0,0.0,0.0,0.0,0.0,0.0,0.0,0.0,0.0,0.0,0.0,0.0,0.0,0.0,0.0,0.0,0.0,0.0,0.0,0.0,0.0,0.0,0.0,0.0,0.0,0.0,0.0,0.0,0.0,0.0,0.0,0.0,0.0,0.0,0.0,0.0,0.0,0.0,0.0,0.0,0.0,0.0,0.0,0.0,0.0,0.0,0.0,0.0,0.0,0.0,0.0,0.0,0.0,0.0,0.0,0.0,0.0,0.0,0.0,0.0,0.0,0.0,0.0,0.0,0.0,0.0,0.0,0.0,0.0,0.0,0.0,0.0,0.0,0.0,0.0,0.0,0.0,0.0,0.0,0.0,0.0,0.0,0.0,0.0,0.0,0.0,0
0.6072433996740587,0.6699473344782042,0.7737650064264984,0.8562487363152443,0.8185530382235054,0.764594370386105,0.7098998205344567,0.5504125717822971,0.3536436792360956,0.16630491000105824,0.024707994994792662,-0.11282317615865982,-0.15278735377560546,-0.20443879537005594,-0.247038894042388,-0.25982962120741715,-0.25322428349263243,-0.20641669980389973,-0.07778009680174941,-0.04923085289807578,-0.011526454257917044,0.06139414613109667,0.07081387466406489,0.058391968349584975,0.07098644411148149,0.11906108902152965,0.17148626334247513,0.2127291339854213,0.23245514441475595,0.24632434437220202,0.2388008174161545,0.25153788931389715,0.2845946199518182,0.3536262134806619,0.3495072354476473,0.4022706465605743,0.42878316662242205,0.4498921837749578,0.45004900435190826,0.4552957571028892,0.4396809806864844,0.4396405450977043,0.39802371020383737,0.3824567532998713,0.3721786838240248,0.3516257329153509,0.3624227446500952,0.33181185731461504,0.3326091486503743,0.30765068772452353,0.293355292281289,0.3105428398576553,0.2916464634759275,0.2834786911054345,0.2808592526371773,0.2578099246302968,0.22994415122447945,0.20767495352518692,0.20661333690172606,0.16438225857962,0.16417939428653716,0.1644223822084274,0.1443245755726734,0.13508984534075727,0.13672653694367706,0.15444145434780487,0.15184764601001988,0.14974786201054105,0.14294842326835178,0.13145403594772678,0.12566695944002645,0.14638706383563327,0.13122744713651602,0.1165840211167442,0.14925030938235395,0.15124003698885038,0.13295146047840956,0.15157428605443213,0.1291200715633888,0.138374502533751,0.13254253724780812,0.13241718391515062,0.13279511810967745,0.10247668339636276,0.11424423905661142,0.11090128237338492,0.1028394812082631,0.0796534129780102,0.07253021277879293,0.08666094751670796,0.09084238355458077,0.06946825590430222,0.10571539107326623,0.0955914447819488,0.1118740996503072,0.08696394275684663,0.10403588736300527,0.10068866034167777,0.1185031480783432,0.100276187807759,0.08758756995636223,0.08042351169284262,0.07876979224804008,0.08261178873523595,0.08153621644954849,0.09632418153475844,0.08536677463835182,0.05904594463291744,0.04853974949557525,0.06942855001991885,0.022911516639571087,0.023351966014048188,-0.002055723200355005,0.009060194492453865,0.004690712221047832,0.010813787582043386,-0.00898225309671682,-0.018321261771913174,-0.01722017497838934,-0.021291590684923773,-0.035748202974469914,-0.02940674533665863,-0.017872761043247826,-0.011549865740587315,-4.344122432356016e-05,0.00104655802413703,-0.018680684365094555,-0.02803291811788899,-0.0062143862643044105,-0.02081194644539576,-0.019831784289698482,0.0019296858477547477,-0.012711674183773863,-0.006559064522228057,-0.00040148746551991956,0.005769213737972321,0.0015629660119775444,0.0077844713417621215,0.019242753974757,0.009950263297632142,0.016308960298500354,0.0071320144143440685,0.008422987367955763,-0.0006068006393536576,0.01124526832480046,0.002393994054448788,0.009241129886296223,0.016197077341066676,0.002473057749233613,0.009669819271096477,0.016998489886453173,0.019267551179808492,0.021683667712419738,0.01905513973858617,0.0009910251096675194,0.029888162185739437,0.03296590077212445,0.04142612092535535,0.05007659998025337,0.04852577415643428,0.057576633198119925,0.07723538828225737,0.08151229277962213,0.10160768771465996,0.11153103271974084,0.1112869493118016,0.11647690330641823,0.10630786619221286,0.1223758348885035,0.12828926500626134,0.16044387606169774,0.17204860237108188,0.2046968537695208,0.2323924380492955,0.24993467545682266,0.2521217242763285,0.2857418329646723,0.30919671163187423,0.3120814455863955,0.28918870813774017,0.3236948899264023,0.33240264814210085,0.3204982992383233,0.35035697148592776,0.3543738410492489,0.3741241459843864,0.3679952087246176,0.3671603568669039,0.39759194404756265,0.3968752103629084,0.42737262357996064,0.4422628534130651,0.4519129065440608,0.4614884443559185,0.4657546006978739,0.4906690058845469,0.4893990856731386,0.4982959562294378,0.5173143488315973,0.5360082353087863,0.5491281349030305,0.5878158247073864,0.6364181303128262,0.7572659480002144,0.8567129724217316,0.8671047818228241,0.8039688146376931,0.724421245653438,0.5971889520748682,0.4117917249389675,0.2097377091839702,0.05852866071249047,-0.0887156609226274,-0.18009224310442273,-0.2520749229663643,-0.25273515114060885,-0.29649271864886423,-0.30017631525863964,-0.11819685611395946,-0.09365533416139764,-0.05492724917069276,-0.03834456303887948,-0.002247009805305805,-0.0037542264832505054,0.019594445025763886,0.05227300970271567,0.10995017846396372,0.15630306101480804,0.1706056192634598,0.1945206414180368,0.20732045484334746,0.21427208422399935,0.2726328574883355,0.3148798155738525,0.34627651203817444,0.3980805959628521,0.44955664520086575,0.4903655151714176,0.4945684115566808,0.4882154280572626,0.4973541855317121,0.0,0.0,0.0,0.0,0.0,0.0,0.0,0.0,0.0,0.0,0.0,0.0,0.0,0.0,0.0,0.0,0.0,0.0,0.0,0.0,0.0,0.0,0.0,0.0,0.0,0.0,0.0,0.0,0.0,0.0,0.0,0.0,0.0,0.0,0.0,0.0,0.0,0.0,0.0,0.0,0.0,0.0,0.0,0.0,0.0,0.0,0.0,0.0,0.0,0.0,0.0,0.0,0.0,0.0,0.0,0.0,0.0,0.0,0.0,0
0.549082860512464,0.4359673813332164,0.23896210589261746,0.09812715757985244,-0.043703449427913495,-0.12432321708313784,-0.16456356473226244,-0.19562435966881636,-0.26945035295309844,-0.25112305558245845,-0.18216277786678564,-0.11963636140475414,-0.06869204906758945,-0.029276588945828942,0.029810572572781874,0.025589925196637327,0.0411659480246289,0.0714107936579867,0.09043589156278006,0.11906347808830475,0.1677350787516883,0.1482791665519224,0.1697482902140942,0.1906805066031638,0.19037354114805893,0.26230701105498444,0.3183050552400141,0.3480424409794912,0.3879035079616774,0.4379399503781448,0.4566804882920855,0.4805035919622642,0.4783137670023887,0.4968650564035322,0.494676913039898,0.4614070814185374,0.44899238457819707,0.4107548813214712,0.42457748932155065,0.4022569340338599,0.3905311805116066,0.3634743719543583,0.3574402508220397,0.3101682850019704,0.2943395176654456,0.2788308546152355,0.284419023220072,0.2540274167990889,0.21881020512433866,0.24106106378892,0.2273686945442556,0.21926395632167928,0.19080488996643696,0.18352012124660788,0.1922261579686265,0.18578794370654586,0.16421023686175915,0.14825738420136095,0.15869291144126133,0.12804740446241447,0.14455453547186714,0.12517306866992894,0.12180440796946193,0.1240677795017248,0.09044102441780633,0.08839407938335278,0.10235435963720828,0.06484754518427002,0.10043358933277197,0.08454591348818208,0.0846522219631567,0.08517772711910476,0.08611760603539027,0.06670609259732163,0.06326841269208204,0.07579855339190669,0.07314940946883729,0.07607478996569858,0.05861697424107295,0.05190928386949796,0.055943971382509984,0.07071302976522602,0.04949700834571113,0.04937868941398161,0.0495886678796869,0.03454742108538435,0.061336988999261786,0.02614522973539676,0.02238460912441164,0.05004513439639024,0.04683514894211067,0.0075541685165839935,0.025613931899821644,0.03872226031034237,0.04686839881326551,0.039661140209698784,0.022279430937820883,0.020662536435529552,0.003658188153662732,-0.002794563179718741,-0.003897461085624882,0.005528275051146475,-0.0056691091798844705,-0.0011697145879575655,0.0034456033195094447,-0.0022137705156605085,0.018172695557533945,0.02307380360296814,0.033239816737299484,0.012329460118262376,0.02780387923160741,0.027751183409619653,0.0433014121868679,0.038112785099388785,0.02774459843970796,0.02256582861007045,0.017374925310664226,0.012160354738889082,0.01729075487022809,0.011993926920260635,0.011828490935276716,0.0012122310338016187,-0.00948648117631922,-0.009899280148395513,-0.031177933730865057,-0.0214312001188715,0.003763443153531038,0.0028799078845248233,-0.013706619681373879,0.0007099375852968548,-0.005775498257876361,-0.007216068807669835,0.017145503685119662,-0.010545274704512851,-0.0072489745120857905,-0.009298138978185438,0.014447058551795572,-0.003485129145077372,0.00956697028455313,-0.013868131530271631,-0.011508737636486641,-0.01449416148292162,0.008318928727929342,0.015413431169943112,0.0016031077068379342,-0.007157580906693855,0.004705559415791401,-0.009514149185336395,0.0020890491032403776,-0.0020005139353779797,-0.016587353026141862,-0.00014488756069266906,-0.00456728900652443,-0.0038967751714875493,-0.008506035255461767,0.012753646346154569,0.0079897240896324,0.00835165788469094,0.008657962407943705,0.04005801586219985,0.024708437307001216,0.04046952530246034,0.045828480360338174,0.02522294727654406,0.04613241092626531,0.061853384890142964,0.04644266939218315,0.03104817797937257,0.0208669453535758,-0.00485479565600738,-0.004589364638643819,0.006099957432081874,0.011650325572225787,-0.0035011357019430643,0.022934579769541445,0.02349357759566225,0.029324305913248312,0.024863931454045432,0.02569025028639991,0.047380934159000604,0.043231974453025165,0.054771324193015086,0.07162542698008982,0.04189941794790758,0.027880919282801668,0.03995605041046568,0.02622923943573657,0.04379743053665429,0.03557459156525155,0.032706669934443315,0.05595917653147688,0.04824551881492473,0.04071102299551182,0.043740256750948885,0.041766937572056594,0.024414693574727003,0.022827978651003982,0.011059702029558721,0.020254081389073853,0.019273727193461748,0.023692312573422837,0.04389328496466652,0.03316855075143424,0.043422254052287605,0.06946695055312907,0.08016433219681582,0.06513626089687227,0.05552523235600152,0.05652276996382735,0.03698921419932645,0.0851575974337905,0.06608520605917484,0.08876497901813256,0.08572512773121634,0.09848613564753847,0.10628650567431297,0.11950502424620525,0.11218904108086712,0.12066686028708895,0.1293649317649056,0.12789923140640522,0.15778638154256716,0.17231016646017833,0.17665487477766806,0.191574321541698,0.211870791892781,0.21677522512075684,0.2322286650987009,0.22188951990730266,0.2324571057056059,0.2431579479624399,0.2332174098611053,0.2545214493641324,0.2759127891253221,0.3077539138020685,0.32407502320333464,0.340425812979355,0.3827346170579572,0.3990761273425793,0.3998046739798338,0.4056528503884059,0.40102034567912587,0.4118258553094116,0.4432255523295319,0.4329018694178644,0.4794290322420295,0.5256752221696506,0.6131186806239346,0.7105732100830076,0.6986173488835573,0.6913819021821961,0.6680508195635612,0.5507131711128745,0.3860177904937793,0.25175153376219395,0.10113622305256374,-0.024375379710299815,-0.10409153558812058,-0.1017478020024844,-0.08487243420619606,-0.11060376275815967,-0.14783985678799424,0.0,0.0,0.0,0.0,0.0,0.0,0.0,0.0,0.0,0.0,0.0,0.0,0.0,0.0,0.0,0.0,0.0,0.0,0.0,0.0,0.0,0.0,0.0,0.0,0.0,0.0,0.0,0.0,0.0,0.0,0.0,0.0,0.0,0.0,0.0,0.0,0.0,0.0,0
0.6647643097061834,0.7403377227536434,0.8608988847664963,0.8899125786499162,0.8671105677978199,0.7924169726579354,0.6998686010251186,0.5438919118427705,0.34714391051122234,0.18914058780452603,0.0243004481439644,-0.10198022201887064,-0.13861908725130082,-0.20510923849939489,-0.25034548339609275,-0.3312403833799086,-0.2431188748353456,-0.16224784869346154,-0.12271683750900512,-0.09605208497449064,-0.053768176682868936,-0.029918448595626358,-0.03580644676415172,-0.008812658703952847,0.02839327243198528,0.09863190455987876,0.14511726686298962,0.16223842971500865,0.2012454427365719,0.18829179372295074,0.16893954439209038,0.2114944969362785,0.29328288111683204,0.3120234824559909,0.3871942689113813,0.4563141928567203,0.4910172935943489,0.5027385222389389,0.4972242043353662,0.5200213451191916,0.5086372245217227,0.5029275910674448,0.4858839452614408,0.4746122958708058,0.4520991993429411,0.435445861963736,0.4190065475897711,0.4085056838149729,0.3926070917505461,0.4054619138459003,0.40729911323172224,0.3526594552458015,0.3552944422635451,0.36974103982990014,0.35053443701760223,0.3318143609607797,0.3136017632214076,0.32434678870629624,0.3128916275468477,0.3019970644237846,0.2632467852097396,0.2592016935252711,0.2841873309570755,0.2415492153501338,0.2563920924625637,0.2491173629065984,0.2595347254838966,0.2592185876093666,0.2538590819242571,0.2320865335268948,0.2507640440201326,0.2416578039409398,0.24456998918929784,0.2594983739928721,0.21820546392944626,0.2230375815847738,0.21712718498410472,0.2175258332480449,0.2185393179279638,0.19741383149608047,0.205314690011288,0.19105515376341886,0.21717086613541475,0.19835608266792146,0.1800858941637977,0.18508971771217686,0.17354819465611385,0.17387508669001114,0.1519354124506902,0.1645720489327865,0.17196221523729766,0.1456546485716326,0.13111744261538796,0.1340147693916216,0.12589312243621031,0.11810151859447962,0.11061600427948697,0.069295012496729,0.06803366235491258,0.04425863488781001,0.05480585111076941,0.04278760107940503,0.01386377613668332,0.0078110765875337215,0.0018582581013973712,-0.021079792224339547,-0.015540321266973472,-0.01566496009013139,-0.03853535197693594,-0.021625265272709374,-0.004755876164239904,-0.010687794988130878,-0.028064157372782103,-0.005723890222773607,-0.0005404935309667719,-0.029583730137355886,-0.030316924768457917,-0.03117931942967466,-0.02649025311858689,-0.02762461424741356,-0.01752392223768734,0.0038144163774286102,0.013649977904071771,0.006300831026281722,-0.01822885333846356,-0.014445571910217303,-0.0050881354679014855,0.0041645289888774546,-0.0037383631332734775,0.005327917099559663,-0.002745592034147373,-0.005206174062224482,0.020699148318741718,0.012431289748780772,0.01548830055541236,0.02419263455975557,0.03855283862475445,0.03583265671686838,0.027412662938331403,0.053104104644733835,0.016250000528479358,0.0021505592279442444,0.010813350881582098,0.019501252941738427,0.005477088794004397,0.03129614156762624,0.017359404923206503,0.0034772961905276283,0.012401634452363414,-0.0013498243949293346,-0.0036529996965742476,0.022557805985538536,0.009056079874570444,0.001338606071212457,0.01078510049578849,0.02034441995895196,0.018651537829181757,0.022772178169496844,0.021341119368586955,0.00299302595425104,0.03596884251528296,0.02929672514216302,0.03415891216435862,0.01644493817779145,0.02733672423374211,0.021351210942224502,0.009866907062911157,-0.0014239558839082792,0.03297399767081645,0.01071584600541691,4.161702807583148e-05,-0.004728931215518179,0.002096300078894405,0.014837517997382744,0.01644257817785956,0.02966245545394344,0.043131019546393985,0.03979582138036552,0.04240738960921047,0.062343712940518235,0.07686554514496226,0.06891949875797923,0.09537201827054392,0.1050519643929055,0.1320802782251412,0.18214652319086647,0.20407789747902544,0.19787622289589846,0.20903166472490206,0.2432302054850424,0.26635358915370594,0.2783993664572197,0.31916694973726056,0.3147309496721136,0.33331864318851445,0.3294323238918912,0.34286517604437583,0.3792917138465123,0.3704645208897011,0.4016608873566286,0.3989434775741928,0.4362133801313824,0.4452154268165984,0.4543571665679167,0.4636130698296386,0.4786415057435606,0.4937261844194738,0.5088345932429681,0.5353040919353675,0.5446663026617334,0.5596257054166193,0.5687670339630972,0.5777307353856961,0.6035267539004303,0.6233589516863418,0.6428590257053421,0.6960864085412246,0.7545494431660454,0.8921040608197224,0.9551556006618368,0.9208868624482096,0.8403960864399218,0.7761492494303982,0.6313953526994466,0.3946720740305477,0.1739235143803059,0.042974778444987316,-0.1063073541632099,-0.18872652227282827,-0.21574116373034105,-0.3068290265458367,-0.2630218162524812,-0.1810029547589748,-0.1403723654514896,-0.12973404870224722,-0.0978754761254556,-0.06749201088395981,-0.06695588845370018,-0.05639888676964772,-0.04143578682399288,0.0178133521519405,0.08162602055998536,0.11596579021854213,0.14365752964918727,0.16478084561123438,0.19078696754300487,0.2388124714619193,0.2634451041339519,0.3443671688959355,0.3906745373593418,0.4422432804163422,0.4934581517197966,0.4988985003228673,0.4813752537878938,0.4978138680846816,0.4914139826402074,0.5020376460286832,0.5126827449211271,0.5063446558003278,0.5115055556019726,0.49978338470519,0.4882828898279544,0.5111648302213005,0.4888641140552541,0.4953396967255449,0.4623938272241329,0.4469220284777097,0.4432696361272229,0.4173488987868384,0.41467623548913213,0.3954734212722675,0.3654495216598535,0.3587424772250329,0.3526266964600607,0.3698641580114289,0.3479225201422285,0.33230483097799113,0.3230230351650243,0.32008741582548056,0.3178204704830085,0.2821122438075377,0.2925746010332053,0.30372224619971344,0.29281310240707104,0.2825929380106798,0.2673752048837895,0.28696130580158385,0.2674278969966621,0.0,0.0,0.0,0.0,0.0,0.0,0.0,0.0,0.0,0.0,0.0,0.0,0
0.6980644191372345,0.7617542311621827,0.8564802474210894,0.9189243773998408,0.8699522456247099,0.8201689127005912,0.7167843963679355,0.5649819562366729,0.31196392528070777,0.1052151773035884,-0.06063033177506254,-0.17512716955313298,-0.3332374941361644,-0.3979974556924117,-0.3799902373730272,-0.20543053225953464,-0.14836099064517402,-0.05588067784647405,-0.022795938300406358,-0.03322378987091633,-0.008031074574307316,0.03704650648290109,0.08627401514627334,0.12918699554830054,0.15004989293193854,0.17002117924137602,0.18917590609350166,0.2075882749993072,0.2464142116680885,0.3057259337899321,0.34342908682819673,0.3912171328889929,0.4438871442967863,0.4382568945763332,0.458720628361509,0.4789863810930856,0.4674892270892344,0.4717218585281002,0.4653852848692718,0.453802162079796,0.4581048217586711,0.457257986338416,0.4302240877274408,0.4297526168166434,0.4084482305067699,0.39797344972736143,0.38255274549167867,0.3780326040624856,0.3475509237442325,0.3701983981064381,0.3774852924191615,0.3852507012718084,0.3829784942300296,0.3759626171643452,0.34314176345551145,0.3372420919436188,0.3424693680069787,0.32194500073560883,0.3178486996645652,0.3143812218898558,0.3062830703029075,0.2988345109279547,0.29204361085442165,0.2911876105186367,0.29100095509995644,0.29675796887860234,0.2768368484938098,0.2734036520673903,0.27064571082286826,0.273831659043342,0.27241677522498,0.2663963037445725,0.2610347944144917,0.2510541300266742,0.24171622323800115,0.21719906135686956,0.2354687683829803,0.22272369433426334,0.20530369475451976,0.22008884660799588,0.19854484995129296,0.1933616573443264,0.22033355598655174,0.18456984836050785,0.20200543605929672,0.183018264567894,0.1750226248500181,0.17272521758347842,0.1655612008135017,0.1587768715176026,0.15234703134783287,0.15151635559134535,0.1457167552417602,0.13492071874983644,0.12437067350201547,0.1403910423589793,0.11443361097778768,0.09390414848837693,0.06295984161912574,0.06373475029171459,0.04876127179782008,0.03381949498887015,0.013606594832099429,-0.011909755283273914,-0.0058672773647959475,-0.0420865799018909,-0.030997020889417408,-0.046414653200359285,-0.03038589700425125,-0.04090744850666266,-0.02528909934431736,-0.0467914403744196,-0.042176639522729965,-0.03253309983951072,-0.033674550074810815,-0.05087029329527737,-0.026138423251797226,-0.012176218926024378,0.0015695340840991682,-0.005970798195321991,0.007381152647649075,0.0047443094588994145,0.017756235931514226,0.025347796842445692,0.03280310578475912,0.003240809456866975,0.026275411008658718,0.03867203932167772,0.056255704692290825,0.06322721893991698,0.0648697826832856,0.09809028552178284,0.09965260983616812,0.10119216290602766,0.1079905161506054,0.10951673246995493,0.11105133736992484,0.10206230621432552,0.09309972918811488,0.1052545212036366,0.10163978896054417,0.09280412056101177,0.11564893350556185,0.09112049584602527,0.10882585801223964,0.0897102542088888,0.0917557300172895,0.07280119959777429,0.07501579864336289,0.05623761852973954,0.07971772594276692,0.05585754831591605,0.04263680503886831,0.040057593499519206,0.016497792784987496,0.024665762005761174,0.011856427394193023,0.03077794224299697,0.023454382654120243,0.010969683631676844,0.009136995388409121,0.007416075691347981,0.03216130925875755,0.020125695897727704,0.013475424997973443,0.01748191268452003,0.011063170107974885,0.02057312868450912,0.030200324358774462,0.0135918551708621,-0.0028986566461728924,0.0018116756619901905,0.017182009105302085,-0.0042231810008748795,0.03246851777415782,-0.004508784273425193,-0.004470433294943253,-0.0043100376520500685,0.0012445591404327062,-0.019428749614949663,-0.003080061488193282,-0.028765651343462432,-0.02269214337478092,-0.000664776870090765,-0.004839972961006289,-0.008855411872377657,0.03473435604621102,0.02579693116446299,0.04867310336135194,0.06120751306418954,0.06868056500989811,0.07637235789783386,0.06847997694669418,0.08190680070797195,0.11666119269706578,0.14639776929807818,0.14477056358914767,0.15395155441252772,0.1739466566019849,0.19949034771405508,0.2042335654941566,0.1934502553527203,0.21457868168801852,0.23599612885516785,0.27878548351046195,0.3007804420960475,0.3336026523990732,0.37197758566826733,0.36319303746396936,0.386301631445054,0.4254821599549545,0.4385581462316541,0.44132832881637984,0.4654012560180036,0.4580525891924156,0.466698345558939,0.4860455768793647,0.5055283339042972,0.5198489046759147,0.5289777171141842,0.5381532674140073,0.5367994043233243,0.5565026259794067,0.5972227414057523,0.5956687668792261,0.599230750471615,0.6289424243135789,0.6215038440706884,0.6506492762023149,0.6846965292594375,0.7130428286244883,0.7672473163529215,0.8788655692860472,0.9055172998864608,0.8787498544310436,0.7984820464934266,0.7384176411703881,0.5614297103701309,0.32013166461316084,0.12511144998547527,-0.023728605993881297,-0.21081748167445227,-0.29394319785149325,-0.3258884458794674,-0.35940799250904204,-0.2469402793490989,-0.17821232549458088,-0.12155965489663255,-0.03475952629655757,-0.017885673293826967,-0.01815916926861367,-0.009152726059420458,0.019750667057955543,0.07389822279723499,0.1059303799242163,0.1580885555443801,0.17247095424159453,0.19658834054612087,0.2199732739194049,0.2479693334395657,0.2806483307988936,0.3497048429597637,0.0,0.0,0.0,0.0,0.0,0.0,0.0,0.0,0.0,0.0,0.0,0.0,0.0,0.0,0.0,0.0,0.0,0.0,0.0,0.0,0.0,0.0,0.0,0.0,0.0,0.0,0.0,0.0,0.0,0.0,0.0,0.0,0.0,0.0,0.0,0.0,0.0,0.0,0
0.011660148100671978,0.024025911367219557,0.03326838363558398,0.03618274892244715,0.0424123031971802,0.04875188322080208,0.0455719745455119,0.048939375553307664,0.05243616975075152,0.043220056800224116,0.059841587361687376,0.07982177409543326,0.08389340002746899,0.0913336839587536,0.10857114692863833,0.1131252271451879,0.13069586356551036,0.12595310762119236,0.14065602703214775,0.1555337378533664,0.15131465285970302,0.1601195203357527,0.16267521881441613,0.16540438282020728,0.1586684856332864,0.1777971475430258,0.17781745615507286,0.17478493198872258,0.18796627604964133,0.1948704109613608,0.2019139456788992,0.2219366539525236,0.20353590848973493,0.210942476966232,0.22166023088957,0.22604026534952715,0.2240687758556825,0.2285791060108957,0.24276727035319154,0.25055572308315305,0.2615622611542262,0.2629189417256788,0.26745307073468744,0.27835443080276434,0.2859631889914607,0.2838301901638252,0.2976255451034803,0.30804897141197113,0.3118590464313765,0.3218731551271777,0.34448298402231964,0.3571699841111048,0.4016552754459525,0.4522047311826722,0.4895063553480001,0.4781855430767564,0.4342583551504145,0.3994350180119475,0.3126373604556925,0.19629902301584504,0.07285208303979827,6.0401690000975295e-05,-0.1570366985506262,-0.18970845112042026,-0.2104161283365432,-0.23202882343009235,-0.1003680222700754,-0.0723780734147137,-0.05166613735840719,-0.022134238019877617,-0.012648465065923922,-0.007103831379606938,0.02345413005480161,0.04373916964397362,0.07307010327601221,0.10506897155395732,0.12050917143572452,0.1483446181391497,0.15649930243682567,0.17071372570398846,0.17497070236188722,0.2239177238834835,0.2565669022367595,0.2890188995687223,0.3148886081763051,0.3117291273936836,0.31490923443772656,0.32125131299584303,0.32436410263561805,0.3146426670944195,0.3113890744519689,0.2985710542644816,0.2954875444529713,0.2893152943466613,0.2704416454107049,0.264585257843954,0.2653427439005148,0.2406128363189893,0.24501881961286046,0.23039654887456926,0.22888239344375585,0.1987339704833227,0.19778190952741284,0.21319031581997586,0.190365401237939,0.18392267721081434,0.1778111727207664,0.168827275431181,0.16340269267053614,0.15833207890997694,0.15683341075448895,0.15248766442770748,0.14529917113351778,0.14169563878478678,0.14167990965122193,0.1452541175243369,0.12993520078053392,0.13105662385136144,0.12613394916663032,0.13122691875685458,0.12384980909897995,0.1232731449928328,0.12307027539997895,0.11360186334260736,0.10771244350709283,0.105397704275886,0.09380451717461236,0.08898785290324293,0.09415393484455528,0.07396370655824007,0.06695524102830684,0.05706105866815061,0.057121971277828025,0.03500953132097611,0.01962432755076108,0.010958147509825742,0.002578541471871352,0.0137495615090766,0.01234213362248318,0.01119608909645126,0.0070908496364134955,-0.0031942190326428818,-0.0003952996244155754,-0.0005810367119646615,-0.016607967741234436,-0.009939461781251536,-0.015914910338100375,-0.03132792578517345,-0.011213704121906809,-0.010178621977994984,-0.008950390487247805,0.008532176611960898,0.0069380026899236655,-0.0008829879391719931,0.0043432334961516885,0.006558014341056121,-0.0006611110545092509,-0.00446422368875544,0.007998658245656699,0.023881384068101825,0.0399739718256189,0.049854250584674686,0.05352398868918057,0.06704505308005433,0.0647221386207959,0.08510099642267724,0.08642531464498036,0.1008159561359982,0.09615196014441296,0.091704975017556,0.10674616834295804,0.12200141429945212,0.10855984461407377,0.1178117203480838,0.1272691595695268,0.14335231745071236,0.14036001708163345,0.17289210413199255,0.16385286995168005,0.17747680267074786,0.17842341437168985,0.1859565125050687,0.19043038624150807,0.19825874283732856,0.1933698503813563,0.20144789012617734,0.21284331116495525,0.2243296944987065,0.2455278352064993,0.25072464140875844,0.25596269804420724,0.26764712770740595,0.2761214253111654,0.2781518866799612,0.2929879140467052,0.2981206144274021,0.3095844647823079,0.3273521036003479,0.3385463431535153,0.3399245676742409,0.3603631643997578,0.3677074990450752,0.3844063182614621,0.3879375561315653,0.3943220595902635,0.4292149446056096,0.4508158944886692,0.5168966032589929,0.547107519189628,0.5028534105280797,0.44832253634111696,0.3898833891027219,0.2632366890538543,0.13256398996460206,0.01707655539048208,-0.12183226625867265,-0.21034677687799064,-0.2420931653439949,-0.2235259158840124,-0.17392479216926987,-0.1382448794981997,-0.09718334884094072,-0.031424237904078625,0.010904186977251096,0.010585270933381331,0.022279904767702884,0.05567995232612538,0.09799267903947123,0.13321300236514924,0.15497155851812847,0.1825948742375807,0.222560423110278,0.24601200043845015,0.2722733323269895,0.2949703582315711,0.32700007368311923,0.3587735123452044,0.3839121424546797,0.3960356383808361,0.40161003322685945,0.3974631711967883,0.3868450275917985,0.3794277295445133,0.3720331916678105,0.3582693618622681,0.3542268148780689,0.3406615688084159,0.33687270549626,0.33646104688749306,0.31696538269621993,0.30731593350974085,0.29147236105731644,0.28872555579871034,0.2733959768007545,0.26477161353362844,0.2596546014720642,0.2323612652171631,0.22787216171736,0.2269252946417264,0.21989373701948045,0.2228459838425824,0.21330459575048466,0.20733585403654287,0.19209634730826716,0.19328646237771968,0.1852125123967961,0.18072467896890265,0.17661186976662402,0.18251036713375768,0.16308659632362602,0.15688367023170868,0.16068698186302954,0.0,0.0,0.0,0.0,0.0,0.0,0.0,0.0,0.0,0.0,0.0,0.0,0.0,0.0,0.0,0.0,0.0,0.0,0.0,0.0,0.0,0.0,0.0,0.0,0.0,0.0,0.0,0.0,0
