0.8845633035784307,0.7162966097640504,0.4263691527590758,0.39163437528643297,0.4152968868233055,0.1421235830502454,-0.32420335571664805,-0.8308327425163354,-0.973570702836614,-0.5502866040242564,-0.04167006397114463,0.3775864840715423,0.6475239057886986,0.7846674057861275,0.8219288568043888,0.8687024351003426,0.8704791497437141,0.8984016104082377,0.8815622245014278,0.8583149457846473,0.8233029048633761,0.8257979599493153,0.8003385124596455,0.7797982693474584,0.7478772186104277,0.7374411665177355,0.7048659530991401,0.6939365618680878,0.6664849232368338,0.5898027998529188,0.5349813583830727,0.5184757972990758,0.4911790171487762,0.4640776472000801,0.3825962378086679,0.3287395668943593,0.34626738596911977,0.33142865105851466,0.32251643672165003,0.30318914119342644,0.3390530788979855,0.3809837080337677,0.3743914896157236,0.3575611123478791,0.3578487891406217,0.38075573742639696,0.4372446873117997,0.472716842107597,0.4926675400001651,0.5025897555916694,0.5243639059008603,0.5306981777348553,0.5434678533440972,0.5954721653243302,0.6102415905701312,0.6041797612228655,0.6264670697245169,0.6388680569287415,0.6577771505347975,0.6613424704749933,0.6659519612225497,0.6606737509478603,0.6782790534062721,0.6805128540491424,0.6509699546049409,0.6551912830092933,0.6876915874128162,0.6501062074020958,0.6571358189114872,0.6213356763747926,0.5590604849905251,0.5194416547873856,0.5079013851468906,0.4588363533070477,0.4377599430332185,0.3899906017109089,0.29362439943447866,0.2578747023795604,0.2335176529750341,0.2314244253753129,0.21329530888368986,0.1899991529441864,0.16694043860618438,0.16044930075949093,0.13768532232886488,0.054880680156371126,-0.0006138913082565983,-0.007007555035825617,-0.040848850203179424,-0.04756640423515237,-0.08731430419580521,-0.11643938189699066,-0.11859668388213793,-0.08289349687149107,-0.06398546391746561,-0.050960730173133885,-0.04929126792678108,-0.042591000524945695,-0.03632237631609325,-0.019553891749354218,-0.003203800320489084,-0.04189491325030232,-0.020887377937621826,0.005200278774537188,0.014531325852633984,0.023512119688398985,-0.02247398091830212,0.007708530487028672,0.010275312908990841,0.01802453476190661,0.009121293902583151,-0.005489590426275857,0.034306372674418384,0.019261836153899592,0.014954942808578746,0.03779402186283106,0.022237798994892,0.033864056947168486,0.08361744809212181,0.09502962479240827,0.07358135009486895,0.07938593107917119,0.07421687239252149,0.058090395179135834,0.06926546292553337,0.08044112564911705,0.08070599279425986,0.0646115735178016,0.06495208687328306,0.08174161734780741,0.10406732083185304,0.09369943491733687,0.11074711138528152,0.11151629707572948,0.12879861194649664,0.13528879727486812,0.07090113883649883,0.08315471885066822,0.04640316912621008,0.053531782422164866,0.02806326002078162,0.008249375825392372,-0.016827953839825868,0.023862674873849774,0.026528603091716216,0.029422902496166612,0.03801870061800845,0.014082562528776366,0.039573505404592466,0.059867928056390324,0.0859016544447168,0.06305058617333803,0.05141953561774314,0.07286988647382546,0.07277653848646963,0.06753695198636311,0.07901152533959563,0.06350069621035648,0.08657054556710894,0.11544740234912412,0.11189386072485047,0.11415816447905487,0.12224488450053532,0.1306947189691722,0.1886807740213736,0.18693974669519692,0.20742295775815495,0.17910833957236635,0.2057984487642011,0.2437857946297661,0.26575176322720856,0.2826196351123681,0.28345815440988764,0.3065043694090893,0.3298975900094781,0.37001870701537737,0.3558341310536393,0.3583542725280517,0.3994180454088914,0.3752066277788872,0.4168211831086261,0.4313656201936604,0.4461344059217174,0.4556400388438526,0.5090258060200421,0.5570932817843576,0.5506414953418393,0.56065933262921,0.5379402841776243,0.5316144717472844,0.5580295158884006,0.5788973598978745,0.5504638550069328,0.5983343174209487,0.5804095170393633,0.6168257241585919,0.6528906456484236,0.6502988100043116,0.6417644062037153,0.6381451640576643,0.6284423968827769,0.5688744157612805,0.4921426164167488,0.5183583808901966,0.5272453461133753,0.5077905955880316,0.4872216900158469,0.5965663875893296,0.5133959511906495,0.2430767759557411,0.04774788019124801,0.05842782078565281,-0.22214480469289066,-0.7449014990058308,-0.9417389789391418,-0.4083822531792425,0.06853331664573166,0.4126404145740515,0.5748878915678791,0.6045619699130141,0.6492854319815079,0.6763890740384266,0.7023701631845317,0.7109427730666437,0.6912807673988622,0.6981140781985617,0.7151462561440444,0.7042241536708409,0.6654341609098661,0.6152490526255513,0.5756015783296186,0.0,0.0,0.0,0.0,0.0,0.0,0.0,0.0,0.0,0.0,0.0,0.0,0.0,0.0,0.0,0.0,0.0,0.0,0.0,0.0,0.0,0.0,0.0,0.0,0.0,0.0,0.0,0.0,0.0,0.0,0.0,0.0,0.0,0.0,0.0,0.0,0.0,0.0,0.0,0.0,0.0,0.0,0.0,0.0,0.0,0.0,0.0,0.0,0.0,0.0,0.0,0.0,0.0,0.0,0.0,0.0,0.0,0.0,0.0,0.0,0.0,0.0,0.0,0.0,0.0,0.0,0.0,0.0,0.0,0
0.5954955050570457,0.5450703614645633,0.3928476694974061,0.40175048214818704,0.4577416145844781,0.2670692079068545,-0.13527820503867116,-0.5433672329163002,-0.7205689827850946,-0.3381549912900065,-0.01849049646811484,0.20344497744461387,0.34527249168193963,0.4158456187739753,0.4590820908034157,0.466298731752299,0.4726424275860111,0.4913415540793775,0.513705945098185,0.4696776774491282,0.4513759817662403,0.4281871395925237,0.43086047594239296,0.4243946388038629,0.4263849507351297,0.4062090191880134,0.3814579128227627,0.38287037647267,0.3710514758513816,0.35920319119322264,0.3123100543419572,0.304935694609897,0.3546601151471399,0.3563311937226665,0.3538250499438065,0.3471836643681197,0.3364472484279156,0.3172710418978014,0.3072247810130434,0.3151101441749375,0.3146613877458336,0.31029384271302146,0.3283374454537528,0.3293720447853635,0.3484908554074246,0.3506536733292006,0.32273473080257964,0.33927122159868583,0.3564513608517253,0.38306049621235777,0.3752833642018767,0.35943455786917683,0.3925094440219927,0.4306871702895259,0.4213784502749983,0.4215727376302836,0.4225088430243022,0.41542346926228596,0.4178506210415325,0.4166395757663319,0.4249369360241497,0.3989051565926309,0.3867525180917239,0.4103858921793131,0.4084287377024705,0.4159336478451702,0.38466969459947503,0.3759847637737127,0.3767098102582747,0.3429912588440729,0.34055454425747056,0.29924307834775216,0.2672459351547446,0.2270021564121809,0.21354827649668004,0.1830214514652362,0.13539012702726236,0.10130448396057527,0.07634814017731538,0.025421556891542067,0.009855999842977137,-0.027364757299706038,-0.05120903962085036,-0.02225933681347506,-0.015057402935719041,0.0010547803363996863,-0.026544817268080768,-0.02774763059138002,0.001808891191220693,0.013891106056784557,-0.0046687511470398756,0.0030932568019475504,-0.019822618566577587,0.0054641667315606345,-0.008726918267143497,-0.005429652447484586,-0.015341700424624566,-0.016561382124181234,-0.009101738707132484,-0.006123945221294908,0.0230440453444935,0.008260439770447736,0.0152636375373403,0.013360810557381564,0.0025417046002552657,0.004712177328492747,-0.010820755176459449,0.008531378654181005,-0.03367193677798621,0.011589941677032516,-0.009102410014004794,0.005059199049999472,-0.0072958978579706546,-0.011107206494563386,-0.006379425421171371,0.02003350920357038,0.024296202654500047,-0.011127425524809085,-0.0029591552660538888,-0.016949724534431172,-0.01365193243026378,-0.028131975399506345,0.009742904790591013,-0.03590394084042585,-0.02042212266720545,-0.00516991994088351,-0.00328807867776048,-0.0016174393154614792,-0.008914708621037833,-0.007637025268525134,-0.006540095470920586,0.011920514512459958,-0.004841912098711547,0.004549977536547652,0.04449193162892821,0.0492479038091507,0.07581222595092141,0.0584483829857833,0.04976684574741358,0.04977896395501245,0.08041201719045216,0.08907802857132265,0.09332039098521018,0.06684969453575634,0.07104077751225138,0.0883699006466701,0.0969297337277192,0.10549515487026373,0.06585849292855786,0.056925385723105335,0.07870289847310291,0.0961319258557773,0.0829194405126238,0.06537076329806964,0.043491386033058715,0.05673559533913965,0.0481262741145675,0.030817793409703,0.022347519382916275,0.02271972114608972,0.018788848855367912,0.028091889243950875,0.01995014196761257,0.016283595095242073,0.008329486769357634,0.01362438815078258,0.0234054143166255,-0.0017730379536069019,-0.0005422669017360733,-0.007964588597341142,-0.0021202029827034397,-0.03998679667302985,0.005554046189721904,-0.023285782850430585,0.0006159030400083737,0.0071378945717986845,0.02697340138192841,0.02506706132721024,0.01896220627001146,0.043734985694913485,0.0204973250515824,0.04130712495058165,0.00974304672250267,0.03539562491317927,0.0481426800386252,0.11374216355751406,0.13577206385805374,0.1493068727990386,0.1499712817245222,0.15092217840171526,0.17846540795955962,0.21507370352230412,0.21253625571149626,0.2103058945677683,0.2083852657960531,0.23307537800809075,0.2361611903198294,0.2570912112579302,0.2344983465373587,0.2428945243378091,0.24720960686273905,0.2868872494124464,0.2874057420153108,0.27067312652982817,0.2673624792645444,0.27746287298671146,0.2965788079118047,0.3071636897227939,0.2829029697298487,0.2676123352547722,0.3051060591045185,0.31646647532172184,0.3060558714669429,0.3308337816409276,0.30749466600489994,0.3368272316051417,0.3442892184393984,0.3868337545506622,0.381148702875668,0.37541706436378186,0.40028699126333495,0.3812071009922126,0.41457020336917016,0.4039048296447309,0.4368333392723677,0.4300298783455784,0.4667293668876108,0.4548351451971146,0.4863441209798707,0.4384723765363067,0.4075953494152518,0.3805053913191481,0.36152575893121225,0.4031933995408843,0.400246966191125,0.43151899701186336,0.5889897361163376,0.6665772397449499,0.4976457408438434,0.4152450137622991,0.5288773219125052,0.4352042709741049,0.07277720991178252,-0.370010251186464,-0.7573636949912486,-0.5940282225701501,-0.2437911903582312,0.0,0.0,0.0,0.0,0.0,0.0,0.0,0.0,0.0,0.0,0.0,0.0,0.0,0.0,0.0,0.0,0.0,0.0,0.0,0.0,0.0,0.0,0.0,0.0,0.0,0.0,0.0,0.0,0.0,0.0,0.0,0.0,0.0,0.0,0.0,0.0,0.0,0.0,0.0,0.0,0.0,0.0,0.0,0.0,0.0,0.0,0.0,0.0,0.0,0.0,0.0,0.0,0.0,0
0.4349240565555417,0.3858388078474662,0.11619021522067342,-0.24699623009930985,-0.6205279752318343,-0.7502428088185648,-0.4389016339554613,-0.0283320766154023,0.2404943548897027,0.4115191668549327,0.5549820775398723,0.6183901469056284,0.6632117892268025,0.6807805549971802,0.6492769714334596,0.6301596408977868,0.6410515619736485,0.6250575748768652,0.6304769723105702,0.5916417924661388,0.5524618146345881,0.5480773884192118,0.5391110935447682,0.530015126742874,0.4945563390140172,0.4722474673737541,0.4499999471833837,0.4497887384819097,0.4322212509572771,0.4324176529232015,0.38906476532077977,0.3767275549236294,0.3647713854364171,0.3883082730167372,0.4035501666564139,0.4017729597209476,0.4224661209581867,0.4437518098998588,0.4130674235714257,0.44002786259636506,0.3975512323345085,0.4346972895873242,0.4506793662554498,0.4718224571950998,0.4674672392537148,0.5121496879115731,0.5138404832163112,0.5383042310848111,0.5855544321408366,0.5679371806993933,0.6081909587935727,0.6142728575409359,0.6256339992856541,0.6335068418744294,0.6335039507233476,0.6080850164961442,0.605455098427504,0.6212173864544669,0.62905586454168,0.5982681748274781,0.5770470574797154,0.5653666681921908,0.5938809275990763,0.5529773858410383,0.539052703404972,0.4950875250125382,0.4561077506488638,0.3913882687707485,0.37101610930198187,0.3379625087829855,0.2614962631099154,0.2292318433296477,0.1753691621294378,0.1524543510005887,0.09030206388594827,0.037073557419872935,-0.01166919214616142,-0.03844821523156623,-0.02140119794311828,-0.030710124334131055,-0.04012375907774992,-0.0716035425184902,-0.08574180289243227,-0.07380671627477862,-0.04897449196635751,-0.04194727058747146,-0.0615063614847856,-0.05506378866293701,-0.013858090416023329,-0.008020817287061461,-0.024400724252255868,0.002753024562393051,-0.022986139257376317,-0.0183321325763628,-0.013960817800019268,-0.005480429866162429,-0.014797291871198813,-0.006835141658755524,-0.003498375941673793,0.03905779399636493,0.04194788851474968,0.03148389042902284,0.012061394118383494,0.014375250978859071,0.020904658966324863,0.031661687117921514,0.03350859272935447,0.039606889224174574,0.0499682152648281,0.05145430426117482,0.07475899717579944,0.04099498421526144,0.042220775626960014,0.034614368762588985,0.04448532170004573,0.049927426312202296,0.04656719500284268,0.025647654799239014,0.0222439572864897,0.04074847563575769,0.05048758588337825,0.047086874759589205,0.03055491229607884,0.02719944752644246,0.06332807670971376,0.060050602362565327,0.04805740384578957,0.04927208878840672,0.04616890287799645,0.07820391005363629,0.05771910696786525,0.0636190573501171,0.05646067137102701,0.040632898499744635,0.029290877380822918,0.031206307754942274,0.011318385514594563,-0.02598472782484585,-0.028099334206750547,0.009365139841470756,0.04696957983535671,0.06280776742226728,0.05688942809856368,0.06867309497619109,0.08940142358677247,0.09278378313893544,0.08321174600985053,0.05630994917901221,0.05591820670036625,0.07766045794493093,0.07771124103826929,0.0736100061549765,0.104811993610343,0.08804147496698422,0.09781868434523276,0.09908252217354246,0.12690317161702766,0.10676942694368803,0.12634917026273051,0.1286629704366825,0.13562900789106264,0.1691648197365373,0.15913931441175,0.1713008624520303,0.1749658524297721,0.19204864528561905,0.20063036973715032,0.17002472277995903,0.20104147043919326,0.2191600990411815,0.281356161886304,0.2473585082023392,0.2530384320172051,0.263319796730453,0.2825743222038952,0.29325623300345915,0.3128842267385023,0.3151431773434159,0.2912493372889779,0.3376150410752024,0.33587261572578986,0.369281544200722,0.3720696149579764,0.35736101335665243,0.3864936575409558,0.4199892568442824,0.4315172953498801,0.4166613358916135,0.4279848483288125,0.4566839188628048,0.4676530793343955,0.4915331142554977,0.4844474623031645,0.4682656405795802,0.4955373941252779,0.4916962902105636,0.4610716617276142,0.4299065617840565,0.4200585023898281,0.4577660817614374,0.477217847295898,0.4827318293898962,0.6013542730535266,0.6138533862267045,0.493856742610706,0.4998991696995859,0.6187524098621171,0.534742439953993,0.21710246612856696,-0.23782314273098296,-0.6416431527268266,-0.7138957862355922,-0.3713039178065045,-0.003912061742150984,0.2524982144111214,0.40679249415237606,0.4941345129258853,0.5496859722134506,0.5823066883880277,0.5920872579139509,0.5659656585039716,0.5610086792646345,0.5466155646865882,0.5579312903077873,0.5599663267582795,0.5352612979691816,0.5233360926519184,0.4935761513813423,0.472346362663783,0.4816259113854336,0.4469604344343099,0.4253902327502759,0.3906718934227995,0.39545811989902735,0.3872020045215156,0.3834864341723031,0.3492935308508438,0.30658556373636264,0.2992392342373308,0.31414764622245905,0.30751975718862606,0.3100779614639413,0.32624370134144803,0.3385206900274805,0.3513271882067677,0.3822294711787281,0.3698938142979966,0.0,0.0,0.0,0.0,0.0,0.0,0.0,0.0,0.0,0.0,0.0,0.0,0.0,0.0,0.0,0.0,0.0,0.0,0.0,0.0,0.0,0.0,0.0,0.0,0.0,0.0,0.0,0.0,0.0,0.0,0.0,0.0,0.0,0.0,0.0,0.0,0.0,0.0,0.0,0.0,0.0,0.0,0.0,0.0,0.0,0.0,0.0,0.0,0.0,0.0,0.0,0.0,0.0,0
0.2278766693334835,0.08744227000626742,-0.1811498604164152,-0.4325990563730948,-0.4882763810106413,-0.2240208112008939,0.03618986388338335,0.20460484979956786,0.2964346356891103,0.3541431929868749,0.4050516191114011,0.4249985084985671,0.4443294409614809,0.4509919741598991,0.4359597224750026,0.4295716641202808,0.4470232056674647,0.4368854817201223,0.42949090771878107,0.4218586526216387,0.4110057379323545,0.3878905191240653,0.3586106884843649,0.3262337204796217,0.3150232451031663,0.3068453640189181,0.2956777172490877,0.27852468895769483,0.25541746328880205,0.2354706668689145,0.2338542059744793,0.23848230421094646,0.2281831808068481,0.2211514813713751,0.20832620528015164,0.18973008125728213,0.2017241368193949,0.20798976998561156,0.1964335971034028,0.1852439782576816,0.18958001299674587,0.1852322558568227,0.2085558808466583,0.21111334149210148,0.2201730077553269,0.22666285360825125,0.2457359791067859,0.2531767322003945,0.2611075725821957,0.2725648589557595,0.2542443040632425,0.2636886088813826,0.2766756872124091,0.2689821344155067,0.28300528658126645,0.27937761893661894,0.2732392023173878,0.30092665925170553,0.3018703382755596,0.3033191559818873,0.3143508494001597,0.31678713364640504,0.3257592141373257,0.3018877017186305,0.29361165113020404,0.27063337008906313,0.245049595414778,0.2228991540228097,0.1981065341061256,0.1676233877305521,0.15868316011553704,0.1561225612027808,0.1599188993613292,0.13673764029250085,0.11683729584433065,0.09413635375310173,0.08072238778039313,0.07354110916286914,0.07862266063114279,0.035374693100438934,0.016448712592363808,0.003647697196182325,-2.750866199925913e-05,-0.00974574900633582,-0.028562751773142582,-0.03227881373491635,-0.011832910045881473,-0.0005568465337660518,-0.02269646979395626,-0.002564387356654057,-0.006800133913003085,-0.04147743316476416,-0.03393412521661718,-0.02657868782500081,-0.013363921106390968,-0.027607718994099643,-0.023891468264574632,-0.008274665227655523,0.0041006283904158275,-0.010991698149293587,-0.026297043822162518,-0.026672876866762268,-0.018172115882905286,0.01738108140193191,-0.013882016027998424,-0.018076967238841054,-0.037590539093531626,-0.02093115171561312,-0.004423726817661105,0.005891586033453754,0.007003335893537842,0.008013155834984027,0.014994365544876575,0.012822296064116166,0.022711543885325938,0.014395909122952319,0.012118088969047869,0.04314898700474863,0.05905248700501591,0.03561848394890959,0.030400093506042537,0.007073623826102992,0.023191860485816455,0.030317810791767662,0.04057993346382262,0.04188030868375975,0.0705732676317573,0.06610802429031575,0.08300801778350672,0.08494800563640446,0.08708306260069057,0.0682284982644682,0.09199098112214478,0.08267603356869346,0.08874813115797876,0.08296437684796737,0.0865338837540373,0.07524117464024425,0.11269041229147185,0.13832597017293333,0.12490272035270154,0.11482524574746986,0.13232783454855446,0.1380503550798299,0.12594307608091912,0.11721008135733225,0.11488515478742367,0.13411460767365788,0.1658179499436917,0.17365951563448076,0.17278354195992732,0.17833339783635527,0.1781970829447158,0.20265760245977985,0.21537494646106112,0.24360193748127384,0.2358550835940409,0.2436111393966905,0.2698932263130654,0.3025818558681656,0.2811037362227922,0.27812831084815137,0.308786328692813,0.3185567455853212,0.3467936028500818,0.3601706681806718,0.367755872463463,0.3665022322569688,0.3927285441325203,0.3979599778286694,0.4275963688687522,0.4331589335487104,0.4358171526611132,0.4264555575175691,0.398984778712553,0.3866809333549313,0.4167615868924181,0.4043960717287805,0.3919393279422772,0.4853381193720208,0.536161867195632,0.4444300197982009,0.4735527489909856,0.5447425487800452,0.5247005347723684,0.4042845119759973,0.11378409452371525,-0.17425085538391874,-0.3266386632589982,-0.40096263800599424,-0.2942763043190205,-0.13374425145739918,0.16244809500387275,0.4066112403856889,0.565497074568556,0.7057886405415418,0.7972612460122069,0.8278563399566843,0.8460769524174598,0.8761957472062865,0.9061418173266048,0.9147550396972314,0.9262949360573332,0.9347336706845878,0.9491801682251372,0.9696538445508832,0.9870845345269978,0.9772558329062851,0.0,0.0,0.0,0.0,0.0,0.0,0.0,0.0,0.0,0.0,0.0,0.0,0.0,0.0,0.0,0.0,0.0,0.0,0.0,0.0,0.0,0.0,0.0,0.0,0.0,0.0,0.0,0.0,0.0,0.0,0.0,0.0,0.0,0.0,0.0,0.0,0.0,0.0,0.0,0.0,0.0,0.0,0.0,0.0,0.0,0.0,0.0,0.0,0.0,0.0,0.0,0.0,0.0,0.0,0.0,0.0,0.0,0.0,0.0,0.0,0.0,0.0,0.0,0.0,0.0,0.0,0.0,0.0,0.0,0.0,0.0,0.0,0.0,0.0,0.0,0.0,0.0,0.0,0.0,0.0,0.0,0.0,0.0,0.0,0.0,0.0,0.0,0.0,0.0,0.0,0.0,0.0,0
0.4977908430592054,0.3552703822341366,0.254194982807193,0.3385552327437699,0.19739438316412733,-0.18004451777738328,-0.6924629917514546,-0.7796477478838321,-0.2495050819414779,0.09763308211525934,0.28854160225001185,0.3446588283968634,0.3994780849287583,0.4530904763210793,0.5002490897946482,0.4449924094275803,0.4154692523462845,0.4331058134323883,0.44995795198747895,0.4340874213764867,0.3909058642235382,0.3631748917646101,0.37764610111394703,0.3383408166361892,0.3413751895743947,0.3708072623206665,0.36266919161392863,0.4184078959450319,0.33531534820307485,0.2681947601348373,0.25979124976348705,0.25680023658392903,0.2325959404555029,0.2405915951984168,0.2274788743704415,0.2786847650389267,0.2448502428548334,0.23274384352386104,0.25308452094603306,0.3059180255738818,0.31658456433942034,0.3544953509162257,0.30763534067440396,0.3628048288989638,0.38664138085000604,0.4165333834158624,0.3831468929952262,0.3878985189722488,0.3827943988007879,0.4158870879965677,0.43384285068472017,0.4633661695169882,0.4884711990177677,0.50384181660888,0.5041594573561518,0.5854874145349239,0.6144376064653714,0.6016915603622874,0.5846078305731174,0.6592381814930086,0.6761745407276657,0.6941103143932182,0.7023672694993148,0.6795916627757592,0.711146636398741,0.6155909413793003,0.5209689251152249,0.5072976782723658,0.5105191503402561,0.5145969330972681,0.4928200259977489,0.4931791336092948,0.4569420991166364,0.3467183792653835,0.27452370228647915,0.2563237052645082,0.2173703149752198,0.22698671290752856,0.15172623886157832,0.04490179294873388,0.023857755018806454,-0.012838534016964021,-0.017211296340283802,-0.005315772841768398,-0.04656576798024819,0.003066213349336097,0.010139057064891543,-0.03605990937159677,-0.07153913109551452,-0.08032780632808792,-0.03044027748067848,0.014068386622492305,-0.010853991016437504,-0.04653120086211805,-0.06096610157073616,-0.08085334983990124,-0.05284151262552183,-0.05697197241869016,-0.013200495842696565,0.014450026484856238,0.02599019636311184,0.048110642661764784,0.022125546473339752,0.017413325076429863,0.0019679077032973727,0.018487414617493432,0.05097373773752635,0.06208459708828418,0.014477457825965913,0.014882011015477063,0.04196339859515218,0.06905066822913382,0.037456538579750905,0.03256591938768283,0.03837915569231791,0.08692060848067798,0.11950210915368127,0.09877913396575083,0.14215113772072893,0.14290424703304475,0.0903722353159,0.08060855874399578,0.16164204285362518,0.1573882758445452,0.13721895145658794,0.143824877167523,0.1291838366700372,0.141321252086893,0.1909097605727121,0.2085809947138048,0.21567797023800245,0.2015265407833428,0.2248197398317896,0.2321931760857316,0.2449856122467722,0.3218867890995917,0.3294885073918865,0.31580563381805626,0.30217128830928025,0.32592507136097765,0.3923889534273065,0.4428510369674257,0.4612856214088217,0.4530088713803411,0.4766948437240919,0.5376551315964571,0.5344785473968665,0.5365038509014673,0.5116827520750721,0.5720368146949297,0.5414399714611454,0.5799325463303642,0.5754151429884002,0.5598580017900274,0.5652284860143048,0.5808030007371879,0.5851830851639281,0.6049915532620039,0.5814719752572806,0.5785933532930011,0.5536013848697979,0.5704592718042724,0.5597269513026817,0.5053217069162915,0.5512386194857131,0.5906773096285944,0.5648588205467178,0.4897055201532301,0.4878573493499107,0.20171001273863068,-0.1713971584952646,-0.3434135040261697,-0.4264735706086771,-0.7567921150082396,-0.5446431876682505,0.0019353416252535925,0.3174440132919036,0.4606976821786198,0.4905096159122565,0.5510670964574441,0.6158023175783572,0.6474726779754151,0.6621926959788147,0.6707376326912268,0.6571993389311586,0.6643625303344572,0.7083285372195919,0.6664588516248241,0.6028721191905155,0.5336594744855379,0.5336052562236709,0.5761067574027238,0.5651903447604459,0.5222719415118074,0.4847727045124646,0.38339078197563203,0.3142385140392395,0.3093940855176664,0.36891799084790106,0.3541326610289489,0.3611435564918781,0.3419818306727588,0.29670101006710914,0.268041070174388,0.2934044831248667,0.362168202066235,0.3463152761127588,0.32593171823902645,0.33307763106601457,0.37846740809956175,0.37676541990288986,0.36536260157732536,0.4403442229025991,0.5056970117365114,0.5507818120419358,0.5009247009270461,0.5215698954771091,0.5860623930449642,0.6303924440850162,0.6225634879245248,0.6212881496188541,0.599899623579741,0.5797521765554039,0.6195492148449011,0.6445907493829899,0.6548779714562668,0.6183927302127615,0.6311780771499281,0.5811691971002365,0.5697389135712405,0.5648566476210899,0.5504970312057769,0.478615752813235,0.4719183840986178,0.0,0.0,0.0,0.0,0.0,0.0,0.0,0.0,0.0,0.0,0.0,0.0,0.0,0.0,0.0,0.0,0.0,0.0,0.0,0.0,0.0,0.0,0.0,0.0,0.0,0.0,0.0,0.0,0.0,0.0,0.0,0.0,0.0,0.0,0.0,0.0,0.0,0.0,0.0,0.0,0.0,0.0,0.0,0.0,0.0,0.0,0.0,0.0,0.0,0.0,0.0,0.0,0.0,0.0,0.0,0.0,0.0,0.0,0.0,0.0,0.0,0.0,0.0,0.0,0.0,0.0,0
0.12629020244851016,0.2298226777771891,0.3829081241306999,0.4760271365400021,0.5141316338709332,0.6465069771531893,0.8150569017302202,0.8040738285892515,0.6218154828633231,0.3047391208001505,-0.0028640018153657573,-0.16002221777437806,-0.2613461942997616,-0.25377750932371224,-0.11575452925423467,-0.01316217738132938,0.060664993468642285,0.10409851867504714,0.12712285737385706,0.12313162380620415,0.13694780224589673,0.14039633393874099,0.13848212419602415,0.11630098706466804,0.12696837423018278,0.12239817701944156,0.1208649495264308,0.12571134189223035,0.11207584844935373,0.1032082757401188,0.09581335088400728,0.07995915519822358,0.06893974509636243,0.06609458255489495,0.06646762265044348,0.06344345754649283,0.07529183367178398,0.07714733679192992,0.07732482501786753,0.07750264096295133,0.08267680549686003,0.08291166001404587,0.08817952180762909,0.09020293676995897,0.0889991720968988,0.08956214129030182,0.10518047505728384,0.10434848040818964,0.12026220361974853,0.12473296893797713,0.13436537518393854,0.14419597579093124,0.15589678212627608,0.16118488993606742,0.16670790744451042,0.17247650719046212,0.18845472281459,0.1964021740912072,0.2013039926841572,0.20814432824641327,0.20365696706851427,0.20775530352385035,0.2171252595378316,0.21517945873755345,0.21851008792830612,0.22048180385494184,0.2260713977934449,0.2303003639694332,0.21657583916996292,0.20812058724566168,0.20327080256459154,0.19870260645165405,0.189432071437513,0.1721333089800248,0.15841077533871006,0.1366416119433999,0.1234057196538674,0.1070787646380072,0.08930805555691276,0.07505843055830355,0.046067827086476616,0.04379897514166243,0.0367169470150729,0.023149179927087274,0.00971808971447276,-0.003590153292801515,-0.00019910295296893572,0.0032873791358076125,-0.006416484829405067,-0.012733905164392741,-0.01401877458090394,-0.020237003151268817,-0.018126715001087725,-0.020968630784255437,-0.023792392274270747,-0.021625649224708048,-0.011152823552100215,-0.002328542258100817,0.003188789374997166,0.002081954836190652,0.007624046072775831,0.014838787779803953,0.015431801651646662,0.014380894710533618,0.01002766705878776,0.00237267933448309,0.004688701559155224,0.013658167488696941,0.009373163033247079,0.006765387056823923,0.009153264476058269,0.009900991739297937,0.01896304393081449,0.0247264249070008,0.015578043709030062,0.008108237229769378,0.003975972509845772,-0.008432083473096824,0.005723624705012207,-9.136054832733376e-06,-0.009039394741225374,0.00020091784583960596,-0.0038083084383197328,0.002160885784437716,-0.0017980217642852802,-0.0024109153628226305,0.0019832644409870943,0.0014325790546925016,-0.0024016929489076772,0.0037549469216622343,-0.008298585686907313,-0.005379193614349715,0.0058802300998510824,0.0072340763580323155,0.006981225704974481,-0.0015107694469452372,0.016601419414137154,0.024822869393524703,0.03974761267661105,0.03981181120927663,0.036632077003830914,0.028552563491730257,0.038802727547415324,0.039181877635546036,0.05291913385410766,0.061767609386081675,0.05245725013945427,0.05817060151045383,0.06563703828276866,0.07485790390887641,0.06260775949291865,0.057090797496480425,0.0666025080596539,0.07621164170539911,0.09587210254750493,0.09406160263593637,0.10230060738868096,0.12058749555144535,0.13232980996465296,0.1408428798139448,0.1461233077554628,0.14318989491027592,0.1519461983862835,0.16077344297764273,0.16468822350841691,0.17031955801702695,0.16770531669852998,0.17176800475356194,0.1841570293343787,0.18163545214984286,0.17580509536838712,0.17660784054095904,0.1923256577528045,0.19639995280524955,0.20042891599649768,0.191124269021619,0.19667254243671906,0.20378350017094274,0.18257559838847656,0.14630111778184593,0.10489336128513514,0.08487522472908557,0.09949681995583526,0.1586897695509492,0.2806803608170157,0.4140147251183413,0.4458533901291176,0.4873241928802336,0.6429166113747291,0.7483544316782919,0.6675617767573706,0.44861162867118864,0.13459653434941088,-0.10198867199892098,-0.2163953270447325,-0.30322380351397704,-0.1766774341785783,-0.03748530412146188,0.03972675138776464,0.10974098852090512,0.14106977792432654,0.16029107694731473,0.1690966509868964,0.1708364964249381,0.1705187966002759,0.18476410775083607,0.18373922519427247,0.18572196119421414,0.17580856051367105,0.1689569232298907,0.15357955133372425,0.13799649131410202,0.13716315152309602,0.12289940688448155,0.1317267116750364,0.14044073782641756,0.12915456351717305,0.1227744406082262,0.11634339126363955,0.10324479133504796,0.09842885668004983,0.09859593008981617,0.10210489465145894,0.10067801071154137,0.1042863849346239,0.09469706911139504,0.09681143704645848,0.10069070781435548,0.0,0.0,0.0,0.0,0.0,0.0,0.0,0.0,0.0,0.0,0.0,0.0,0.0,0.0,0.0,0.0,0.0,0.0,0.0,0.0,0.0,0.0,0.0,0.0,0.0,0.0,0.0,0.0,0.0,0.0,0.0,0.0,0.0,0.0,0.0,0.0,0.0,0.0,0.0,0.0,0.0,0.0,0.0,0.0,0.0,0.0,0.0,0.0,0.0,0.0,0.0,0.0,0.0,0.0,0.0,0.0,0.0,0.0,0.0,0.0,0.0,0.0,0.0,0.0,0.0,0.0,0.0,0.0,0.0,0.0,0.0,0.0,0
0.6407123258889801,0.43192611478807785,0.1391420831886205,-0.14855556191085134,-0.39303500768421823,-0.5179365546804758,-0.48189245781551704,-0.26896161726354273,0.03812393081460582,0.283414635072596,0.4351555185455772,0.5348332537346541,0.5443203085164571,0.556050203910234,0.5637348235635559,0.5515298274113491,0.5386173494070499,0.5314388412394562,0.5173261745873666,0.5122688943202508,0.4876712225224517,0.4627020372419695,0.4342364100935646,0.4278074295666891,0.4179943145067396,0.4080344751068421,0.3820563446652984,0.3751380147700391,0.3427436378803889,0.3199475196124815,0.3227153649410085,0.2937682125639326,0.26817544106477464,0.2427911863394892,0.26860442302270515,0.25648574102260746,0.2510525956880275,0.23004705570771075,0.2412685198926802,0.236980802202422,0.2426895767929541,0.2647924459930317,0.2587341002215217,0.2786768217051943,0.2832471643840607,0.2788375061221522,0.2813922520093045,0.2750096014090695,0.2820001205702428,0.3214885195397373,0.3520929564402329,0.3674592746444401,0.3612315570602869,0.3557123796842057,0.3827559558164695,0.3882337290408204,0.4039962203158539,0.3886489428923889,0.3804074188870248,0.3792714533251431,0.3725010245795299,0.3823835073583327,0.3547768661715692,0.37565432438223306,0.378132236082973,0.3653836624800726,0.35331769873413593,0.3514726507797041,0.33754024642407165,0.3051328618806559,0.28289047835426995,0.2739757021544156,0.2560738759072007,0.23871378389897516,0.20276259966183188,0.1895914450825744,0.14503599361874964,0.12638781115631384,0.07948089801562051,0.052052019501976216,0.02814792043869192,0.02047541577385861,-0.015579481053789902,-0.025911943212465025,-0.02647424920493367,-0.017293810129981314,-0.020686890109845882,-0.020754336508299567,-0.02707088066555639,-0.02691791418273508,-0.026681143850542544,-0.04548164387333933,-0.041932811823189566,-0.044702309901245615,-0.0315021182295321,-0.015069262903261075,-0.00495329616253749,0.008404548255761259,0.028194544870142682,0.03213107694537078,0.05843352869711546,0.07526253830040573,0.08899222560913046,0.08688944724123533,0.08806542639229054,0.07023269681025157,0.081161937301198,0.08901144666084336,0.11289081633721905,0.14643334349012108,0.17053383620976242,0.1915622196506408,0.19359619822094565,0.20847973582589752,0.21073516761997066,0.25449581520584186,0.23785436997046125,0.2436021577464688,0.23988799355514445,0.26173357863835994,0.2709163482588881,0.26105724055036056,0.27354305637279697,0.266962781299257,0.29862294895765196,0.31755639893022697,0.33648410076198754,0.3522030304465683,0.3424015946338482,0.3548250243438098,0.3671582532032065,0.3730068464830461,0.3882659017401971,0.3906148776507922,0.3991295465618337,0.4137768408226841,0.4440751405965984,0.4485890587006232,0.4432016483458568,0.4437937197981041,0.44076801808392574,0.4468164373384105,0.4204924882406762,0.3808525893112848,0.3851648304548604,0.3983454438506968,0.3884932170078113,0.4510841918630128,0.4841546363467576,0.33797134566041337,0.22901402692782305,0.2782262627998423,0.21167482777665775,0.013368078691039554,-0.2658125817670001,-0.5335875627474642,-0.5766417373578275,-0.289881647118862,0.056072171256426336,0.28297667327389103,0.4100263656187961,0.4723367458624156,0.4954678179825693,0.5017927431194721,0.5073132427664985,0.5057371613761803,0.5098766937580868,0.5261725437282301,0.5164801295648996,0.5127108240689221,0.4990062003323471,0.4786121548163554,0.4675100135666275,0.4498338980293163,0.4415604036392599,0.4077121781998014,0.3897372094052726,0.3749452667732347,0.36975105805845293,0.37101397282773335,0.366038108430965,0.32938778253267204,0.327975436069219,0.3236239849601736,0.3195529602483019,0.3221647560103202,0.31238431932714145,0.28387291107139945,0.2907953721177618,0.3013341328217083,0.30277705648510955,0.29833290550854885,0.31350029648445377,0.3228246558787201,0.33587913534838904,0.3335749420423448,0.3350353775602984,0.3243527829346223,0.3493074470983069,0.3557746402964185,0.36287095277592013,0.35468190321794474,0.3630584132569905,0.3752668949637857,0.3753874639631171,0.3888966145456755,0.3839483032950763,0.3828307219277425,0.3855387743414532,0.3952499314342535,0.3928483683331895,0.3910610954544033,0.389875234356694,0.3829069889856327,0.3605861327567439,0.3611077418587359,0.3271306549333953,0.280923933930681,0.24157052399340215,0.2122295598753218,0.16102967578495514,0.11341910555277278,0.08847631555311596,0.08935679929542173,0.06826390944554493,0.060197061886101175,0.02372778348715212,-0.0029606710196679897,0.0,0.0,0.0,0.0,0.0,0.0,0.0,0.0,0.0,0.0,0.0,0.0,0.0,0.0,0.0,0.0,0.0,0.0,0.0,0.0,0.0,0.0,0.0,0.0,0.0,0.0,0.0,0.0,0.0,0.0,0.0,0.0,0.0,0.0,0.0,0.0,0.0,0.0,0.0,0.0,0.0,0.0,0.0,0.0,0.0,0.0,0.0,0.0,0.0,0.0,0.0,0.0,0.0,0.0,0.0,0.0,0.0,0.0,0.0,0.0,0.0,0.0,0.0,0.0,0.0,0.0,0.0,0.0,0.0,0.0,0.0,0.0,0
0.4009747862906923,0.4514792874909991,0.6018416123587134,0.5977603085312185,0.5136735948913472,0.6168790740531158,0.6881326131913695,0.4775043449099226,0.0769533488211741,-0.3645816183722605,-0.7376113063889309,-0.6564679781126915,-0.2833182907758086,0.06632021196906819,0.30488516015468103,0.4850773958728754,0.5850812292202349,0.622527666560784,0.6150447888524014,0.6197066860690543,0.6278358368700635,0.6263683856419388,0.6241535162889061,0.5993546306976018,0.5739643673808812,0.569972368078446,0.5611498115749789,0.5256482625327022,0.4854488372585812,0.4625300238182679,0.4876343545119881,0.451238505329684,0.4279126151434909,0.3957933803666541,0.3899974224612852,0.3798908478318911,0.378670170289668,0.3425479395796307,0.3022498196654048,0.29288299751029834,0.31010402717409913,0.2838194622109052,0.29296432079360385,0.2937416012951266,0.2905684303999829,0.30977664478157624,0.316331327919836,0.3234116075446489,0.29597943659608084,0.2998095729619028,0.3173938155844803,0.3268392286189338,0.3325507036875866,0.3082488480409579,0.3547664426180726,0.34500646866594786,0.36226544908963454,0.3758740525379563,0.3595443720718715,0.36588486469091797,0.35107100340641045,0.385240561029223,0.3982660113550488,0.3945329095462377,0.38719129091384347,0.3630898036680911,0.3792069318928334,0.3917049222171613,0.3830435396717873,0.3488302979809532,0.3767187461781856,0.3877977310490756,0.3864356948337058,0.3682326693047439,0.3507029327532837,0.3557421580464529,0.3482621999247735,0.3413887275511585,0.28688036842619985,0.25922464380949545,0.240859690031818,0.2273720545188616,0.19243090170096935,0.1491533808026334,0.11065567889383722,0.10758618023518128,0.09169447250002884,0.07171167004278385,0.043218721527347265,0.03247886723493092,0.021922773959337567,0.020280360536314337,-0.007550921206062706,-0.013392241793297614,-0.01919582624346219,-0.016229977135996502,-0.05274323805878911,-0.04110230283111625,-0.06023181276108471,-0.05317219651724748,-0.0330899325760276,-0.013146448055178872,-0.02403296948638103,-0.02192446691928604,-0.024358927622766684,-0.026956077344437626,-0.0078003847762687355,0.00242741334455606,0.03879585740810879,0.009259639225370521,-0.002897313796758857,0.03739328631724258,0.02055322338816299,0.012333523845564482,0.012736575262190008,0.008614996325022918,-2.895074368951718e-05,0.008723131900219134,-0.004575655500085978,-0.026773427444537597,0.016647436605526287,-0.0014217433471118387,0.00668882069277463,-0.007231256134754245,-0.012494148824899071,-0.031010174276089517,-0.02770639783067485,-0.020105767737009624,-0.00819565717813398,-0.0007280007679132332,-0.032753368969061634,0.014090987794084794,0.017092965001334108,0.0420195244709017,0.04943988481105427,0.04375541192623783,0.06443311043651524,0.05450857991852637,0.04468181257096161,0.06126929231023149,0.047305800595460606,0.07293964898133619,0.054905661615237175,0.1071839062184041,0.050077381445299635,0.0896132950963078,0.059243566737593366,0.09047969814669488,0.10882081513245086,0.08359794849901007,0.10248894990970976,0.13044065233550048,0.17184849795700444,0.14782579770335924,0.15043119709703826,0.14899200182888214,0.18296653726382844,0.20853090475858266,0.23445911970972602,0.2125420902473736,0.2260666243874464,0.27065375264781083,0.2761748391225092,0.28208078812132353,0.31028818012232,0.26436482023636,0.3108711064962125,0.33145579205083603,0.36556256231134177,0.3693519663616577,0.3778809687817424,0.3604561513010207,0.3740469210316757,0.409872346714432,0.4153172694616071,0.41666272433262735,0.4007385481461505,0.4025880875403936,0.4134203280670322,0.4156757708585432,0.4312419716001846,0.4600882289014594,0.4934152136832516,0.5311877679040609,0.5514520877494176,0.5454014206841525,0.5392921428276992,0.5506114318136268,0.5617778828997492,0.5858899884623822,0.5965943103340052,0.5982171310728168,0.6301476361805045,0.6484905410248772,0.6531797676293649,0.5915471666921301,0.5468016309332815,0.5714664451614326,0.6435471526075801,0.6402320171647498,0.7017002293530145,0.832247470611576,0.7512555908187805,0.6514917384686756,0.7651684274317765,0.7941233896549077,0.5322384817697402,0.1109007417232679,-0.32535574651178456,-0.6977459895571031,-0.7740408343601489,-0.5411066289683826,-0.1785985600827264,0.15141253368316984,0.42713632423903,0.5960990762562479,0.7504716981241405,0.7851765094645373,0.8142938645097838,0.7897204692526125,0.7860795589190775,0.7771759981271429,0.7587268997938788,0.7658946126107852,0.7374065053685,0.717183775129721,0.6921618673126767,0.7062547060286621,0.702558332573892,0.6329317284498109,0.5894939060263656,0.5635462910091166,0.5507705973734743,0.5468457213633939,0.5079986837154224,0.4781184857251029,0.4616424670401381,0.4586223409764218,0.4471913339406121,0.4361630294033228,0.4080493604422176,0.4023421439317547,0.3883993846695079,0.3969423760936529,0.3754089905972193,0.3808160093458599,0.3781303859332912,0.0,0.0,0.0,0.0,0.0,0.0,0.0,0.0,0.0,0.0,0.0,0.0,0.0,0.0,0.0,0.0,0.0,0.0,0.0,0.0,0.0,0.0,0.0,0.0,0.0,0.0,0.0,0.0,0.0,0.0,0.0,0.0,0.0,0.0,0.0,0.0,0.0,0.0,0.0,0.0,0.0,0.0,0.0,0.0,0.0,0.0,0.0,0.0,0.0,0.0,0.0,0.0,0.0,0
0.8845633035784307,0.7162966097640504,0.4263691527590758,0.39163437528643297,0.4152968868233055,0.1421235830502454,-0.32420335571664805,-0.8308327425163354,-0.973570702836614,-0.5502866040242564,-0.04167006397114463,0.3775864840715423,0.6475239057886986,0.7846674057861275,0.8219288568043888,0.8687024351003426,0.8704791497437141,0.8984016104082377,0.8815622245014278,0.8583149457846473,0.8233029048633761,0.8257979599493153,0.8003385124596455,0.7797982693474584,0.7478772186104277,0.7374411665177355,0.7048659530991401,0.6939365618680878,0.6664849232368338,0.5898027998529188,0.5349813583830727,0.5184757972990758,0.4911790171487762,0.4640776472000801,0.3825962378086679,0.3287395668943593,0.34626738596911977,0.33142865105851466,0.32251643672165003,0.30318914119342644,0.3390530788979855,0.3809837080337677,0.3743914896157236,0.3575611123478791,0.3578487891406217,0.38075573742639696,0.4372446873117997,0.472716842107597,0.4926675400001651,0.5025897555916694,0.5243639059008603,0.5306981777348553,0.5434678533440972,0.5954721653243302,0.6102415905701312,0.6041797612228655,0.6264670697245169,0.6388680569287415,0.6577771505347975,0.6613424704749933,0.6659519612225497,0.6606737509478603,0.6782790534062721,0.6805128540491424,0.6509699546049409,0.6551912830092933,0.6876915874128162,0.6501062074020958,0.6571358189114872,0.6213356763747926,0.5590604849905251,0.5194416547873856,0.5079013851468906,0.4588363533070477,0.4377599430332185,0.3899906017109089,0.29362439943447866,0.2578747023795604,0.2335176529750341,0.2314244253753129,0.21329530888368986,0.1899991529441864,0.16694043860618438,0.16044930075949093,0.13768532232886488,0.054880680156371126,-0.0006138913082565983,-0.007007555035825617,-0.040848850203179424,-0.04756640423515237,-0.08731430419580521,-0.11643938189699066,-0.11859668388213793,-0.08289349687149107,-0.06398546391746561,-0.050960730173133885,-0.04929126792678108,-0.042591000524945695,-0.03632237631609325,-0.019553891749354218,-0.003203800320489084,-0.04189491325030232,-0.020887377937621826,0.005200278774537188,0.014531325852633984,0.023512119688398985,-0.02247398091830212,0.007708530487028672,0.010275312908990841,0.01802453476190661,0.009121293902583151,-0.005489590426275857,0.034306372674418384,0.019261836153899592,0.014954942808578746,0.03779402186283106,0.022237798994892,0.033864056947168486,0.08361744809212181,0.09502962479240827,0.07358135009486895,0.07938593107917119,0.07421687239252149,0.058090395179135834,0.06926546292553337,0.08044112564911705,0.08070599279425986,0.0646115735178016,0.06495208687328306,0.08174161734780741,0.10406732083185304,0.09369943491733687,0.11074711138528152,0.11151629707572948,0.12879861194649664,0.13528879727486812,0.07090113883649883,0.08315471885066822,0.04640316912621008,0.053531782422164866,0.02806326002078162,0.008249375825392372,-0.016827953839825868,0.023862674873849774,0.026528603091716216,0.029422902496166612,0.03801870061800845,0.014082562528776366,0.039573505404592466,0.059867928056390324,0.0859016544447168,0.06305058617333803,0.05141953561774314,0.07286988647382546,0.07277653848646963,0.06753695198636311,0.07901152533959563,0.06350069621035648,0.08657054556710894,0.11544740234912412,0.11189386072485047,0.11415816447905487,0.12224488450053532,0.1306947189691722,0.1886807740213736,0.18693974669519692,0.20742295775815495,0.17910833957236635,0.2057984487642011,0.2437857946297661,0.26575176322720856,0.2826196351123681,0.28345815440988764,0.3065043694090893,0.3298975900094781,0.37001870701537737,0.3558341310536393,0.3583542725280517,0.3994180454088914,0.3752066277788872,0.4168211831086261,0.4313656201936604,0.4461344059217174,0.4556400388438526,0.5090258060200421,0.5570932817843576,0.5506414953418393,0.56065933262921,0.5379402841776243,0.5316144717472844,0.5580295158884006,0.5788973598978745,0.5504638550069328,0.5983343174209487,0.5804095170393633,0.6168257241585919,0.6528906456484236,0.6502988100043116,0.6417644062037153,0.6381451640576643,0.6284423968827769,0.5688744157612805,0.4921426164167488,0.5183583808901966,0.5272453461133753,0.5077905955880316,0.4872216900158469,0.5965663875893296,0.5133959511906495,0.2430767759557411,0.04774788019124801,0.05842782078565281,-0.22214480469289066,-0.7449014990058308,-0.9417389789391418,-0.4083822531792425,0.06853331664573166,0.4126404145740515,0.5748878915678791,0.6045619699130141,0.6492854319815079,0.6763890740384266,0.7023701631845317,0.7109427730666437,0.6912807673988622,0.6981140781985617,0.7151462561440444,0.7042241536708409,0.6654341609098661,0.6152490526255513,0.5756015783296186,0.0,0.0,0.0,0.0,0.0,0.0,0.0,0.0,0.0,0.0,0.0,0.0,0.0,0.0,0.0,0.0,0.0,0.0,0.0,0.0,0.0,0.0,0.0,0.0,0.0,0.0,0.0,0.0,0.0,0.0,0.0,0.0,0.0,0.0,0.0,0.0,0.0,0.0,0.0,0.0,0.0,0.0,0.0,0.0,0.0,0.0,0.0,0.0,0.0,0.0,0.0,0.0,0.0,0.0,0.0,0.0,0.0,0.0,0.0,0.0,0.0,0.0,0.0,0.0,0.0,0.0,0.0,0.0,0.0,0
0.2685214961892459,0.08428332729549838,-0.3389824809383791,-0.8512264749324767,-0.8637169894326963,-0.479206821131418,-0.13231807126859355,0.16916728627156216,0.3740100271754483,0.5258133263391936,0.5970460548241701,0.6154996809020445,0.6326734988757506,0.6210276880113489,0.6399589054997202,0.6461138545932968,0.6514612650269107,0.6521594284584271,0.6443633792393859,0.6281766928011079,0.6392659396503286,0.6382103137487734,0.6251038314977039,0.6039891201237365,0.5749538794574071,0.569697204399037,0.552734683171853,0.5439042817899871,0.5353785894556912,0.5548936927421199,0.5630023694217814,0.5637244434448783,0.5768841312574591,0.5946402175448915,0.5854377913103461,0.6007068077712976,0.6049346536639486,0.6376899478520085,0.6792612563720658,0.717837560564818,0.7376526435877561,0.7387439069182627,0.7804220919243534,0.7994883880698832,0.8354869315082564,0.8844880403047792,0.8911844306900962,0.8872040377469653,0.8923149350052211,0.8788591374514279,0.8547404153897857,0.8555207579672719,0.8851434656133986,0.8645597217384968,0.8569811516048129,0.8228682088759747,0.774050486709857,0.7539678789386774,0.7230685697268283,0.6852667940454649,0.6444731715228933,0.6164503010842203,0.5576805311348433,0.5273899766286632,0.5097177284553805,0.4413786180317316,0.4250606070165939,0.377714761960354,0.3546030898026832,0.3517086807555912,0.3057358238617879,0.30355552094366883,0.2779169719444969,0.28802551909147955,0.2942900681038788,0.2650216883272081,0.2594214208258788,0.2734601515250859,0.27939665798137964,0.2811027654659397,0.2943043078974261,0.27149688364989644,0.2955840815143419,0.3072032652280921,0.3181227543926908,0.3203503232087382,0.3296029665246035,0.3260298605447282,0.3213929484741093,0.3551151565069041,0.39548537008790624,0.41079069908612703,0.3377018609283395,0.25515238665706425,0.09190564748242744,-0.23908346865507205,-0.7339690901739337,-0.8198231622861629,-0.4215749396325495,-0.08450868833044099,0.18357643038366336,0.37093748172173296,0.485589622398202,0.5632087675785604,0.6039021875878752,0.5998707329535283,0.6025892628458152,0.596349005173668,0.5891489861612453,0.592937052164603,0.0,0.0,0.0,0.0,0.0,0.0,0.0,0.0,0.0,0.0,0.0,0.0,0.0,0.0,0.0,0.0,0.0,0.0,0.0,0.0,0.0,0.0,0.0,0.0,0.0,0.0,0.0,0.0,0.0,0.0,0.0,0.0,0.0,0.0,0.0,0.0,0.0,0.0,0.0,0.0,0.0,0.0,0.0,0.0,0.0,0.0,0.0,0.0,0.0,0.0,0.0,0.0,0.0,0.0,0.0,0.0,0.0,0.0,0.0,0.0,0.0,0.0,0.0,0.0,0.0,0.0,0.0,0.0,0.0,0.0,0.0,0.0,0.0,0.0,0.0,0.0,0.0,0.0,0.0,0.0,0.0,0.0,0.0,0.0,0.0,0.0,0.0,0.0,0.0,0.0,0.0,0.0,0.0,0.0,0.0,0.0,0.0,0.0,0.0,0.0,0.0,0.0,0.0,0.0,0.0,0.0,0.0,0.0,0.0,0.0,0.0,0.0,0.0,0.0,0.0,0.0,0.0,0.0,0.0,0.0,0.0,0.0,0.0,0.0,0.0,0.0,0.0,0.0,0.0,0.0,0.0,0.0,0.0,0.0,0.0,0.0,0.0,0.0,0.0,0.0,0.0,0.0,0.0,0.0,0.0,0.0,0.0,0.0,0.0,0.0,0.0,0.0,0.0,0.0,0.0,0.0,0.0,0.0,0.0,0.0,0.0,0.0,0.0,0.0,0.0,0.0,0.0,0.0,0.0,0.0,0.0,0.0,0.0,0.0,0.0,0.0,0.0,0.0,0.0,0.0,0.0,0.0,0.0,0.0,0.0,0.0,0.0,0.0,0.0,0.0,0
-0.05314111285720656,-0.29922904282138546,-0.7760449352056198,-0.5905342020178211,-0.19318116915101827,0.06042918329711405,0.2217658207630826,0.3264901990297844,0.3588892406510074,0.3743806695141664,0.4086214056758552,0.4300858653816218,0.4349090349084497,0.43898275948861215,0.4305340966707441,0.4333541259819933,0.4277619536328667,0.4375443397093989,0.4390642829647743,0.4165861981843261,0.4413119461242874,0.4105620220252706,0.3994857990297105,0.3528211355314593,0.3299061469261533,0.34265556198066977,0.3437054317772996,0.35287072602822206,0.34254307339537604,0.3325339607101516,0.35450856771934186,0.3334317608230041,0.344435105201447,0.3559498481992423,0.3640681281239,0.4083501241798461,0.4572217614462448,0.5028177345131797,0.5333186499850037,0.5289989966235502,0.5373112285051009,0.5780425415724904,0.6156522189354824,0.6501628703834441,0.6420760086754137,0.6427813389253157,0.6483401295901035,0.6824730483584996,0.7056686911878042,0.7297856660700794,0.7469200432693147,0.7531160459980923,0.760221370376472,0.7682245413135126,0.7573512732268044,0.6959680337804611,0.6630879564360851,0.642877449768948,0.6432104181760799,0.5968733160057172,0.5591552397386306,0.5221134714582362,0.5054651106102156,0.4617440141651945,0.4422765586913315,0.3877363594828581,0.3533970748819913,0.3352533963952993,0.32929824854397605,0.28014945518222883,0.278639863119189,0.2733360508474684,0.2483694205526743,0.25900244152478097,0.23403868114511064,0.2168826662135566,0.21537153644429585,0.2254859415074037,0.23135004858450325,0.23289410493520346,0.22609539919194685,0.21088185739357476,0.2464573032557831,0.2497596385157376,0.2562795889317899,0.2382778014333241,0.2312424715825543,0.22323898102960602,0.2458013758584044,0.1842459165118028,0.054297096364247566,-0.04138187114708222,-0.2609469679474346,-0.6953696127766013,-0.6215252477661951,-0.24884849788854144,-0.004064046448215574,0.18800590222678049,0.3116480867236188,0.3748591168615007,0.4212002611115045,0.415194876110656,0.4241110612946839,0.4480342082172378,0.46333677661512107,0.466147995438712,0.4446911732006592,0.4464643158274847,0.4517825738821466,0.4607178749906408,0.0,0.0,0.0,0.0,0.0,0.0,0.0,0.0,0.0,0.0,0.0,0.0,0.0,0.0,0.0,0.0,0.0,0.0,0.0,0.0,0.0,0.0,0.0,0.0,0.0,0.0,0.0,0.0,0.0,0.0,0.0,0.0,0.0,0.0,0.0,0.0,0.0,0.0,0.0,0.0,0.0,0.0,0.0,0.0,0.0,0.0,0.0,0.0,0.0,0.0,0.0,0.0,0.0,0.0,0.0,0.0,0.0,0.0,0.0,0.0,0.0,0.0,0.0,0.0,0.0,0.0,0.0,0.0,0.0,0.0,0.0,0.0,0.0,0.0,0.0,0.0,0.0,0.0,0.0,0.0,0.0,0.0,0.0,0.0,0.0,0.0,0.0,0.0,0.0,0.0,0.0,0.0,0.0,0.0,0.0,0.0,0.0,0.0,0.0,0.0,0.0,0.0,0.0,0.0,0.0,0.0,0.0,0.0,0.0,0.0,0.0,0.0,0.0,0.0,0.0,0.0,0.0,0.0,0.0,0.0,0.0,0.0,0.0,0.0,0.0,0.0,0.0,0.0,0.0,0.0,0.0,0.0,0.0,0.0,0.0,0.0,0.0,0.0,0.0,0.0,0.0,0.0,0.0,0.0,0.0,0.0,0.0,0.0,0.0,0.0,0.0,0.0,0.0,0.0,0.0,0.0,0.0,0.0,0.0,0.0,0.0,0.0,0.0,0.0,0.0,0.0,0.0,0.0,0.0,0.0,0.0,0.0,0.0,0.0,0.0,0.0,0.0,0.0,0.0,0.0,0.0,0.0,0.0,0.0,0.0,0.0,0.0,0.0,0.0,0.0,0
0.7240010380171668,0.5943863209528089,0.308654194782572,0.3861801791784994,0.4897659238361775,0.2711586013992578,-0.22000540288084264,-0.7296189557515008,-0.8985548350119553,-0.5223521507751862,-0.04303860028059834,0.3074061195564584,0.5401624158105074,0.6664091585254746,0.7194276092352824,0.7656533358811775,0.8107293054356471,0.7718742873961916,0.7818276475590341,0.7578002424037096,0.7606821192350155,0.7518866209971905,0.7204546526014721,0.6775284518280702,0.6452992003349692,0.6183233267602982,0.5966803063217035,0.5804465226201969,0.5365377374021421,0.4926558140120009,0.4986050254076258,0.5047142659084525,0.4889413021863851,0.4734515619461521,0.4196190243552594,0.4103933089848269,0.4126702027249485,0.3988697135746925,0.42430388231490224,0.3895471092633137,0.3885912308614246,0.3883218550782439,0.4164116507573373,0.3955321566981296,0.4196672949828885,0.4446421831451165,0.4925951172880722,0.5248731664733869,0.5415048483157396,0.5756736945170928,0.5831927061978974,0.6193449214694784,0.6288850009692447,0.6449848778183059,0.6179192445799774,0.6305901227056477,0.7051074402197706,0.6867372337795703,0.6915293952055126,0.6476370980642405,0.6379457043899596,0.6348118765209995,0.6769043639733998,0.7144683729955089,0.6977457253138556,0.6709213125969302,0.6173875339538857,0.6034275300200997,0.5903221660584149,0.5448755632695429,0.4946778950740765,0.4231064259106383,0.39090376988564457,0.3206535986854012,0.2675681832898259,0.21501664142909294,0.18505066452109475,0.1334055919942857,0.08765738800554758,0.06432880353276355,0.002574328209607305,0.012862595366831264,0.0011901216693347494,-0.03802627132265202,-0.05510703724431496,-0.03905292876369891,-0.06175355951309928,-0.07351682543515525,-0.041223575110910286,-0.09200959221304936,-0.07116681732314084,-0.04502937313226226,-0.05781952918176829,-0.03217726956114236,-0.06205155084569248,-0.04796871512694436,-0.05623740186467115,0.0015739526238298727,-0.0016223953708119619,-0.01607345901111503,-0.01413118963411394,0.0042226230241664865,0.00032362016208215585,0.018401517997661918,0.01979193499804504,0.02661940145349229,0.04442952946803172,0.04008388652004904,0.06333791407307142,0.06447393781184642,0.05456297056226298,0.050201975856039915,0.0956190097876394,0.10241132362918257,0.04296469438845298,0.07755767158427017,0.10673375536257693,0.14708779266686214,0.13232000063904925,0.10665532249248268,0.09221294753842668,0.12769035103809034,0.15231163182859855,0.16608925412603234,0.1800874667393517,0.2164222341822842,0.2364196167005121,0.22903595780614264,0.22743660351735315,0.26478575467253185,0.2692472864921835,0.2684566656273857,0.27346919326622504,0.29533882831346026,0.2732766123461333,0.2570175717575294,0.23550636272715966,0.26400163325290793,0.29276166536597825,0.2886222403159663,0.2957854986014099,0.2921368607034141,0.2997704527797448,0.3352526672283447,0.332254301462104,0.3239173919899231,0.3378560409736756,0.3906301848372368,0.3551149707607764,0.3473396080963867,0.3728060691109204,0.3762255855424784,0.3796753481560852,0.4107569396643563,0.4252284944214164,0.423056277600846,0.4373620666868676,0.4902129777312784,0.5097272976917147,0.4571785009140385,0.4762045245997582,0.4728112778105499,0.529843027002082,0.547774663081498,0.5044462507980758,0.5103256698402384,0.5377214507771738,0.5755183917762781,0.5462833254914621,0.4720531223440234,0.4245983790183052,0.4591085127064802,0.5257716291739607,0.486353169435287,0.5839287878576808,0.5918384956233818,0.3442083881014005,0.14489481288740488,0.2866998503840832,0.16164234521042156,-0.22484398013121026,-0.7291693844621882,-0.8706201088191008,-0.4447267769229751,0.05675228890007475,0.38525703069058975,0.601698398956744,0.6951438679398074,0.7651833648994405,0.7732465144879817,0.7857583038758111,0.7530881194148309,0.7471794263268471,0.7183939167316453,0.7220887352867448,0.6257241501124268,0.6062281111143732,0.6084219704057064,0.5992291412610711,0.5732013602228546,0.5359399138387776,0.5262008611028747,0.483264665950264,0.4569346228221423,0.44727515215670427,0.4156644781903949,0.4063726849166861,0.3641948626473129,0.3720808967185668,0.3637694784534057,0.3669440810541309,0.3263922627428625,0.3195303008337772,0.3132473791693524,0.0,0.0,0.0,0.0,0.0,0.0,0.0,0.0,0.0,0.0,0.0,0.0,0.0,0.0,0.0,0.0,0.0,0.0,0.0,0.0,0.0,0.0,0.0,0.0,0.0,0.0,0.0,0.0,0.0,0.0,0.0,0.0,0.0,0.0,0.0,0.0,0.0,0.0,0.0,0.0,0.0,0.0,0.0,0.0,0.0,0.0,0.0,0.0,0.0,0.0,0.0,0.0,0.0,0.0,0.0,0.0,0.0,0.0,0.0,0.0,0.0,0.0,0.0,0.0,0.0,0.0,0.0,0.0,0.0,0.0,0.0,0.0,0.0,0.0,0.0,0.0,0.0,0.0,0.0,0.0,0.0,0.0,0.0,0.0,0.0,0.0,0
0.6516781718341281,0.6188166024474994,0.3384648882571855,0.13829904200585572,0.1001447977974616,-0.10938374753447712,-0.3811455425147343,-0.7534982960006322,-0.991598412118204,-0.5436592014058506,-0.0761161002880115,0.33468370958927,0.5741571641828139,0.7189350931642174,0.7800858324021162,0.8233071422706304,0.8432699577794818,0.8674209089112512,0.8576427862815893,0.8523002702549329,0.8078042242103624,0.833533703732266,0.8585747620867752,0.8065459829534077,0.7649607146807206,0.6956723287711694,0.6643331083674412,0.6054726122162989,0.6175161349418139,0.5639639613269097,0.5323086672157317,0.5117005741069076,0.5349937573004891,0.5312369971498516,0.5551323431557694,0.5521131502721301,0.5495595265625313,0.5639222156886284,0.5515528924153991,0.5288967329957878,0.4960062501639914,0.5021010294333975,0.519911949432812,0.522167378285894,0.5198361979832198,0.5348112835146648,0.5562030991805439,0.5949726428971349,0.6019818104661736,0.6155023535157024,0.6300965984199505,0.667640303631855,0.6680565483499351,0.6914577157692824,0.7214666219489171,0.7526292294954695,0.7303181764196061,0.7583380932106009,0.7328844858792352,0.7741444473877203,0.7236730084529921,0.7016497268925955,0.7408377114695128,0.7592672224180972,0.7241345330469984,0.7228247625268454,0.6842836537308462,0.6631092795245813,0.6428733664201282,0.6235342311374508,0.5504139568487313,0.5272672646797516,0.43931404696270826,0.3903036364172755,0.3364740174043272,0.2723043361932203,0.2086619624375095,0.15641290426906854,0.15373863610043426,0.10770060424534114,0.07833194003100408,9.292165431248033e-06,-0.028992024760218792,-0.04697924415362362,-0.0649403355896332,-0.07746889986061782,-0.09007897226325684,-0.09188732279445776,-0.07746546586685785,-0.09600920577837954,-0.07105104349150212,-0.09547671855510174,-0.032706540108931516,-0.035706748663517765,-0.01159189129380033,-0.02044557664025624,-0.013084273751789336,-0.0058821323646627895,0.01756775229943679,0.05181963614901736,0.0422579699909702,0.021679776223526,0.017418564036970494,0.007638016959853064,0.02513475060885319,0.06446222898390018,0.03822426163974497,0.05570320487141454,0.051355562473586525,0.0743669000049099,0.0428032802119404,0.07140926305815466,0.0673237216030173,0.07426771981205306,0.11410877735979855,0.09944800422029076,0.10132169544843556,0.1197427239238822,0.1274069463273274,0.15164263980679885,0.1159747080317868,0.08597314632905298,0.06711104905277362,0.08671428836377343,0.1065487778504914,0.08837999752992491,0.07592242344660739,0.05825707056413418,0.07363429149683856,0.0346482034575151,0.05603472645701679,0.07224064396804347,0.07234547847061272,0.05635499507771247,0.06798101251969836,0.08537544473480979,0.09215316767431857,0.11017174383893788,0.12850846345497194,0.17448317931667112,0.16068576139597285,0.2073106801365285,0.19962962007509685,0.2523719097550265,0.2781237086020499,0.3041992544623455,0.3032783753825992,0.31359900143036423,0.3679342443632221,0.389789609581846,0.42832470693187297,0.4999173858023214,0.4952874098424892,0.5182208179204513,0.5523085302691418,0.5811388760174052,0.6046873285057199,0.6174631534620884,0.5975826874235859,0.6378885198915154,0.6727844968289873,0.6967675958555571,0.6770149210778208,0.7172826407167705,0.7301079707854664,0.7755336926723309,0.7824796911916514,0.7727381060968663,0.8008769762515292,0.8395109480572371,0.8393974558583249,0.8223126613796229,0.8482716427853462,0.7915331014611725,0.7503468760764609,0.7300827150274479,0.7142534073036093,0.7519277144979858,0.6954919578851605,0.6377139834973249,0.6877480656611655,0.5777774577848943,0.2803672589325759,0.1450475116295422,0.14984232613436874,-0.06594963145381934,-0.37133327161897584,-0.7664264856643459,-1.0,-0.6022196537960677,-0.0810873295616893,0.3122274912115726,0.5724116166427399,0.7323934071400433,0.7595387380364891,0.8014987859951836,0.8420218724426911,0.8593890093935512,0.9028999236881756,0.8743408934333631,0.839392739779145,0.8145621949082296,0.7944985863672459,0.7902370746461326,0.7636391304790416,0.7366585945137967,0.6930023757759038,0.660080115342656,0.6434447816070864,0.6158662310530811,0.5938175182853785,0.5500622032328014,0.5393104055080064,0.5233933618050184,0.5187726314467848,0.4708842318542085,0.4235010211107455,0.4695632201415473,0.4452337422161937,0.40520522951196497,0.39324149420124016,0.4039346051673954,0.4100214574139556,0.42794334161618,0.4140431772429956,0.4448543862447114,0.4821789800757549,0.4823534440005275,0.4945879849961456,0.513457379091555,0.5444605332119671,0.0,0.0,0.0,0.0,0.0,0.0,0.0,0.0,0.0,0.0,0.0,0.0,0.0,0.0,0.0,0.0,0.0,0.0,0.0,0.0,0.0,0.0,0.0,0.0,0.0,0.0,0.0,0.0,0.0,0.0,0.0,0.0,0.0,0.0,0.0,0.0,0.0,0.0,0.0,0.0,0.0,0.0,0.0,0.0,0.0,0.0,0.0,0.0,0.0,0.0,0.0,0.0,0.0,0.0,0.0,0.0,0.0,0.0,0.0,0.0,0.0,0.0,0.0,0.0,0.0,0.0,0.0,0.0,0.0,0
0.5864106517809976,0.4512451673594893,0.0933539747358653,-0.2947120959282697,-0.6515631770701624,-0.7026455977558579,-0.4028746562502898,-0.014506311585770187,0.2412294052442881,0.41772112948799495,0.5068748078266001,0.5784708427341609,0.5957191994496508,0.6201973227295626,0.623306837851969,0.6133351585602297,0.5944678165688578,0.6241712283470974,0.6123532802175076,0.5549928130342735,0.5628310397355337,0.5539644200465506,0.5448569714091208,0.5396736449589743,0.5097865435897393,0.4880465542466522,0.4909069529636094,0.5143247480684582,0.5173656039023807,0.5082777991186856,0.4789119635640395,0.4539063096533579,0.4210077657898383,0.3966523493077189,0.4054715034917196,0.39011937847170297,0.38751970339709146,0.3936066018738595,0.4084110254041206,0.3704804750371449,0.3659159675746758,0.3783475300496927,0.3750082979367145,0.3887097628870989,0.3825825281015694,0.3894342666411796,0.3600954287612314,0.3560611859013936,0.39783725407763504,0.3870633696549848,0.3893278995984236,0.3759456691790059,0.3961061014267444,0.4170214297501945,0.4181982035113713,0.4078322454277299,0.3941172872257073,0.4180351454277584,0.4262940595928242,0.4475754889972293,0.4285834515538896,0.4266863956539756,0.3844851929210443,0.4290230288061745,0.3963288162139362,0.3642564871184326,0.33688021294588644,0.31417357834542897,0.28381218708116024,0.2375688375439441,0.19590626752629767,0.13829837202999534,0.10979831443996214,0.06938449126149676,0.06210882539609214,0.0305537554563962,-0.004822046090614711,-0.01126376306277486,-0.025695134592684236,-0.015359816346307524,-0.029474332844934108,-0.03527843953418945,-0.008206622787389881,0.0025322035701041933,-0.023578736195313983,-0.01688338959584698,-0.030686429003425258,-0.03631561297485665,-0.017392081340160338,-0.03131130284992275,-0.041195487629925316,-0.038855229694767617,-0.0447885679503132,-0.018008367635771374,-0.0035973144641625906,0.014845099066251203,-0.003662994723095324,-0.009930696853840822,0.004245584690319232,0.02657655786861302,0.02018031644441169,0.01785383470744151,-0.0008899653846757072,0.0008444657816858983,-0.009726251042280512,0.004293514081433664,-0.002174994808424907,-0.004531541731535573,0.0013304884436513428,-0.009173217117438846,-0.0073430264713009,0.0027314398239522398,0.012862493303066814,0.006664900854278872,0.02103731648388009,0.02729811295916889,0.025456916323450183,0.019621981624119614,0.030296498602613037,0.05339096592252513,0.0479268413130574,0.06309815643100375,0.0661233934058406,0.04471454634953982,0.06855858865021718,0.07208300879962355,0.0839865588736441,0.09197997558656447,0.08787234121453143,0.09216363659640256,0.08846451375742946,0.10547158434589148,0.11039953526766576,0.14424030497450752,0.16600997002738438,0.19620536820557252,0.21433485229194224,0.17121443557993385,0.19390597595891465,0.21682849699726306,0.23178276965865555,0.2551610737322166,0.233675516684078,0.24929619149863586,0.2733253544270025,0.2688664842500223,0.28919453400418865,0.2933115060164964,0.3057982045557588,0.314345077881359,0.31073981075631313,0.3400524676487701,0.33258612547746946,0.3457038912331349,0.3506931335880959,0.3434320856631587,0.3566861165653621,0.3822312232947603,0.38724902645289255,0.3963019524103583,0.41345666381934665,0.4509753728115962,0.4268466178584482,0.4475998953085352,0.4517131819965226,0.4596375266507098,0.4713278919602083,0.4703418804478738,0.4771236274490019,0.4793247926322413,0.4686934155427586,0.4328763736071018,0.4332959796885403,0.4698908998486423,0.4852149167439,0.4833009459961383,0.5542535525403653,0.5627427826008033,0.3898309731125339,0.2977628382996913,0.3643366959720435,0.2738678876382351,-0.04750290269189302,-0.3785252447327387,-0.702882470155721,-0.5943454012684551,-0.2168403177742887,0.11820740562895055,0.3822078132048567,0.5178789997174073,0.6072951757098008,0.6505526524371275,0.6477447046785978,0.6604428368699936,0.6272523498839068,0.6425283311756554,0.5997832227006862,0.5892669975162554,0.5659673684398729,0.570943177341827,0.538682533394519,0.5143373594101636,0.4938716988524409,0.5019383819608223,0.4771136942285185,0.4645393143178746,0.3945891014724094,0.3820790394985696,0.3737737539764172,0.3615223805320277,0.3289746549333953,0.329457518745756,0.3015308348107154,0.32311084550057384,0.32045796223120243,0.30590505625201114,0.291783396522599,0.2904227224772836,0.30185501814943305,0.3097157534801808,0.3386265440821252,0.33942967808529706,0.3572373568640844,0.0,0.0,0.0,0.0,0.0,0.0,0.0,0.0,0.0,0.0,0.0,0.0,0.0,0.0,0.0,0.0,0.0,0.0,0.0,0.0,0.0,0.0,0.0,0.0,0.0,0.0,0.0,0.0,0.0,0.0,0.0,0.0,0.0,0.0,0.0,0.0,0.0,0.0,0.0,0.0,0.0,0.0,0.0,0.0,0.0,0.0,0.0,0.0,0.0,0.0,0.0,0.0,0.0,0.0,0.0,0.0,0.0,0.0,0.0,0.0,0.0,0.0,0.0,0.0,0.0,0.0,0.0,0.0,0.0,0.0,0.0,0.0,0.0,0.0,0.0,0.0,0.0,0
0.13706970454479575,-0.020058572941989598,-0.3605926665023804,-0.7672536789699977,-1.0,-0.519900017756385,-0.0045396494263283856,0.3647944256693992,0.5615605355366882,0.6552635417637609,0.7420855974568462,0.7848050828010454,0.7888848264665659,0.8024718920112949,0.7669890012862516,0.8159515788919182,0.8053981815486588,0.8048040807844129,0.7715841039893405,0.7111732333104284,0.7303869703927404,0.7279324863138426,0.7199057372274564,0.6903829204400515,0.6874688720990506,0.7059047777959068,0.6710601275439348,0.6310293387077045,0.5912153144380541,0.5410097431467176,0.5178255359460878,0.5323927995791575,0.4833826345143684,0.5095843731423174,0.4509678185487716,0.4676614177458365,0.490342508748645,0.4977102700424719,0.4791334681283215,0.4666665398689417,0.4816894867314662,0.5082278378013724,0.5196326739884305,0.5266046741121785,0.5345058989646481,0.5540317961786368,0.5531869819443535,0.5319894214778463,0.5918386914788518,0.5780027552214356,0.581203530536496,0.5907756678225567,0.5907148915963526,0.5543419327680054,0.5456869063635036,0.5647449173295312,0.5581481435368727,0.5312221576372299,0.5266418805905445,0.517711319012192,0.4670598065798719,0.4973946843387906,0.4913000641489684,0.4754301072286963,0.4230763196545766,0.3768960885864536,0.3528645864818893,0.318930922540772,0.2910666204172885,0.2425534501979185,0.21070396500568075,0.13678114764188176,0.14880762263278888,0.1453564764410513,0.09970432958911944,0.027815234730155458,-0.011659095091232459,-0.002755244819703484,-0.004212969883797568,-0.016075545458292498,0.00430231242726697,0.04620721627878743,0.06157361804165621,0.023679818081726152,-0.003483853412915567,-0.035967482615323336,-0.015116546634562578,-0.026345642000542287,-0.03233947229609632,-0.049140436909435724,-0.055435723929946494,-0.06192397229032842,-0.07396253466537135,-0.03820666244699311,-0.008024977869053242,-0.02077441394006848,-0.017762783741196737,-0.02567224461045927,0.0035210116764926467,0.005786815060374297,-0.024208803617653298,-0.04911168353741055,-0.01022128458582722,-0.008912996963998854,-0.007824723383430557,-0.017617698598145912,-0.000928235236216618,0.015576789386011728,0.015902625862814237,0.010734546225202994,-0.015922356329623154,-0.010694784043418998,0.005087795367997743,-0.016583169127390215,0.015020262466978294,0.019874969896355846,-0.007337964097403063,-0.034585417098336416,-0.019161529855619242,0.006938564398283479,0.038401652096926614,0.032562345932086005,0.048139444005874776,0.05847526378248825,0.0742640210778589,0.07951954001091645,0.07959935283703203,0.0798605942138764,0.13368417957958642,0.15571410860177234,0.1619780899457446,0.1685030537062704,0.15929900090284665,0.2090874277300261,0.21116435850670795,0.21890536803875466,0.2056446773481847,0.256771830077048,0.29759474571990513,0.34946841746662793,0.3910581916202655,0.3690115479569592,0.3473664479729001,0.3794869683782657,0.34264679353448124,0.3702466638466932,0.3555647125999276,0.3733018972265391,0.375428940460175,0.3779469368946367,0.40219112384316,0.3947905707863818,0.3984206938037809,0.4077307562447514,0.4333760889476281,0.4753379443686908,0.4695631697141337,0.44270857319075374,0.4801248336950029,0.4964077809280912,0.5235432809780689,0.5081384000678936,0.4928459442585789,0.5309882186474107,0.5638286469550831,0.5699801370101529,0.5814129761393104,0.587406442855465,0.593244968199056,0.6042100461783088,0.6415882641690165,0.6572949302629649,0.651266323387848,0.6501155353173925,0.6697803617654344,0.667499129362629,0.6698750740715999,0.6288038162614096,0.6189060838008945,0.6934553810832631,0.7403055021830656,0.6579788136262191,0.6331390530745143,0.6710219929150242,0.5527474055458124,0.2888805624128585,0.28484944117123145,0.2630700324636858,-0.027362997993546568,-0.4211467504317309,-0.8543601030159209,-0.8681764550237607,-0.483929829295414,0.010327234885345687,0.3906204099381698,0.6517521310761412,0.7671788009537464,0.8064019210192773,0.844255176691158,0.8435118042313355,0.8469811165879246,0.8120918913238308,0.8189971279715214,0.8091092491364512,0.7825328009439397,0.7447043038371968,0.7330724847802472,0.6890339896611354,0.6927183154730363,0.6588348982509369,0.6088101077209815,0.5747390591630966,0.5300176053011662,0.5494231025823759,0.5316416018493728,0.5034208835685718,0.4434818912211487,0.4532715080590053,0.4528097245439386,0.43148252301398254,0.4160257608075051,0.41182905839371264,0.4136079163847339,0.4267478159756786,0.4459601305938016,0.4872981793838243,0.4814367338636274,0.5191287249842964,0.5417161203174192,0.5599065500247361,0.5844049356873857,0.6099053397613463,0.6044188033572343,0.6480097352058386,0.0,0.0,0.0,0.0,0.0,0.0,0.0,0.0,0.0,0.0,0.0,0.0,0.0,0.0,0.0,0.0,0.0,0.0,0.0,0.0,0.0,0.0,0.0,0.0,0.0,0.0,0.0,0.0,0.0,0.0,0.0,0.0,0.0,0.0,0.0,0.0,0.0,0.0,0.0,0.0,0.0,0.0,0.0,0.0,0.0,0.0,0.0,0.0,0.0,0.0,0.0,0.0,0.0,0.0,0.0,0.0,0.0,0.0,0.0,0.0,0.0,0.0,0.0,0.0,0.0,0.0,0
0.5880472905876701,0.33728110287032936,0.10266688142791304,-0.05445147700751647,-0.15568221104953495,-0.25415000278567,-0.21217601386756849,-0.06791470036042219,0.02934446489684612,0.08792654278318608,0.1443599989390413,0.16383446444248276,0.17292304885989732,0.16169932890040795,0.15507569790261025,0.1464421243441872,0.15075522304725214,0.14315409805790566,0.14025291065174875,0.14041574949142102,0.13039277489343615,0.1201598992587046,0.12632851278516127,0.1107613343438321,0.0900685216905916,0.08749580853554062,0.0881307321210055,0.07540135977004496,0.06093886963587575,0.056374062864915635,0.05840614394721257,0.0587569381818261,0.05910217347844358,0.05945825152183699,0.04822805140433838,0.05197190105218824,0.04250181672395762,0.05799085242769698,0.0486831303304684,0.06104636417809944,0.051960272528636726,0.07286911780110908,0.07733398863993014,0.09191303671380764,0.09505208625499198,0.10003618317526704,0.1184908656857607,0.13217858789264172,0.14442863317067048,0.1436383320396463,0.15968010388181786,0.17597274156148446,0.18257036930332465,0.18943462075100412,0.18661782741364705,0.1840797629099687,0.1917792677695476,0.19976587284045227,0.20472427983531066,0.20499722407761128,0.2055625470303416,0.20641996784969505,0.2175223725204776,0.21564096612316352,0.21570361225153065,0.19613838260958455,0.18514324359000814,0.1710984023281804,0.1589734646455085,0.1437829862300403,0.1271768576633989,0.1124632830525008,0.09465466841885113,0.08867124675023509,0.06961599919570514,0.0540672745536953,0.050307911341520635,0.04007595869652954,0.03994889546123067,0.028346253973172968,0.01520898318969574,0.012136922777092976,0.007503382193597933,0.016226129256423694,0.0067699859395832715,-0.005947398587267499,-0.01032647388485153,-0.014675513793721553,-0.01237051917738978,-0.013376421127804159,-0.01770278089624298,-0.018721759213079017,-0.014780932365174106,-0.01252126027338804,-0.003651006707984661,-0.013057894723993999,-0.00756316512294731,-0.010393921174013915,-0.003300736640060962,0.003763250654737503,-0.0008138159840363763,-0.0004402605832352466,-0.0067278813410117785,-0.009721012907843156,0.0005366492145207459,-0.002496380664385102,-0.008862877233330319,-0.006946345584696778,0.0065753889613477355,0.001844512182973811,0.010387377269717873,0.0023461279002447107,0.009247056104643492,0.001232241894053098,0.00816888689241794,0.018448375556857476,0.0138259217391583,0.012555360734170668,0.019618199185339174,0.015110394355935438,0.023921681304299752,0.029465908531185105,0.02511099957028573,0.0357463469900208,0.03649024459707317,0.03398242383065835,0.02822630391787046,0.027520296374807383,0.030208476944699688,0.042929945970419235,0.042461068828409984,0.0370996126096537,0.051733456502034134,0.06479738586908276,0.07795238157019302,0.09451813291805354,0.08463329065895274,0.08313829811727436,0.09169252664645657,0.10200073726709913,0.09083594057514724,0.0930367725707212,0.0953294743077245,0.09937111361821926,0.10515924924667147,0.10771384576130487,0.1120085365754447,0.09978996237004252,0.10755227431077932,0.10874589188498862,0.11331941050357393,0.10467636280438557,0.1110135907142858,0.12236966665315645,0.12380551065225218,0.12526691749786326,0.12342680342692965,0.12822971786360085,0.13468830113598748,0.1494277795051831,0.15584625162763074,0.15061332854267268,0.15528332866176206,0.16320626584589093,0.16109524777850942,0.14229869587263666,0.10016422606505276,0.047947132081753885,0.03871898539299637,0.05918982012439166,0.11597786608931925,0.22897331667385526,0.3550225526462097,0.4128130637828436,0.4686844519274448,0.6437223253857949,0.7437937853987386,0.6411240122044789,0.4202906194210415,0.16918607992684073,-0.027617299733255638,-0.15025032411353953,-0.2485205366142618,-0.1947047357508489,-0.0734122629364995,-0.002414611439008148,0.0481775868188007,0.09664070222061688,0.13304731277837742,0.13253822133848656,0.12831970091864625,0.14364316720410406,0.14535229131396574,0.14508390203756572,0.1345657121200864,0.12377406572967015,0.12268463420589899,0.11970504829510566,0.09992426044000252,0.09986063020502348,0.08303459016341692,0.07766833875404015,0.07714397799808283,0.07318418913481603,0.06248836500429465,0.06332295424854778,0.042524087420816314,0.043243070709902166,0.05056486227630853,0.0479151716249604,0.027014617637594333,0.02271842306592874,0.02674683214275376,0.04077417015009206,0.03163494739108852,0.04413799498859408,0.04179939631971648,0.0495192143598993,0.0739479462451336,0.08357809539017237,0.09003663891587735,0.09001884409061171,0.1034459821626886,0.10710403084036063,0.12920845624893276,0.1349309562650202,0.13921355592969545,0.15533857318902505,0.0,0.0,0.0,0.0,0.0,0.0,0.0,0.0,0.0,0.0,0.0,0.0,0.0,0.0,0.0,0.0,0.0,0.0,0.0,0.0,0.0,0.0,0.0,0.0,0.0,0.0,0.0,0.0,0.0,0.0,0.0,0.0,0.0,0.0,0.0,0.0,0.0,0.0,0.0,0.0,0.0,0.0,0.0,0.0,0.0,0.0,0.0,0.0,0.0,0.0,0.0,0.0,0.0,0.0,0.0,0.0,0.0,0.0,0.0,0.0,0.0,0.0,0.0,0.0,0.0,0.0,0.0,0.0,0.0,0.0,0.0,0.0,0
0.4763708898148988,0.19204436624310905,-0.2323380656525445,-0.7139931997000369,-0.9048546499861831,-0.5783662089052485,-0.1599859305710204,0.25093318714819474,0.5108431604433421,0.6751405815581227,0.7550093039162814,0.8003137167672895,0.8001254304833858,0.7987747846234184,0.8019042065904477,0.7819944914604949,0.7999427939968557,0.7619067128758298,0.7121966739477272,0.6895930204537752,0.6831360769721576,0.6652839008893967,0.6361224992892267,0.601260825911396,0.5994622923362721,0.5865932077073046,0.5737796146116729,0.533460711141884,0.5043881033986016,0.5032056378768573,0.4857656353004535,0.4631806311201957,0.4576132781097506,0.4193823631578794,0.4148561196728565,0.4661904995469868,0.4463300073529571,0.4437414666562076,0.4529428270883136,0.4739760926490366,0.4903021833974446,0.5185372879652577,0.4647696819628938,0.5224512482413317,0.5424026151209472,0.5412299909314521,0.5576419642915592,0.5806079599903539,0.5990946146070997,0.6131182078322984,0.6337445700344179,0.6278262813867322,0.645106849472454,0.6579588196861196,0.6663828772656141,0.653797598428166,0.6312495928542143,0.6263610204627635,0.6004356080186224,0.5810892273877285,0.6180398405600562,0.5896880387383464,0.5899559728713873,0.5469746532021966,0.5546603324595044,0.5245595170066399,0.5008464937177318,0.4503251036120542,0.4005856873071242,0.3350061491907869,0.2977513945531624,0.27219564982291305,0.23065910652068985,0.16203941441545236,0.12707461996237776,0.12571295558885934,0.10816556066951716,0.08543194984490513,0.007722093097062006,0.0020862716648930753,0.018733989760222086,-0.0031778049875240658,-0.02501934325952121,-0.0855283769027406,-0.10738854634063974,-0.07959064370710102,-0.03532544382825845,-0.06303889117428611,-0.06880656280605878,-0.05264468937361701,-0.04772060335665019,-0.02088135908312598,-0.03844239278303955,-0.03408660314481133,-0.04096615218889367,-0.009335867575651384,0.011080399459662223,0.031348688419925816,-0.014832839651249357,-0.01692544203707834,-0.013598339940028705,-0.010361508192458888,0.003855189442124344,0.0014389620148579324,0.02109227620716263,0.04072858767493718,0.05484006583925674,0.0468661303272196,0.04998238424526782,0.06973283099159559,0.09508240482591776,0.1260482374948325,0.15159443918187535,0.15515821675387512,0.1257022921809839,0.16271407315265418,0.1833133273547428,0.19303937811104868,0.21400945140529165,0.1909719849670313,0.184726081064474,0.21185970250174727,0.2502759769239382,0.22261424192242876,0.23940586827637025,0.2674980137302038,0.251631546696952,0.26917655191203044,0.25934502906513945,0.28845191270016235,0.2791277406723369,0.3032109816163562,0.2888556085647092,0.3134234515339968,0.2940129770727178,0.3135092768776913,0.3111128726173499,0.3586532722262047,0.3732227819598638,0.3658585570914013,0.3862797983086159,0.41236232702477066,0.41092748710309857,0.3985310182748701,0.4248842440870361,0.4402235800721093,0.4610985942476117,0.4819515612110886,0.4419597193119203,0.5013488201624511,0.5274499325739079,0.5644323570300336,0.5459372952545216,0.5658650459993381,0.5689038052909519,0.5660542167368321,0.5848928986519789,0.5756258160230382,0.5492450132028746,0.5941074794725408,0.5609377156406973,0.5546658134524904,0.4757469561702771,0.4567370228991546,0.5141377794235348,0.5483969732568107,0.5815377888849014,0.7240010380171668,0.5943863209528089,0.308654194782572,0.3861801791784994,0.4897659238361775,0.2711586013992578,-0.22000540288084264,-0.7296189557515008,-0.8985548350119553,-0.5223521507751862,-0.04303860028059834,0.3074061195564584,0.5401624158105074,0.6664091585254746,0.7194276092352824,0.7656533358811775,0.8107293054356471,0.7718742873961916,0.7818276475590341,0.7578002424037096,0.7606821192350155,0.7518866209971905,0.7204546526014721,0.6775284518280702,0.6452992003349692,0.6183233267602982,0.5966803063217035,0.5804465226201969,0.5365377374021421,0.4926558140120009,0.4986050254076258,0.5047142659084525,0.4889413021863851,0.4734515619461521,0.4196190243552594,0.4103933089848269,0.4126702027249485,0.3988697135746925,0.42430388231490224,0.3895471092633137,0.3885912308614246,0.3883218550782439,0.4164116507573373,0.3955321566981296,0.4196672949828885,0.4446421831451165,0.4925951172880722,0.0,0.0,0.0,0.0,0.0,0.0,0.0,0.0,0.0,0.0,0.0,0.0,0.0,0.0,0.0,0.0,0.0,0.0,0.0,0.0,0.0,0.0,0.0,0.0,0.0,0.0,0.0,0.0,0.0,0.0,0.0,0.0,0.0,0.0,0.0,0.0,0.0,0.0,0.0,0.0,0.0,0.0,0.0,0.0,0.0,0.0,0.0,0.0,0.0,0.0,0.0,0.0,0.0,0.0,0.0,0.0,0.0,0.0,0.0,0.0,0.0,0.0,0.0,0.0,0.0,0.0,0.0,0.0,0.0,0.0,0.0,0.0,0.0,0.0,0.0,0.0,0.0,0.0,0.0,0.0,0.0,0.0,0.0,0.0,0.0,0.0,0
0.20097870653260372,0.3092111957616663,0.4340093002145268,0.4713710453973597,0.5168661397553542,0.6643848436769135,0.762959517792134,0.6683275656131293,0.44921315845241205,0.2296811356361114,0.05664789515285304,-0.04309640783312376,-0.135001917482798,-0.2509728597672252,-0.24009769450537374,-0.1241814328551068,-0.00047538076346231417,0.0689998682913811,0.1127866908766014,0.1426562065444454,0.1552851500996746,0.16579754628316656,0.1624831841851045,0.16381866553600166,0.1463524996114764,0.1486847510515006,0.15910201668677906,0.1524734203117896,0.13217784063742885,0.13010394443399406,0.1278270015358104,0.12033836086995245,0.11436837063939975,0.10323004774285567,0.09868384045431873,0.10242713368819482,0.08429208611006715,0.0862252659168858,0.07805789817813487,0.07490223927906083,0.0683908784935937,0.07698948980941035,0.06885066921302621,0.06411645499183538,0.07286599397053206,0.0749904707634741,0.07218289127531606,0.0812297072723892,0.0920835503816252,0.08631119007362434,0.08572912423865008,0.10041378080010277,0.11360769981081822,0.1236467400687588,0.12215782752715207,0.12760072913046844,0.1517262362278049,0.1693884957303156,0.18562853754603487,0.18200726781869309,0.19710576540233732,0.2057747334554353,0.2046660752278939,0.20720157711154247,0.2033227253460088,0.20980342938797825,0.20484348444465347,0.20689182554350516,0.21091708667275613,0.21524104976461955,0.2097989861580804,0.21471273261493592,0.2048216144599609,0.21198498430727147,0.2043317050036711,0.18520849470377992,0.17640905312084162,0.16618432989444712,0.14613857502203978,0.12464611959500292,0.10001801680249088,0.09236688222332654,0.08658591611351059,0.07930749530554533,0.05710101649299858,0.04678566866937691,0.03325307528413034,0.023196811478631986,0.016601921322642783,0.008422059297189451,0.007027526486163621,-0.004367786160223805,-0.00733110759665628,-0.011939802264634324,-0.018207990941083156,-0.02950284252483077,-0.03074179293841725,-0.021933296148373384,-0.006437068054018742,-0.016121291318041076,-0.01744698022086363,-0.015446715156090416,-0.02185978386044029,-0.00985090899683623,-0.00960383740173909,-0.002665735230045209,-0.005801771504835717,-0.00391212917472487,0.004686830367494488,0.008262387768829477,0.0118527122577249,0.012110475742891846,0.02245920288506969,0.017749260156762987,0.028174911385907556,0.020200865994897902,0.02402115819081213,0.02119407633118838,0.030173795102070976,0.03587255918794333,0.0349421008152261,0.030742337653779726,0.03837265107387331,0.05113008311382111,0.03715511592529753,0.048442536087509404,0.049778201923018066,0.05961464799159096,0.07795615674483736,0.0863587093439781,0.07979462678192176,0.07671507507985549,0.0821540916733609,0.08605150960861344,0.08337802476600703,0.08419772358241817,0.078449181185892,0.079549828537681,0.08079160993442427,0.0989453487454436,0.10550000193991907,0.0987774909852304,0.1022555778721318,0.10922388907586132,0.10961735739064957,0.11349546390998926,0.10072950001252473,0.10988838165414444,0.11413396428243712,0.12184646913582142,0.13637427317821746,0.12416913770690265,0.13385961102417734,0.14028160771805911,0.15684347071436638,0.15837974389502288,0.1650056493666907,0.17838761412016374,0.1767119632961636,0.1817685013378742,0.18683559870216054,0.1969303554142936,0.195266751701284,0.20698506317733967,0.20523476187458206,0.20844574734190846,0.21156761613258146,0.1894238281524196,0.14702442709722166,0.11956615117170698,0.1321824562491054,0.18149564994538864,0.2691586525689239,0.3968234769498287,0.4604840444267431,0.4718515851284904,0.5751252316868289,0.6595838948386304,0.5843159680665463,0.4197200383301827,0.2462543182186588,0.09741636807725168,-0.01845385104373774,-0.09301686517584888,-0.18333800409557133,-0.2341086504727528,-0.2436696883167383,-0.12145392763245305,0.0034300227913442297,0.09747929077788076,0.15737862862833082,0.1999373956661223,0.2302245259106269,0.2449224976864433,0.23400427338930466,0.22601468843831166,0.2377577698202853,0.23236949599871765,0.2098806630825487,0.1938001821550635,0.2076359148962321,0.2128423795274318,0.18764396810605544,0.17734765653995624,0.17359256406726034,0.16466274078469315,0.15896646324486702,0.14814027267110064,0.13891373626842726,0.12124476852492674,0.11527823098805925,0.10929364615182142,0.11001796333620392,0.10069830857114086,0.0981230818279288,0.10566344997384974,0.09147117402803843,0.08742695235161996,0.08180665470931622,0.07797953454511804,0.07763734506818354,0.08917981439623399,0.10423537044467568,0.0,0.0,0.0,0.0,0.0,0.0,0.0,0.0,0.0,0.0,0.0,0.0,0.0,0.0,0.0,0.0,0.0,0.0,0.0,0.0,0.0,0.0,0.0,0.0,0.0,0.0,0.0,0.0,0.0,0.0,0.0,0.0,0.0,0.0,0.0,0.0,0.0,0.0,0.0,0.0,0.0,0.0,0.0,0.0,0.0,0.0,0.0,0.0,0.0,0.0,0.0,0.0,0.0,0.0,0.0,0.0,0.0,0.0,0.0,0.0,0.0,0.0,0.0,0.0,0.0,0.0,0.0,0.0,0.0,0.0,0.0,0.0,0.0,0.0,0.0,0.0,0.0,0
0.17519557380157647,0.31547029998027404,0.4422466575212992,0.4874811957880227,0.5473724644927646,0.7164575435016408,0.8005991312193621,0.6786537711328049,0.4468072534026133,0.1829926180781055,-1.9647582950519518e-05,-0.13545482602564354,-0.2399478734262957,-0.2538053855024241,-0.13224245488559208,-0.03617008528359237,0.04771168885258132,0.09454852310487084,0.12925680770351256,0.13361761669028693,0.13918235102967422,0.14432109479357888,0.1391080739410271,0.1401613118691644,0.13589458495094814,0.1296522607147979,0.1314141569771068,0.131251054010269,0.11757404257566922,0.11529227086436332,0.1012023584306807,0.10353035401455918,0.09575372981673247,0.10443847847335176,0.08978881624293432,0.07505166992014052,0.08347351735554945,0.08852948793465201,0.08360268295804779,0.08364318280181651,0.078715163225254,0.07049560885331416,0.07559240269715624,0.07079629672450449,0.06607831374556193,0.07140912258904801,0.06689647776807024,0.08075971751663713,0.10140106702097754,0.10892718546760947,0.11330680896175906,0.12782619385317393,0.14088554335418785,0.1624518432690852,0.17262879105039056,0.1764047584947811,0.192039513776776,0.20461129424260935,0.2224238312040912,0.22557628143274155,0.219052176184294,0.22940134055599465,0.23174249873724576,0.23271484427501446,0.23397931468310024,0.2322185865804075,0.2307502964501656,0.2378680170033446,0.24029674547651264,0.23471448440750026,0.22443416461130924,0.2194036730914176,0.20966138539778476,0.19685780714357728,0.18596046051548373,0.17032265632958474,0.15159193780078153,0.1347330614111427,0.11807389592214937,0.08998744178862811,0.07202675790041795,0.05754090172633061,0.0415376030416128,0.01736527147677809,0.016529855099490908,0.0008578526616244995,-0.004781087005688032,-0.012016033045518423,-0.009249146234528232,-0.013084997310058098,-0.02021888905786105,-0.017390686547597903,-0.016223820657838138,-0.011749745749683124,-0.01724773176374256,-0.011156251170062791,-0.015046981350012962,-0.010673761275709962,-0.0013564221789624607,-0.010322170566953294,-0.012686143320244434,-0.01176604819701245,-0.007560322891369202,-6.62873228478697e-05,0.00740139193924388,0.0231412817044663,0.02724836029160152,0.024702976916392318,0.03375760407457694,0.04446103926319054,0.035248684109675604,0.02934959382234288,0.030084258083387237,0.03247785762591129,0.02989639032150265,0.02731891873403309,0.02142919374429974,0.02550115404075212,0.022946047241827992,0.0303556422646872,0.016209652529739525,0.0170079697283926,0.01616136641660369,0.015329886952952206,0.012855430008736209,0.008738850046043542,-0.003655192511086432,0.01217276251297533,0.013088965406364951,0.014025741001267435,0.0017117972012222998,0.006010615226904001,0.003696629652813333,0.003065861364642642,0.002460118123588257,-0.00807396983958338,-0.006968168230428729,-0.010811221852535646,-0.0030105647290178464,0.014778039340616313,-0.0005766984451076687,-0.007595486326405705,-0.002956723882307558,0.003389651357561153,0.008130112513242204,0.007951115756520476,0.0011981090488429734,0.0061248898787732466,0.0078046009398372845,0.0045826138229085045,0.004758455737203291,0.011654533658195059,0.023616133448404613,0.02737525561611221,0.037867334072749295,0.041824114369650764,0.04422650956395185,0.04341909383131744,0.06097267437800926,0.08030009518965359,0.08481389538850485,0.08447073163993524,0.07761360945826777,0.0824935012868625,0.0874984075769891,0.08931107851353384,0.08627285922956981,0.08999690782457423,0.10877788615327907,0.1177293572813848,0.12846305407010258,0.12936366657071255,0.13038266424214448,0.133175707523872,0.14935199958339546,0.15733942890518496,0.1405422345343867,0.14872516642798675,0.1536777471412417,0.1620284368482926,0.17376879757364652,0.17561732167782926,0.17420002196007406,0.17946009801345505,0.19138568378958892,0.18673756177645756,0.18375136853923904,0.19070761231395508,0.18602329865574135,0.19622642034818585,0.19641403441141989,0.1849086708966178,0.13846445606186156,0.08360556482861722,0.04353741491562112,0.04312403845400998,0.08068473084425218,0.18274212335044224,0.3426377950085282,0.4608065944912625,0.5587910254188196,0.7294696823080603,0.9197235109809514,0.9420481822528548,0.7482934933004447,0.3832103477120625,0.020950437946102747,-0.189221946194148,-0.3070807071258945,-0.2281375595992162,-0.10336604149160593,-0.01237962268273627,0.05314676605356669,0.10817549976853036,0.12951094165438534,0.1304556277108052,0.12265241394253056,0.13433382847840938,0.1306885534566845,0.1399478320749917,0.13061708624011326,0.13424427084820642,0.14587797402505556,0.14397578827284455,0.1385161930681547,0.12288662360637992,0.12365447130644087,0.1142974750669524,0.0,0.0,0.0,0.0,0.0,0.0,0.0,0.0,0.0,0.0,0.0,0.0,0.0,0.0,0.0,0.0,0.0,0.0,0.0,0.0,0.0,0.0,0.0,0.0,0.0,0.0,0.0,0.0,0.0,0.0,0.0,0.0,0.0,0.0,0.0,0.0,0.0,0.0,0.0,0.0,0.0,0.0,0.0,0.0,0.0,0.0,0.0,0.0,0.0,0.0,0.0,0.0,0.0,0.0,0.0,0.0,0.0,0.0,0.0,0.0,0.0,0.0,0.0,0.0,0.0,0.0,0.0,0.0,0.0,0.0,0.0,0.0,0
0.400246966191125,0.43151899701186336,0.5889897361163376,0.6665772397449499,0.4976457408438434,0.4152450137622991,0.5288773219125052,0.4352042709741049,0.07277720991178252,-0.370010251186464,-0.7573636949912486,-0.5940282225701501,-0.2437911903582312,0.10494590746579603,0.33831974445576585,0.5177958990111808,0.6084070716664571,0.6190157313703181,0.6461460198237303,0.6416722042494591,0.6495132716671531,0.6434532289053582,0.6148057781837818,0.5855640546316478,0.577718119349289,0.5431233337866817,0.5256801213301885,0.4903879464406609,0.4855251242265658,0.4454033886327541,0.4533620611173802,0.4305585137645903,0.3945790381145875,0.3542413014362462,0.3490436482789112,0.3132849942402963,0.2952266389237577,0.27737977941697833,0.24663737241382636,0.2775557024968756,0.2868933344441526,0.3185212816971953,0.3330276441826465,0.31291510791764104,0.3283494085686958,0.3311473522635241,0.3695552896491595,0.3822370221513709,0.3648365680314203,0.36121162749864094,0.3713857191857243,0.3866140841884639,0.385000399455917,0.3665625875636205,0.3882987106970558,0.4502229336168248,0.4602995290629926,0.4360714121454598,0.4432947896096636,0.4512925015776169,0.4556845861336654,0.4608552963784074,0.436120721074469,0.4077767093199368,0.4152666368274322,0.3884509469415261,0.4325174362488116,0.4247237006333792,0.4395707816642448,0.4025275821529964,0.4231567081112795,0.4050066731619619,0.4094203617620567,0.3530918539356657,0.32804261218028835,0.2816455541346093,0.2489366720118554,0.2123517209249209,0.17185815426086104,0.14495530660564654,0.12284223881819616,0.08795081550213496,0.07969435166183593,0.04105453628123135,0.046509732053899334,0.008358374043671554,0.001078387122784507,-0.03234941780979983,-0.02621363454441105,-0.019997441421810185,-0.02688211205119571,-0.033747605848550064,-0.009938385471690415,-0.02122689382224083,-0.02818697191008207,-0.01330662288708236,-0.01605323675472033,-0.018910874773358663,-0.021895016103389075,-0.007486400414579057,-0.01952898770148833,-0.0010516047448939148,-0.013428588035004985,-0.008453280675076308,-0.01681599336134188,-0.003457697637669299,0.02723311081702192,0.03141914315066662,0.0047120960000668274,-0.0002944264817492897,-0.0011386155323159875,0.015324015757009497,0.03155541228768435,0.008101263644186318,-0.033127598014746434,-0.013238316424752004,-0.002364903338582013,-0.00927481251760568,0.0010970843364266232,-0.032614389637409515,-0.04027734460405575,-0.03065503567028088,-0.03880630603139711,-0.03842178630300575,-0.02510459919853589,-0.016370396058618446,0.014099914106841175,0.022495205645480597,0.05266899719296997,0.0301273299456872,0.033789232633329294,0.04614239708258035,0.07159052487086204,0.07070472946980881,0.06103783101037286,0.03384288166357802,0.07242057893827612,0.040909664159903616,0.053292953695670366,0.03945715831049944,0.038869615789049065,0.042781873497004116,0.0775111703670117,0.09485952385288897,0.09046092124640244,0.08186505423860012,0.06470498351902282,0.08721218932450184,0.0924201706218272,0.07596081918940414,0.06853145061982567,0.07891282200468819,0.10711887629957458,0.10494756876277613,0.10747779810642533,0.08842263795348868,0.11792581080430528,0.1477832320827606,0.16923934923810713,0.14285522062777622,0.1256222446788159,0.17453110554217113,0.14494301524607678,0.14206275030790802,0.1308308188697991,0.13755231911145474,0.14908257340406392,0.1522762163572199,0.16466978734331,0.1731164141779785,0.16446840132793294,0.1518766021140907,0.17040722621226342,0.17622748060640933,0.1912522563350575,0.14534761277235114,0.15247455408511754,0.19947952126009588,0.22499259977807312,0.21585847085541154,0.22028599109679656,0.2251176374632369,0.23911096418268665,0.257872692676772,0.2989245275091993,0.2921221690926077,0.34703248853158497,0.3715920523083868,0.3876998209667095,0.4172528970899879,0.4076314371930895,0.4201776407502801,0.4329501900304165,0.4809877310260935,0.4853626157550723,0.4898753919991024,0.4944918233330531,0.5210914026517339,0.5477187929970365,0.5918651736082592,0.5702045631249926,0.5791206861755445,0.6054135228809032,0.6446466292373866,0.6529314125192761,0.6477413571190289,0.6465466827720396,0.6536646632887758,0.6427266895706296,0.5785944127169158,0.5269406921992443,0.5665852017353009,0.5615664291096834,0.6389141735437882,0.7766254112879423,0.8080471446220587,0.7067860363591596,0.8234029826632359,1.0,0.8638964365906238,0.4982631575518137,-0.061948884615088726,-0.5626294417555223,-0.7365126733527468,-0.6494052052859461,-0.4503251737785587,-0.08221694180865281,0.2402572926956432,0.4514731575545986,0.6085356800046631,0.6984158580864163,0.7036984114226575,0.7428448754776801,0.7852832520847948,0.7697551786772742,0.7138966095809727,0.7230043651334538,0.7095093236565067,0.6954196419345986,0.6895902219874374,0.6658066028214804,0.6372999971464952,0.6172982886392355,0.6234094102158483,0.5943399649921951,0.6002905112184901,0.5711950917849579,0.0,0.0,0.0,0.0,0.0,0.0,0.0,0.0,0.0,0.0,0.0,0.0,0.0,0.0,0.0,0.0,0.0,0.0,0.0,0.0,0.0,0.0,0.0,0.0,0.0,0.0,0.0,0.0,0.0,0.0,0.0,0.0,0.0,0.0,0.0,0.0,0.0,0.0,0.0,0.0,0.0,0.0,0.0,0.0,0.0,0.0,0.0,0.0,0.0,0.0,0.0,0.0,0.0,0
0.20807203690376594,-0.010789474053237014,-0.4131229841003713,-0.9081402890707628,-0.6857859965139858,-0.2716274750522675,0.038037565223391454,0.2433223596013773,0.41152058508994804,0.4676598345163198,0.4711269069201797,0.49711347054973604,0.5180619892186532,0.4985088374193961,0.5136382518883388,0.5240297223868887,0.5139709817467347,0.511216963297111,0.5158574173738788,0.5121723307203895,0.5239571295621409,0.5157276511091263,0.5033705371856954,0.4593000303317841,0.4547229031577284,0.44624137734293295,0.4339252215984442,0.4455045865668859,0.449430425110922,0.4260068682010541,0.4543308465787431,0.4593768877510964,0.4609604926171494,0.4551840539299592,0.4697620746555063,0.5047441687010378,0.5483221955326574,0.592637292772548,0.5903098376626811,0.6204149043201131,0.6513741627588568,0.6753169921799439,0.6922731186674386,0.7417869104896787,0.7211344069801658,0.7488888436455605,0.7460297564743171,0.7560387951952979,0.7710204549885781,0.8028344602248737,0.8119632557726221,0.8300177061125796,0.8293275877553734,0.8335919515231041,0.7598070509230013,0.7462658766102471,0.7534265357432154,0.7022253853816626,0.6677152886526793,0.6301023525102679,0.6130591659781442,0.5849299412913339,0.5377666366505728,0.4833772949915073,0.4256636666627535,0.4119949057726102,0.36723217992641705,0.3466440586934573,0.3343648416974932,0.28291268032660577,0.23569549731390624,0.2400716027060277,0.2406512792721078,0.2097062225617343,0.21830197179118427,0.19523815007637849,0.20367455283877514,0.17636053737060894,0.2080683195452108,0.18017193207935991,0.1874416687021024,0.18633385659050394,0.20443631949790825,0.21005892135452456,0.2307875320628153,0.21517093369216825,0.21450360317431846,0.2445127246940226,0.2853581930257097,0.28558426536479825,0.16211935710035422,0.02552874766936381,-0.05314111285720656,-0.29922904282138546,-0.7760449352056198,-0.5905342020178211,-0.19318116915101827,0.06042918329711405,0.2217658207630826,0.3264901990297844,0.3588892406510074,0.3743806695141664,0.4086214056758552,0.4300858653816218,0.4349090349084497,0.43898275948861215,0.4305340966707441,0.4333541259819933,0.4277619536328667,0.4375443397093989,0.0,0.0,0.0,0.0,0.0,0.0,0.0,0.0,0.0,0.0,0.0,0.0,0.0,0.0,0.0,0.0,0.0,0.0,0.0,0.0,0.0,0.0,0.0,0.0,0.0,0.0,0.0,0.0,0.0,0.0,0.0,0.0,0.0,0.0,0.0,0.0,0.0,0.0,0.0,0.0,0.0,0.0,0.0,0.0,0.0,0.0,0.0,0.0,0.0,0.0,0.0,0.0,0.0,0.0,0.0,0.0,0.0,0.0,0.0,0.0,0.0,0.0,0.0,0.0,0.0,0.0,0.0,0.0,0.0,0.0,0.0,0.0,0.0,0.0,0.0,0.0,0.0,0.0,0.0,0.0,0.0,0.0,0.0,0.0,0.0,0.0,0.0,0.0,0.0,0.0,0.0,0.0,0.0,0.0,0.0,0.0,0.0,0.0,0.0,0.0,0.0,0.0,0.0,0.0,0.0,0.0,0.0,0.0,0.0,0.0,0.0,0.0,0.0,0.0,0.0,0.0,0.0,0.0,0.0,0.0,0.0,0.0,0.0,0.0,0.0,0.0,0.0,0.0,0.0,0.0,0.0,0.0,0.0,0.0,0.0,0.0,0.0,0.0,0.0,0.0,0.0,0.0,0.0,0.0,0.0,0.0,0.0,0.0,0.0,0.0,0.0,0.0,0.0,0.0,0.0,0.0,0.0,0.0,0.0,0.0,0.0,0.0,0.0,0.0,0.0,0.0,0.0,0.0,0.0,0.0,0.0,0.0,0.0,0.0,0.0,0.0,0.0,0.0,0.0,0.0,0.0,0.0,0.0,0.0,0.0,0.0,0.0,0.0,0.0,0.0,0
0.7610637829583643,0.6426292419276839,0.41643720072548496,0.16462157427129806,-0.010560710282642565,-0.13263538900889604,-0.2502835627359289,-0.25955843258838635,-0.14202107403196085,-0.03517738622623125,0.05764751979597295,0.10126714202389396,0.1376408854808871,0.15338363920315154,0.14349506003025395,0.13819295311630295,0.14756931172139925,0.14146524930346294,0.15177351593153707,0.12820868547202888,0.13117259222665734,0.13050350456953022,0.1195183118336195,0.10494998044684588,0.10862470005960133,0.09534703471937113,0.08358792380002658,0.08510946513402963,0.08819406179239771,0.0710611440894687,0.06895080222227612,0.06679003503536421,0.07130768223953225,0.07413842878137375,0.07530205907686569,0.06475543964048748,0.07941361412007375,0.08239928951766695,0.09217878541868428,0.08696782057468044,0.08690893288225689,0.10040458698799964,0.10399208016420997,0.1194896701023463,0.13349617930072802,0.1527349272280309,0.15038674184085538,0.17342370028975976,0.18328547651208615,0.19675488697812096,0.18868655169179385,0.206049028549635,0.20189282472811426,0.21312197723650664,0.20284750075136945,0.20461717480484992,0.21172757585417645,0.22585971327849844,0.235276808206614,0.2181784052594014,0.20978397352670225,0.2134471583767118,0.22413510024996264,0.2150116867309293,0.21626078558158932,0.19936699745092334,0.1961891249401064,0.18659514656699855,0.18063970153189654,0.1615430368344209,0.14942050270998142,0.12916772644606572,0.12089850346038596,0.11286125050240182,0.0933037798290557,0.07059843380974498,0.06317963550432161,0.04755417494149455,0.033770350282974364,0.025167857113361128,0.008315310149913883,0.008354295906462134,0.005144896878192748,0.0020264306106384912,-0.0010159934782702042,-0.014059823312109686,-0.015317677465455676,-0.011511389256171504,-0.007684245621202345,-0.008878439915514031,-0.015104161886061491,-0.016308210618653948,-0.00579013270683933,0.0013498889155767215,-0.0032794138163684513,-0.014652586104610453,-0.014327131994300647,-0.00901553155829481,-0.005428903791909257,-0.005246237610285385,-0.015177279787381209,-0.0016810898671667225,-0.011715663226862157,-0.008384275462202452,-0.01348728123547955,-0.013605323470078328,-0.015442858216373815,0.004484592609049926,0.014318964509693782,0.027483633008187482,0.028891351605835894,0.02190273960292741,0.03168045746325876,0.03139722888860092,0.029444534411175637,0.01911987676302956,0.0205540706784806,0.0169818288581658,0.02685667646510679,0.02838186491576593,0.03833360897907928,0.01646688066165365,0.02316193239558855,0.01985055338660154,0.021631335480634832,0.026831859255274045,0.017008685115837804,0.017322610548881408,0.019392523966355345,0.024899774376511127,0.035525613824980394,0.017732254625784743,0.023513382744383464,0.034424765019486436,0.04376168913380254,0.05320472665401032,0.05269459192742988,0.053973918898014485,0.050337074819609216,0.07029707230920272,0.07025175063137426,0.0518800600074335,0.0604649706404697,0.06414299806156012,0.07297763551590261,0.08529241712279187,0.08263960009775552,0.07843574802385549,0.08106573768147639,0.08717441526134986,0.09005203922240124,0.09808225296551017,0.10120024641421156,0.10108035749168837,0.10107350932145047,0.11962394043925073,0.11983137436184993,0.1201389461377521,0.12892664444923574,0.1394800364698178,0.14676113594135204,0.14740835040706854,0.15147608321698966,0.16566381827626725,0.1731910052878119,0.16566172164323734,0.17492936761654604,0.1825337791263633,0.19852446787097847,0.20443948245328325,0.2153577028850086,0.21952352775553,0.21356573487350325,0.2226225548564476,0.2181642320433212,0.17669117126498474,0.13172378738414325,0.09162524378426096,0.11674787247819272,0.17017225766215496,0.2854162302584777,0.4255589398627265,0.5134279201519006,0.5640885930940424,0.7116772888282792,0.894107846468375,0.878227244182636,0.6774103962293021,0.3285071025522183,0.027687440191349118,-0.15298490526421646,-0.2839991387951019,-0.2882459060787423,-0.16070379454142222,-0.03384548677618328,0.05714289117483407,0.10894316142035332,0.14507031957958544,0.17226790454034455,0.16876817941234448,0.16982364681878095,0.17546705030921445,0.17231355470249948,0.17548799790874126,0.17160380584376891,0.16739862140212952,0.14948413504063346,0.13633593305260444,0.13636630710133718,0.131153407945518,0.12575398133412286,0.1201928436444111,0.10946290887905856,0.10365031089055332,0.10780936261216248,0.09680621709753716,0.09749631560184316,0.0813906056977152,0.08372901313545016,0.08440704706087072,0.08512198359500035,0.07918522081583232,0.06661609599767772,0.0,0.0,0.0,0.0,0.0,0.0,0.0,0.0,0.0,0.0,0.0,0.0,0.0,0.0,0.0,0.0,0.0,0.0,0.0,0.0,0.0,0.0,0.0,0.0,0.0,0.0,0.0,0.0,0.0,0.0,0.0,0.0,0.0,0.0,0.0,0.0,0.0,0.0,0.0,0.0,0.0,0.0,0.0,0.0,0.0,0.0,0.0,0.0,0.0,0.0,0.0,0.0,0.0,0.0,0.0,0.0,0.0,0.0,0.0,0.0,0.0,0.0,0.0,0.0,0.0,0.0,0.0,0.0,0.0,0.0,0.0,0.0,0.0,0.0,0.0,0.0,0.0,0
0.6624758476532334,0.4488665792126164,0.1992036441938902,0.16517272993597085,0.09489884727731034,-0.15488290733072682,-0.4756580716898913,-0.8082660658514477,-0.7034892129567388,-0.26989818709137714,0.18652878463141614,0.4684500269027551,0.6500502104612371,0.7709536465073279,0.8115390806395886,0.8163605786517711,0.800346990966798,0.822854822717837,0.8099413677636835,0.8061444363907235,0.7720711757647961,0.7374407369055536,0.692473533576201,0.6767548884619685,0.6558137676918531,0.6247969112958356,0.608468937910484,0.5624753076118152,0.5757536476705735,0.5891329846038351,0.5631869046107215,0.5374758020265666,0.5120623783516137,0.4968803669322375,0.4771766427400656,0.477690473245459,0.4589795650721416,0.4556521305800361,0.4677560699432425,0.480526426237495,0.523627640271317,0.5279845579696806,0.5084460205330631,0.5341636849774337,0.5607388949995253,0.5684546215405006,0.572149049135045,0.5323520643064548,0.5280753235344847,0.5741486465751451,0.6162831782318341,0.6446189290778566,0.683850845558623,0.6846177568363327,0.7111028439080914,0.7090012339805154,0.7029942525471382,0.7078859608701814,0.6792345898897514,0.6812057425927128,0.6841612931541321,0.663396569332933,0.6287614953695709,0.6295975554222224,0.6165058975901674,0.599326837335761,0.5681501691415863,0.5130626908560407,0.4537695172521017,0.4297206362395761,0.3915002938544065,0.3390591836550645,0.2328511647979849,0.2061184875836688,0.1650066958785271,0.12920807404566598,0.10854036218957004,0.06838891786121454,0.018570292422902847,0.003458712580345986,-0.0016877223882012086,-0.03642150933576003,-0.031684073305162486,-0.07145602728555496,-0.061988028226563324,-0.06750345235749355,-0.06829317363126289,-0.07919967046081139,-0.06075347766930315,-0.047530500299773404,-0.014858556464026644,-0.04173500074033002,-0.049176268541814484,-0.06186888232053143,-0.005757500531600622,-0.04375016548972981,-0.017858497729960253,-0.021869801762733208,-0.0064007567766460275,-0.015866296967977832,0.013930163015448416,0.0385758043474595,0.04821575583906418,-0.0064999234783189135,-0.007068188824636093,0.016908833695766682,0.021019110618768388,0.0694614354126415,0.07339184846040421,0.10194555044016966,0.1205833232068176,0.1095760177251884,0.11337305700692984,0.10237042199503543,0.11114270173063692,0.10514793882676178,0.084401637470926,0.10322423184923206,0.08757738421274884,0.08190687139308993,0.0911631554343795,0.10548571000867137,0.08539239529681589,0.06545343823967836,0.05061748114072128,0.07545399671164164,0.08073187193788164,0.08127251072346492,0.09189691331305518,0.08299393707562333,0.08419429524642544,0.12512828609103227,0.09719371775154992,0.09419901684406497,0.10134121253951317,0.13343802068917188,0.15100119469997478,0.13922611885160674,0.1622971762189152,0.17085028265702015,0.1796997174985834,0.2184694846625664,0.21804549731792253,0.1981760493124597,0.2181032211670668,0.23339405065839525,0.2440462215601297,0.2698036891259853,0.2761037326402879,0.29256145733234085,0.2944851321745032,0.3312344575204123,0.3238093113711983,0.3363768443202628,0.3689234129510274,0.3868756746746952,0.414900757636256,0.4529795575394714,0.4467854398460335,0.5147795915598316,0.5335148447415761,0.5671421228317178,0.6008199278953477,0.585145908998945,0.6138836398739093,0.6376248397575353,0.66620047381977,0.6650065825932222,0.6438676121212705,0.6817207179903749,0.7093940480718032,0.7218915165966566,0.7191503504383674,0.7011041670127843,0.6726198475965752,0.62868704872043,0.5840395022660848,0.563281515905174,0.6403830732375299,0.5980366243137155,0.6089433266620373,0.7273167169259745,0.6667239737649734,0.4418770756217269,0.5216757516755918,0.5160039491331903,0.2914597066760794,-0.14712944788194254,-0.6122736383604829,-0.9362164497318844,-0.6302474261557287,-0.20281281296821774,0.1832811908799026,0.4294268286185416,0.6098055135116395,0.6998593194375724,0.7293327269854303,0.7378404366728473,0.7649935023538222,0.7664726752664633,0.7621340566447897,0.732335038458876,0.7117346577467941,0.7201777110337109,0.6886419631452263,0.6813967875578016,0.6787815011243757,0.6710057329390915,0.6729600162514405,0.6600366523816817,0.0,0.0,0.0,0.0,0.0,0.0,0.0,0.0,0.0,0.0,0.0,0.0,0.0,0.0,0.0,0.0,0.0,0.0,0.0,0.0,0.0,0.0,0.0,0.0,0.0,0.0,0.0,0.0,0.0,0.0,0.0,0.0,0.0,0.0,0.0,0.0,0.0,0.0,0.0,0.0,0.0,0.0,0.0,0.0,0.0,0.0,0.0,0.0,0.0,0.0,0.0,0.0,0.0,0.0,0.0,0.0,0.0,0.0,0.0,0.0,0.0,0.0,0.0,0.0,0.0,0.0,0.0,0.0,0.0,0.0,0.0,0.0,0.0,0.0,0.0,0.0,0.0,0.0,0.0,0.0,0.0,0.0,0.0,0.0,0.0,0.0,0.0,0.0,0.0,0.0,0
0.13706970454479575,-0.020058572941989598,-0.3605926665023804,-0.7672536789699977,-1.0,-0.519900017756385,-0.0045396494263283856,0.3647944256693992,0.5615605355366882,0.6552635417637609,0.7420855974568462,0.7848050828010454,0.7888848264665659,0.8024718920112949,0.7669890012862516,0.8159515788919182,0.8053981815486588,0.8048040807844129,0.7715841039893405,0.7111732333104284,0.7303869703927404,0.7279324863138426,0.7199057372274564,0.6903829204400515,0.6874688720990506,0.7059047777959068,0.6710601275439348,0.6310293387077045,0.5912153144380541,0.5410097431467176,0.5178255359460878,0.5323927995791575,0.4833826345143684,0.5095843731423174,0.4509678185487716,0.4676614177458365,0.490342508748645,0.4977102700424719,0.4791334681283215,0.4666665398689417,0.4816894867314662,0.5082278378013724,0.5196326739884305,0.5266046741121785,0.5345058989646481,0.5540317961786368,0.5531869819443535,0.5319894214778463,0.5918386914788518,0.5780027552214356,0.581203530536496,0.5907756678225567,0.5907148915963526,0.5543419327680054,0.5456869063635036,0.5647449173295312,0.5581481435368727,0.5312221576372299,0.5266418805905445,0.517711319012192,0.4670598065798719,0.4973946843387906,0.4913000641489684,0.4754301072286963,0.4230763196545766,0.3768960885864536,0.3528645864818893,0.318930922540772,0.2910666204172885,0.2425534501979185,0.21070396500568075,0.13678114764188176,0.14880762263278888,0.1453564764410513,0.09970432958911944,0.027815234730155458,-0.011659095091232459,-0.002755244819703484,-0.004212969883797568,-0.016075545458292498,0.00430231242726697,0.04620721627878743,0.06157361804165621,0.023679818081726152,-0.003483853412915567,-0.035967482615323336,-0.015116546634562578,-0.026345642000542287,-0.03233947229609632,-0.049140436909435724,-0.055435723929946494,-0.06192397229032842,-0.07396253466537135,-0.03820666244699311,-0.008024977869053242,-0.02077441394006848,-0.017762783741196737,-0.02567224461045927,0.0035210116764926467,0.005786815060374297,-0.024208803617653298,-0.04911168353741055,-0.01022128458582722,-0.008912996963998854,-0.007824723383430557,-0.017617698598145912,-0.000928235236216618,0.015576789386011728,0.015902625862814237,0.010734546225202994,-0.015922356329623154,-0.010694784043418998,0.005087795367997743,-0.016583169127390215,0.015020262466978294,0.019874969896355846,-0.007337964097403063,-0.034585417098336416,-0.019161529855619242,0.006938564398283479,0.038401652096926614,0.032562345932086005,0.048139444005874776,0.05847526378248825,0.0742640210778589,0.07951954001091645,0.07959935283703203,0.0798605942138764,0.13368417957958642,0.15571410860177234,0.1619780899457446,0.1685030537062704,0.15929900090284665,0.2090874277300261,0.21116435850670795,0.21890536803875466,0.2056446773481847,0.256771830077048,0.29759474571990513,0.34946841746662793,0.3910581916202655,0.3690115479569592,0.3473664479729001,0.3794869683782657,0.34264679353448124,0.3702466638466932,0.3555647125999276,0.3733018972265391,0.375428940460175,0.3779469368946367,0.40219112384316,0.3947905707863818,0.3984206938037809,0.4077307562447514,0.4333760889476281,0.4753379443686908,0.4695631697141337,0.44270857319075374,0.4801248336950029,0.4964077809280912,0.5235432809780689,0.5081384000678936,0.4928459442585789,0.5309882186474107,0.5638286469550831,0.5699801370101529,0.5814129761393104,0.587406442855465,0.593244968199056,0.6042100461783088,0.6415882641690165,0.6572949302629649,0.651266323387848,0.6501155353173925,0.6697803617654344,0.667499129362629,0.6698750740715999,0.6288038162614096,0.6189060838008945,0.6934553810832631,0.7403055021830656,0.6579788136262191,0.6331390530745143,0.6710219929150242,0.5527474055458124,0.2888805624128585,0.28484944117123145,0.2630700324636858,-0.027362997993546568,-0.4211467504317309,-0.8543601030159209,-0.8681764550237607,-0.483929829295414,0.010327234885345687,0.3906204099381698,0.6517521310761412,0.7671788009537464,0.8064019210192773,0.844255176691158,0.8435118042313355,0.8469811165879246,0.8120918913238308,0.8189971279715214,0.8091092491364512,0.7825328009439397,0.7447043038371968,0.7330724847802472,0.6890339896611354,0.6927183154730363,0.6588348982509369,0.6088101077209815,0.5747390591630966,0.5300176053011662,0.5494231025823759,0.5316416018493728,0.5034208835685718,0.4434818912211487,0.4532715080590053,0.4528097245439386,0.43148252301398254,0.4160257608075051,0.41182905839371264,0.4136079163847339,0.4267478159756786,0.4459601305938016,0.4872981793838243,0.4814367338636274,0.5191287249842964,0.5417161203174192,0.5599065500247361,0.5844049356873857,0.6099053397613463,0.6044188033572343,0.6480097352058386,0.0,0.0,0.0,0.0,0.0,0.0,0.0,0.0,0.0,0.0,0.0,0.0,0.0,0.0,0.0,0.0,0.0,0.0,0.0,0.0,0.0,0.0,0.0,0.0,0.0,0.0,0.0,0.0,0.0,0.0,0.0,0.0,0.0,0.0,0.0,0.0,0.0,0.0,0.0,0.0,0.0,0.0,0.0,0.0,0.0,0.0,0.0,0.0,0.0,0.0,0.0,0.0,0.0,0.0,0.0,0.0,0.0,0.0,0.0,0.0,0.0,0.0,0.0,0.0,0.0,0.0,0
0.41075780081127705,0.2995873523604041,-0.01469142244345514,-0.3831349708566463,-0.7576127664561254,-0.6823169612342629,-0.2624219086112752,0.09013635634732964,0.34478823798343433,0.5060295758721798,0.6484862574775994,0.693368389237542,0.7284457932550141,0.7187542240884316,0.6906910944185661,0.6969496375913494,0.6981716829702578,0.6856782253462406,0.6595532401305919,0.64617668877976,0.6149431703720496,0.6097590606717843,0.6043958888973534,0.5638556639930824,0.5451853234508348,0.5133810349571711,0.5211009550596374,0.4895036012192002,0.44932577887655417,0.4313018459543875,0.4223315563526928,0.4136957432016125,0.4317390138885486,0.4151391925345838,0.3990031308320944,0.39213619034121294,0.3682758516913763,0.4019720568368131,0.37929376955914695,0.4098529664881045,0.4060141195124581,0.4116367234375519,0.4223626498649507,0.44259818369136267,0.4548313193033458,0.4196316593996388,0.4509797834006891,0.4568420928177806,0.4722965707053033,0.4754368512952419,0.4487374430761071,0.4930178423154169,0.47240057166694605,0.5008501258399259,0.4775500863111024,0.4813941956211771,0.4553935006396356,0.4784369491857702,0.4803811969724446,0.4875116937941396,0.469129422927409,0.4953473520960812,0.4740963810198043,0.4623349478203908,0.4644202912651863,0.3970426236591944,0.34345279330240785,0.3080014199728587,0.2994206419239921,0.26069252131145143,0.20492939501775276,0.17592494663846625,0.16487300624962553,0.13228387412687,0.06934967635646863,0.05054335665354251,0.027606911282186963,0.0004976769228954538,0.008621973876026333,0.003721405165950304,-0.014246876159649669,-0.03655926418135631,-0.045724328047756786,-0.033013635256101154,-0.02037705966813589,-0.038527810329018385,-0.06557833159067569,-0.05772122896615296,-0.03689141411769624,-0.029401550930179817,-0.03087814842847565,-0.015028743793216547,-0.02130647687163685,-0.01464805221084802,0.0049459638423002905,-0.0063559608878827785,0.004045802959455684,0.018619716731370875,0.0066845143277626815,0.03399002281631034,0.017256020703196418,0.026615367422794592,0.0007037639479704457,-0.00787909260136385,0.00963413398208262,-0.0037370076713044717,-0.030458009532346918,-0.017928122641096573,-0.01874136227182319,0.024090852957358005,0.040445048415723335,0.04347910806650737,0.07703336382336326,0.0622173295017595,0.07793662036803077,0.05844976120231912,0.0475957805861682,0.04099782171913375,0.043045261300629,0.04936079956219823,0.08624957168474011,0.07920204403941207,0.05452267375525642,0.056048464908615515,0.06186761287176085,0.05445126851401924,0.060102630760454676,0.039376090189086166,0.04049045165238181,0.07221520146793732,0.05127167297410703,0.04779408931154271,0.0442517024749284,0.05817941140354261,0.07642924360249022,0.046403814025397866,0.033852720442937564,0.04316002825538925,0.030494040466248876,0.03530432332709371,0.0006091043529352614,0.009689978197332815,-0.016351185888741626,0.0013839195134779248,0.023447790222153386,0.02354262235398914,0.006053144962399493,0.00604661956334774,-0.011541494423009885,0.019038654196128317,0.02327446939536969,-0.003214968213866955,-0.012211865519948276,-0.0037137171224418783,-0.017165979148112426,0.00880066708514573,-0.0003231368933272769,0.01245027862387737,0.020827134993950915,0.04672918445587269,0.06386248197976578,0.07661549906549177,0.0586937377248414,0.06270056020095242,0.07987373491695182,0.08830100957502501,0.09236914694496333,0.08769799681274976,0.07429018285801285,0.08721377618543806,0.08263823313995365,0.07809787434892919,0.08236013576980797,0.07350941269500055,0.0822285174888002,0.06468488739897399,0.06032702757892424,0.05162105514567436,0.04294896427801039,0.0606086697463434,0.047616392528040064,0.039036001084101324,0.0436317113572842,0.05263460115281969,0.04412582289924129,0.05755156620339835,0.031543378037282264,0.027463118317697613,0.014624538717575747,0.028089789684958233,0.04155564819387112,0.015569043551251337,0.020257590770298428,0.007401462055730077,0.012062207372532779,0.012319275066440484,0.016934703347811275,0.030287233091247805,-0.004609779853485861,-0.008862823152007275,-0.004392368546590716,3.166140682937436e-05,0.00878946864547098,-0.008804630966796071,-0.03522077238026383,-0.004712660972100738,-0.0180936142425443,-0.005230308153214185,-0.009951828996260436,0.04664383451808548,0.050597266570620615,0.07204471917693511,0.05400835492426193,0.02279145522446095,0.04852938884141871,0.06547710266096085,0.06925460127329063,0.08616421205875882,0.0504599655977268,0.07172489122470108,0.07106262918101401,0.0879238260468057,0.065327586822707,0.06463994185348232,0.05079540857959868,0.05009348159313588,0.07568369429099008,0.07935002925132735,0.06109168376702397,0.060356580035231124,0.09029292035840007,0.07638389046847907,0.0843757682929789,0.03536767044041308,0.025787721215659386,0.03809973886135951,0.05476741268154882,0.03195482704528745,0.013490507272174886,0.008136932992634075,0.015890044905791306,0.02359603580796731,0.02248425478463828,0.016933640159241696,-0.0062099251235796,-0.00311857817544182,0.004287597744223658,0.0,0.0,0.0,0.0,0.0,0.0,0.0,0.0,0.0,0.0,0.0,0.0,0.0,0.0,0.0,0.0,0.0,0.0,0.0,0.0,0.0,0.0,0.0,0.0,0.0,0.0,0.0,0.0,0.0,0.0,0.0,0.0,0.0,0.0,0.0,0.0,0.0,0.0,0.0,0.0,0.0,0.0,0.0,0.0,0.0,0.0,0.0,0.0,0.0,0.0,0.0,0.0,0.0,0
0.6231728502641708,0.4896628814960813,0.2338532037244513,-0.077714835240114,-0.33004860295496113,-0.4414591461230104,-0.4574138483123265,-0.34460291688773365,-0.16960629106322944,0.094905456651798,0.291552885859231,0.41437000006512814,0.4725307368542642,0.5478856428085146,0.5708689834246105,0.5900151411476073,0.5690638497560259,0.5747133574860737,0.5494996541409121,0.5419455988589362,0.5430340142763164,0.5316318998267111,0.4987166532482242,0.4928003031234146,0.5018268170789915,0.4622569664734514,0.4468215401195195,0.4222592726430665,0.4007308400916999,0.3943948072166641,0.38512495142871095,0.3487365214272977,0.3337215211342248,0.3280046434161017,0.30436752068878603,0.29918399108613103,0.2912890819004319,0.2867708298216913,0.28868753672587305,0.3303788543210835,0.3270801345012071,0.3393824389600576,0.33399856456327165,0.33820517863687466,0.3489944948277773,0.3603287573883677,0.3601119088613019,0.3362460901454485,0.3493103224272328,0.3599487594978655,0.3772562624950125,0.3830713874948795,0.3864853096100221,0.3814458967529128,0.398238424833026,0.37024135473421854,0.3852733529483116,0.3797373163288933,0.3657411745785168,0.3584192370817824,0.3668474277801596,0.3849584866757865,0.3642874223728533,0.3593287832165098,0.36703800711083895,0.3661990651042327,0.3386223714236766,0.3115406848302685,0.2758457305496987,0.2557387381591545,0.23605193921499104,0.20161628657987235,0.16754433654305864,0.13986280220648936,0.118541002213163,0.10354755589206703,0.06759598454951503,0.037908302389366634,-0.003717989893879196,-0.002806900300134839,0.0072978436894807095,-0.027945167331027303,-0.03588968777444592,-0.05290483853331687,-0.04267765013274245,-0.0355122512480067,-0.0223410973854514,-0.03951744591698779,-0.03254408075139967,-0.025655269224467717,0.005370266913765984,-0.012148664632298457,0.0035489137904932172,0.004009164107380127,-0.0016844804970129938,-0.0044486068838820465,-0.010341033731921564,-0.0042212085217677615,-0.004258658390773447,-0.0013680041438190842,-0.004633132225013162,0.0192580980427382,-0.002371475417931452,-0.008954862755194332,0.029792367486650262,0.04119403294187217,0.052506988447667116,0.03042231549848229,0.02339434900681072,0.016283426032354956,0.03331738545525191,0.038158417365924416,0.02475132895415986,0.02035179867257988,0.037073989374015286,0.035551229885607195,0.0460670661430212,0.04136757732181864,0.033566231054409645,0.02569145302943017,0.017743222735731583,0.027891061416675262,0.0046539991210374,-0.003515887392949551,-0.026901782221407797,-0.026136132972685838,-0.004244728746629802,0.011522897340513266,0.02117212073938992,0.054991042972452116,0.055447587011301314,0.0588860302998291,0.05016964077729569,0.059585567482247685,0.032628914283410373,0.03895390023546857,0.033140003240626104,0.036388630541427866,0.03961823999411058,0.030718829143128994,0.02786298112802981,0.034081733651067904,0.043321149993704886,0.01318778260518368,0.004249431862389806,0.0043951513561951245,0.004542251798941322,0.013777692138988298,-0.004235766916000803,-0.001043639225206282,-0.0038979954656811976,0.005373368360685804,-0.00048114896786243585,-0.0184303918536332,-0.006075540197602049,-0.017920930809652784,0.006604254684559166,-0.0021434327032499377,-0.004789453711986465,-0.004354962615258588,0.002195898048686592,0.008814564357162746,0.00642418303936413,0.013202362069325879,0.007959058507988335,0.011900060565290143,0.006863497863697832,0.041309564635217184,0.02439761583742184,0.013672439942892623,0.02428280627532239,0.03503807537265388,0.02474748635879848,0.03278567053987446,0.025848454637467582,0.01908395534287799,0.03066843847376163,0.04849529074170595,0.018061848355297262,0.0362791234781278,0.036531006058571736,0.06424750428866577,0.05584042243476525,0.050682708059096686,0.03060974051781965,0.05013532660065393,0.05475509877796577,0.05961484132195974,0.06774695125482959,0.08218352752456243,0.1180694438189058,0.13906843064127322,0.1482112469400385,0.13338656447827632,0.12487821112363524,0.12874312086190773,0.13286793307605546,0.1554214271197277,0.16309098574021194,0.1679873901070978,0.1670792140919002,0.1724755834723295,0.1811433967868794,0.18702041182749715,0.20221315088092104,0.19945958233965055,0.23931673622067764,0.24303984028613898,0.2378726686165123,0.2328881098812983,0.2583558119670589,0.2779221342099645,0.27037353601027125,0.27808893289877695,0.2828803211660157,0.3089542038186656,0.322978380457844,0.3491563949176038,0.3571811655047701,0.36519631864226015,0.0,0.0,0.0,0.0,0.0,0.0,0.0,0.0,0.0,0.0,0.0,0.0,0.0,0.0,0.0,0.0,0.0,0.0,0.0,0.0,0.0,0.0,0.0,0.0,0.0,0.0,0.0,0.0,0.0,0.0,0.0,0.0,0.0,0.0,0.0,0.0,0.0,0.0,0.0,0.0,0.0,0.0,0.0,0.0,0.0,0.0,0.0,0.0,0.0,0.0,0.0,0.0,0.0,0.0,0.0,0.0,0.0,0.0,0.0,0.0,0.0,0.0,0.0,0.0,0.0,0.0,0.0,0.0,0.0,0.0,0.0,0.0,0.0,0.0,0.0,0.0,0.0,0.0,0.0,0.0,0
