0.7066649669222339,0.44199309896917904,-0.33513606724475953,-0.3541993021487402,0.08323077350744512,0.16118130402433814,0.1945466071198144,0.22769892808035366,0.2340531416823834,0.2380228951099213,0.2263250789622365,0.2366753046263529,0.21587516721209746,0.2105075128267029,0.2072846475772086,0.19513521246362164,0.189595461229092,0.19733112221858032,0.1784418397585737,0.16841744415802773,0.17170344948925445,0.17057065343202713,0.1805498066068487,0.16838828330925548,0.17622372772383132,0.16414960716406804,0.15434535587970827,0.14016355077554582,0.1393472587654443,0.12750848476540996,0.1223888981352582,0.11512088152599942,0.10348836793574824,0.10079642677193368,0.11369744770855005,0.12445205470160753,0.1264072403725368,0.12177892480462185,0.1327388829197302,0.14819746928712876,0.1282383381847567,0.12163990012447737,0.13061478838529594,0.13298376631086742,0.15091469278153982,0.1710965628703213,0.1802176170767562,0.21153037645874145,0.23841700036173066,0.24312814020142196,0.2500436164886153,0.26802032207968685,0.2704357007244219,0.294970091556416,0.3127808586148086,0.3305020899767893,0.34146198523206384,0.3611609657652057,0.3940108084982029,0.42224761024289736,0.4458445972013414,0.4581207220459413,0.4856535196840938,0.477409674350973,0.4821358763880841,0.5042286804779251,0.5924299792342471,0.6735228354481518,0.7585480721210515,0.7210651239472113,0.390281884269901,-0.04094582028602056,-0.2267643817984237,-0.24927207658488285,-0.28589329785956685,-0.24794226632555735,-0.18861883837667215,-0.041360394642712975,0.07858783373255986,0.2023321152579734,0.2811523780040424,0.3284143864355948,0.3840911484219497,0.4038933074002866,0.3923121098237421,0.3848802067063597,0.3794327011825943,0.4004114211522484,0.4212563864493881,0.4287099394341639,0.42946880305958,0.4124884572846892,0.3888961090298467,0.3764690650647165,0.3796783630952264,0.3675149595934709,0.35775043611142754,0.3703719240568079,0.35440836830812605,0.32319109736969703,0.31665831687037554,0.31265976842864,0.2956957726629794,0.2857432857815491,0.2606474243335373,0.2470343996234023,0.22274659624678173,0.223277236821141,0.1887707707180981,0.17910945217180255,0.15660954461915216,0.13680371428254634,0.13078906947559787,0.13635770991015744,0.0,0.0,0.0,0.0,0.0,0.0,0.0,0.0,0.0,0.0,0.0,0.0,0.0,0.0,0.0,0.0,0.0,0.0,0.0,0.0,0.0,0.0,0.0,0.0,0.0,0.0,0.0,0.0,0.0,0.0,0.0,0.0,0.0,0.0,0.0,0.0,0.0,0.0,0.0,0.0,0.0,0.0,0.0,0.0,0.0,0.0,0.0,0.0,0.0,0.0,0.0,0.0,0.0,0.0,0.0,0.0,0.0,0.0,0.0,0.0,0.0,0.0,0.0,0.0,0.0,0.0,0.0,0.0,0.0,0.0,0.0,0.0,0.0,0.0,0.0,0.0,0.0,0.0,0.0,0.0,0.0,0.0,0.0,0.0,0.0,0.0,0.0,0.0,0.0,0.0,0.0,0.0,0.0,0.0,0.0,0.0,0.0,0.0,0.0,0.0,0.0,0.0,0.0,0.0,0.0,0.0,0.0,0.0,0.0,0.0,0.0,0.0,0.0,0.0,0.0,0.0,0.0,0.0,0.0,0.0,0.0,0.0,0.0,0.0,0.0,0.0,0.0,0.0,0.0,0.0,0.0,0.0,0.0,0.0,0.0,0.0,0.0,0.0,0.0,0.0,0.0,0.0,0.0,0.0,0.0,0.0,0.0,0.0,0.0,0.0,0.0,0.0,0.0,0.0,0.0,0.0,0.0,0.0,0.0,0.0,0.0,0.0,0.0,0.0,0.0,0.0,0.0,0.0,0.0,0.0,0.0,0.0,0.0,0.0,0.0,0.0,0.0,0.0,0.0,0.0,0.0,0.0,0.0,0.0,0.0,0.0,0
0.8044949462509158,0.6030675478027482,0.11717258929927388,-0.3115436280504609,-0.3922295548459471,-0.25651915268033,-0.07525915866063644,0.04768400544479817,0.13081883090208832,0.19034474483252145,0.23553404308883175,0.2571874640016323,0.2576486968553182,0.2600395765201607,0.257465915200552,0.2638116564261981,0.25370941907563604,0.2456581917403127,0.2419939143909823,0.2450512987074404,0.2340755891519152,0.2414137966005308,0.2255293383578796,0.2256933250275556,0.23038157362087006,0.2465393784809056,0.278802056318077,0.2787006994755166,0.299353338177256,0.28767062580304903,0.2598264907099457,0.2366110743514658,0.22496026469987812,0.2294999409472801,0.21560482016285293,0.1902073349624652,0.1787094457362806,0.15571799589219826,0.12354484398848267,0.11451580441581365,0.08938247637186425,0.06661652959527448,0.04160092966430682,0.02357126342337313,0.02176290971223685,-0.005383036431246148,-0.030160817039781636,-0.017937685583215884,-0.024122233520958943,-0.02331244786430564,0.000660673088435473,0.013174179775912577,0.018855156655001027,0.03156592521087498,0.0466981068545292,0.050407862268133805,0.06117467879051871,0.09286014027160287,0.09929605584312293,0.1151226707040986,0.1218767419028806,0.15419744254485576,0.1866938675069129,0.193974340678728,0.17604333545343462,0.18831617274765236,0.17538365847094475,0.17418868594399398,0.17087910562359931,0.17238132854632648,0.1648414798300172,0.1551842542090665,0.15495117366006922,0.15952120416475224,0.17350783984817225,0.17843551998136947,0.21816611086577306,0.2118839974860358,0.2103755403098312,0.2228671773384528,0.22164308309870004,0.2343981351766748,0.2726643228694666,0.3225753805106939,0.37026367911236097,0.422639408332765,0.5166256409342025,0.6522021248851348,0.7808606848050282,0.9025752245235152,0.8857126772532289,0.5616942517338878,-0.027960130901417003,-0.4815565449221218,-0.08108928408768754,0.012108965727351928,0.04971456570778085,0.07330067553679515,0.0990431233519666,0.103867333465897,0.09471296939796536,0.09006330395488132,0.1084011363785073,0.09201756667580044,0.08710031046401631,0.10058658595098438,0.11401609287018663,0.10431037657257616,0.09918457827423184,0.08710328031775713,0.0773100006460598,0.0582683901624501,0.05076527336742871,0.05480775189634934,0.04269676486060423,0.0375271432784163,0.043922898885787785,0.0595813786086057,0.05911145251026687,0.07253351014246455,0.07214700237964038,0.05333927467668067,0.04612969762545322,0.04590498924945904,0.03881633402451298,0.03410294414947896,0.03407736056715232,0.04105195370560745,0.0,0.0,0.0,0.0,0.0,0.0,0.0,0.0,0.0,0.0,0.0,0.0,0.0,0.0,0.0,0.0,0.0,0.0,0.0,0.0,0.0,0.0,0.0,0.0,0.0,0.0,0.0,0.0,0.0,0.0,0.0,0.0,0.0,0.0,0.0,0.0,0.0,0.0,0.0,0.0,0.0,0.0,0.0,0.0,0.0,0.0,0.0,0.0,0.0,0.0,0.0,0.0,0.0,0.0,0.0,0.0,0.0,0.0,0.0,0.0,0.0,0.0,0.0,0.0,0.0,0.0,0.0,0.0,0.0,0.0,0.0,0.0,0.0,0.0,0.0,0.0,0.0,0.0,0.0,0.0,0.0,0.0,0.0,0.0,0.0,0.0,0.0,0.0,0.0,0.0,0.0,0.0,0.0,0.0,0.0,0.0,0.0,0.0,0.0,0.0,0.0,0.0,0.0,0.0,0.0,0.0,0.0,0.0,0.0,0.0,0.0,0.0,0.0,0.0,0.0,0.0,0.0,0.0,0.0,0.0,0.0,0.0,0.0,0.0,0.0,0.0,0.0,0.0,0.0,0.0,0.0,0.0,0.0,0.0,0.0,0.0,0.0,0.0,0.0,0.0,0.0,0.0,0.0,0.0,0.0,0.0,0.0,0.0,0.0,0.0,0.0,0.0,0.0,0.0,0.0,0.0,0.0,0.0,0.0,0.0,0.0,0.0,0.0,0.0,0.0,0.0,0.0,0.0,0.0,0.0,0.0,0.0,0
0.8394288316968967,0.4630753240294946,-0.004308326125113595,-0.2846635845918465,-0.3316934588379211,-0.2469601105522068,-0.1496522439494234,-0.01325616144715519,0.10708755450465192,0.2025919709780456,0.24681156620286065,0.2751029923646183,0.280883790755463,0.29509349063701285,0.2934887999630562,0.28714105802880885,0.2871201366854868,0.3022872154034608,0.3150149579457573,0.30326000328821584,0.29795157554520724,0.29690853239776005,0.30015549844458034,0.2856430469861615,0.2666363573543855,0.2718499773947849,0.26819393485556386,0.2689292884216957,0.2431706222973785,0.23287064633368476,0.22259218096414432,0.2123476789979406,0.17786865685224673,0.17655406620137776,0.17751170235416228,0.1410194511468778,0.10240103782616176,0.09256496919028588,0.08061605311679113,0.06876748479169845,0.041574002916322766,0.03656416256787627,0.029463124038015157,0.03793374163312874,0.009006508726224584,0.024354386230460233,0.026593119466481317,-0.0041383045325617185,-0.019276074756909227,-0.007779350542306825,-0.0005433368329442005,0.006853607274171214,0.03869848437902661,0.05306056254692123,0.0985064400484896,0.12869041280268634,0.15465495776069715,0.1830273950705336,0.23367781165874885,0.2448068823193837,0.25394066385739816,0.26549513891001464,0.29712856046446673,0.3289744905478578,0.3323359788422684,0.32265956366842763,0.3573279985027163,0.3877741030970545,0.38970873399447503,0.39181496908081703,0.37862880418714817,0.3523423294741313,0.3526691054428444,0.3575177439671763,0.3447950935754889,0.3365513487185252,0.3437986964937852,0.3444387911086996,0.33623687785721185,0.3368217899193056,0.3461626258861347,0.4105791904265595,0.5719750440452008,0.4639092093730426,-0.024020376469765143,-0.24071454284262656,-0.2347722033201325,-0.13643790059084074,-0.040617767175112944,0.05270706305611289,0.13473028821755992,0.17898728948419573,0.19212162451287254,0.21388480615732106,0.2222241997476078,0.22378043797198424,0.23181481242436835,0.2353076723653826,0.2408962613860277,0.2485948765122775,0.2584166102887989,0.2372644621525504,0.2469521765063063,0.2477585043549977,0.2507278654804397,0.2382091040897095,0.2521457409905436,0.2660551490029513,0.2644897235960123,0.2364150433141713,0.23701306451990675,0.21993075442494792,0.21606787882012846,0.1768618635225279,0.1596973744364742,0.15132597953921612,0.11863313824113475,0.09030674023825497,0.08179054200758014,0.08866253841241706,0.08222049193225688,0.04259074843611898,0.03598225303721007,0.04031347087279261,0.029088173817753894,0.004504268961842454,0.0,0.0,0.0,0.0,0.0,0.0,0.0,0.0,0.0,0.0,0.0,0.0,0.0,0.0,0.0,0.0,0.0,0.0,0.0,0.0,0.0,0.0,0.0,0.0,0.0,0.0,0.0,0.0,0.0,0.0,0.0,0.0,0.0,0.0,0.0,0.0,0.0,0.0,0.0,0.0,0.0,0.0,0.0,0.0,0.0,0.0,0.0,0.0,0.0,0.0,0.0,0.0,0.0,0.0,0.0,0.0,0.0,0.0,0.0,0.0,0.0,0.0,0.0,0.0,0.0,0.0,0.0,0.0,0.0,0.0,0.0,0.0,0.0,0.0,0.0,0.0,0.0,0.0,0.0,0.0,0.0,0.0,0.0,0.0,0.0,0.0,0.0,0.0,0.0,0.0,0.0,0.0,0.0,0.0,0.0,0.0,0.0,0.0,0.0,0.0,0.0,0.0,0.0,0.0,0.0,0.0,0.0,0.0,0.0,0.0,0.0,0.0,0.0,0.0,0.0,0.0,0.0,0.0,0.0,0.0,0.0,0.0,0.0,0.0,0.0,0.0,0.0,0.0,0.0,0.0,0.0,0.0,0.0,0.0,0.0,0.0,0.0,0.0,0.0,0.0,0.0,0.0,0.0,0.0,0.0,0.0,0.0,0.0,0.0,0.0,0.0,0.0,0.0,0.0,0.0,0.0,0.0,0.0,0.0,0.0,0.0,0.0,0.0,0.0,0.0,0.0,0.0,0.0,0.0,0.0,0.0,0.0,0.0,0.0,0
0.6700359792779533,0.3395020754738206,-0.09501320277992263,-0.3638634820070731,-0.2411903299980499,-0.08198684305266331,0.03077901495087001,0.09252058971127368,0.13092252278442862,0.15983837180088176,0.17929041845618088,0.1846899381465527,0.17375241336986258,0.15341281738920845,0.14443587602800695,0.14683961606200954,0.15142092787266406,0.1674167960731848,0.17409710197364522,0.1806972359986398,0.17801088965740605,0.16605126518792498,0.17249191741849973,0.16507287852410474,0.1576353892947446,0.15940965804856955,0.13582813740589647,0.14452662508798705,0.15093609752618067,0.1550633618246543,0.1569144704070972,0.15879980393412,0.14919833717159606,0.12119845799384045,0.10707456869690718,0.08147287674128828,0.06283602173551897,0.05116540749390367,0.025716191667060184,0.01876065781437912,-0.0019719385901718835,-0.004209536371449916,0.002828249012698273,0.005311994902919593,-0.022113253270038637,-0.028734059362284375,-0.023767578867867938,-0.01181803043773831,-0.002097581910313517,0.01231844646499617,0.008388587510560791,0.025309108407251462,0.05386905976465345,0.080247158539348,0.10675757721873368,0.14493450126933974,0.1786503397250388,0.2033022947158512,0.2188968822275605,0.2300498088419384,0.2529012044249995,0.2597930810728277,0.2576427396814481,0.2695019070575961,0.2746240542734226,0.2868378581975061,0.299224690594576,0.3025593854863397,0.3175816269695531,0.3166224117156962,0.31811321956273164,0.31282270459179257,0.30995875874776146,0.3302532276306522,0.3321986110959509,0.34343886434493176,0.3570397282798502,0.36376012305490896,0.3635775978405929,0.3726036078828874,0.38850696210994173,0.3859035708945571,0.4016451980254572,0.4587510564511264,0.5110852442821322,0.5724422582707629,0.6658344539580089,0.8004407033511836,0.9762161350704072,0.7735830287532629,0.30313260031476097,-0.16549565703780186,-0.35805355865266864,-0.2930253491144857,-0.18248995643322088,-0.0379544620360895,0.10834545721197666,0.189601176813976,0.24042808690977946,0.2654742834348723,0.2855223850604215,0.2821669226727516,0.2646622421910321,0.26531231423712826,0.2680126114933456,0.2543521765266874,0.2543258864694479,0.24490996495722805,0.2514865386245449,0.248724231374011,0.2481720665352403,0.2406318918331116,0.24917576388440316,0.25307756862554753,0.24313546388281215,0.2216718598632757,0.20022836531162055,0.18804037705949905,0.17129125525942787,0.15690935184561636,0.14721195518853553,0.13990536200443568,0.12116961518113635,0.11406571493934098,0.10016219168452116,0.08177293747715146,0.07043175778167182,0.054621013660525804,0.02973802467856065,0.021146183494056642,0.019632180769207492,0.004457083666635067,-0.010541585505979528,0.0,0.0,0.0,0.0,0.0,0.0,0.0,0.0,0.0,0.0,0.0,0.0,0.0,0.0,0.0,0.0,0.0,0.0,0.0,0.0,0.0,0.0,0.0,0.0,0.0,0.0,0.0,0.0,0.0,0.0,0.0,0.0,0.0,0.0,0.0,0.0,0.0,0.0,0.0,0.0,0.0,0.0,0.0,0.0,0.0,0.0,0.0,0.0,0.0,0.0,0.0,0.0,0.0,0.0,0.0,0.0,0.0,0.0,0.0,0.0,0.0,0.0,0.0,0.0,0.0,0.0,0.0,0.0,0.0,0.0,0.0,0.0,0.0,0.0,0.0,0.0,0.0,0.0,0.0,0.0,0.0,0.0,0.0,0.0,0.0,0.0,0.0,0.0,0.0,0.0,0.0,0.0,0.0,0.0,0.0,0.0,0.0,0.0,0.0,0.0,0.0,0.0,0.0,0.0,0.0,0.0,0.0,0.0,0.0,0.0,0.0,0.0,0.0,0.0,0.0,0.0,0.0,0.0,0.0,0.0,0.0,0.0,0.0,0.0,0.0,0.0,0.0,0.0,0.0,0.0,0.0,0.0,0.0,0.0,0.0,0.0,0.0,0.0,0.0,0.0,0.0,0.0,0.0,0.0,0.0,0.0,0.0,0.0,0.0,0.0,0.0,0.0,0.0,0.0,0.0,0.0,0.0,0.0,0.0,0.0,0.0,0.0,0.0,0.0,0.0,0.0,0.0,0
0.8310131221758476,0.6827087129798839,0.3482377121560461,-0.024871039514293557,-0.2560109712583288,-0.294346459568326,-0.2544149157942576,-0.17184397248167954,-0.04661304687299871,0.06024497601908075,0.1614943058997582,0.2317302306570507,0.2709929777689807,0.2996782137116448,0.3305465258777905,0.3330992332644877,0.3200937721407857,0.32464251092879537,0.3111527005156229,0.2847431638742756,0.2886997888065597,0.28742522350770483,0.2580435462047639,0.24638091506481544,0.22955868097106374,0.2177764340821325,0.20850974323247307,0.1941439389620596,0.19505363102983792,0.19344383788275707,0.20205349917345256,0.17763994379999404,0.16093045569601974,0.14684908588468662,0.12268535661841246,0.0960846535534134,0.08741462244988986,0.10431955511400708,0.10355181215574856,0.09275472671039167,0.08211568886030647,0.0690987513834621,0.07406872883476459,0.07667689497690755,0.06675245205355416,0.05193624186696712,0.04750249657560905,0.05091316571365904,0.0519962371843528,0.06602519138663221,0.04720345579056996,0.02861594363103928,0.038258182713327565,0.04051119010916725,0.03792441219167928,0.053403690427261716,0.05132945841872194,0.0571516756980984,0.053062275145528505,0.0441540762381523,0.058420805497115334,0.06787532513780561,0.09033254998234606,0.10798300959008526,0.12591795421300314,0.14922809418803162,0.16010233790695022,0.17635289350721625,0.19034542155306272,0.20462299966886888,0.20646030551498554,0.2212996142290671,0.21605695040571055,0.22635074920758544,0.21655027374031194,0.21209344830344767,0.21297136738364664,0.22426321441262814,0.2332350850222003,0.2246073788219455,0.20345592689524875,0.21047948317474932,0.1973156695980806,0.19957202100852453,0.2095973156664059,0.19938273632271686,0.20962193480801447,0.22502692250379802,0.22776408797573916,0.222899867010278,0.21549955657341488,0.21571648854412195,0.2387920667158953,0.2516196968828723,0.2770722344142329,0.2794960583391429,0.327563725277888,0.41106457847970457,0.5146971739628957,0.6002568400674906,0.6219026075291878,0.5846819999225555,0.4223913395368266,0.10699264584353636,-0.19362192126866046,-0.31664988628664503,-0.251944861983986,-0.1241928388211886,0.0360933916308092,0.14497676729153475,0.220303033859696,0.2570160397947829,0.2856825779272648,0.2961549607089561,0.3113635433587765,0.30843485561007955,0.3001179162646504,0.2966156272438426,0.28268364281789377,0.2507098582973655,0.2388831002853678,0.2344994477126497,0.237576658625226,0.24558674386571924,0.23055477933192434,0.2001286588740652,0.1848562959238501,0.16693768385277732,0.0,0.0,0.0,0.0,0.0,0.0,0.0,0.0,0.0,0.0,0.0,0.0,0.0,0.0,0.0,0.0,0.0,0.0,0.0,0.0,0.0,0.0,0.0,0.0,0.0,0.0,0.0,0.0,0.0,0.0,0.0,0.0,0.0,0.0,0.0,0.0,0.0,0.0,0.0,0.0,0.0,0.0,0.0,0.0,0.0,0.0,0.0,0.0,0.0,0.0,0.0,0.0,0.0,0.0,0.0,0.0,0.0,0.0,0.0,0.0,0.0,0.0,0.0,0.0,0.0,0.0,0.0,0.0,0.0,0.0,0.0,0.0,0.0,0.0,0.0,0.0,0.0,0.0,0.0,0.0,0.0,0.0,0.0,0.0,0.0,0.0,0.0,0.0,0.0,0.0,0.0,0.0,0.0,0.0,0.0,0.0,0.0,0.0,0.0,0.0,0.0,0.0,0.0,0.0,0.0,0.0,0.0,0.0,0.0,0.0,0.0,0.0,0.0,0.0,0.0,0.0,0.0,0.0,0.0,0.0,0.0,0.0,0.0,0.0,0.0,0.0,0.0,0.0,0.0,0.0,0.0,0.0,0.0,0.0,0.0,0.0,0.0,0.0,0.0,0.0,0.0,0.0,0.0,0.0,0.0,0.0,0.0,0.0,0.0,0.0,0.0,0.0,0.0,0.0,0.0,0.0,0.0,0.0,0.0,0.0,0.0,0.0,0.0,0.0,0.0,0.0,0.0,0.0,0.0,0.0,0.0,0.0,0
0.758160297553453,0.5277203493063415,-0.04401542413205512,-0.2680225723144738,-0.08427344951605756,0.020465099315979063,0.07464609827039137,0.12568732296534335,0.15462918729633834,0.16147633057717045,0.17784070873387275,0.19740376260101486,0.21068523483380466,0.2145254990202725,0.2278895381529975,0.22232912795979967,0.21996784833388947,0.2049984598130267,0.2027031397813581,0.19095090599346728,0.19502189732550285,0.19910478121345454,0.1810656320321901,0.18198570814902207,0.16708594718348171,0.14899851146382234,0.14983715481601395,0.12849870655711776,0.10709542633477216,0.0950956953998128,0.08300250567103774,0.0708008005162213,0.07111834419387937,0.07445688412780227,0.07447862112587665,0.06800619268738617,0.04870105494269099,0.035510795797728686,0.028417905798256038,0.008439844081145944,0.007166871306823121,-0.01334859153149493,-0.027837979758595296,-0.01735307853470501,-0.01983758997668984,-0.016339006094238585,-0.025832642035802888,-0.01988012610699192,-0.014291958173867022,-0.03751998539377986,-0.045316090744250984,-0.05980558129635729,-0.04621489752783838,-0.04246340483001492,-0.03589313456586087,-0.02648531997816153,-0.014217784461918641,-0.002226644282553191,0.018996570887308026,0.027352453148069545,0.03867120732709228,0.056139665586200864,0.07978365775536538,0.09698549706295732,0.12357437860141747,0.1311276868742551,0.17340322188434373,0.2061730497457774,0.2168164593147168,0.22115898936443176,0.22238185868262533,0.22366518026205354,0.20922310133127334,0.18855512259948096,0.19644617046690627,0.18866000416272669,0.19365800712907147,0.18932767589496774,0.18832443743340055,0.19065953617570494,0.19002165697939336,0.1864201493559325,0.16405936782941588,0.14507244253300125,0.13578763842391933,0.13621087714555316,0.12422173857237015,0.12827206513753342,0.12624013455243194,0.12761167292630465,0.11342449438535927,0.12793195451379044,0.13636661737788158,0.1387293061181366,0.1286985440903374,0.1125953969070055,0.12518756747030008,0.14750844311649688,0.1574299762682164,0.20868279722548566,0.3581575581142677,0.5363115086138364,0.6641176806882216,0.7605315029942556,0.7528416233016575,0.4640261905206505,-0.134382388783232,-0.12261133543013547,0.02836894672699385,0.11310765588075235,0.1632145215653212,0.2102987077766018,0.19430510213917787,0.17844909084097985,0.1722113359555282,0.16294594448016628,0.1569710162104629,0.16060383621226434,0.18016090469633605,0.17138497524118065,0.18800297887112252,0.17311267553199414,0.17727839033253104,0.17204335842265198,0.1573972093426818,0.15229356627105853,0.15355960256945025,0.13589606730097065,0.14037993022288958,0.0,0.0,0.0,0.0,0.0,0.0,0.0,0.0,0.0,0.0,0.0,0.0,0.0,0.0,0.0,0.0,0.0,0.0,0.0,0.0,0.0,0.0,0.0,0.0,0.0,0.0,0.0,0.0,0.0,0.0,0.0,0.0,0.0,0.0,0.0,0.0,0.0,0.0,0.0,0.0,0.0,0.0,0.0,0.0,0.0,0.0,0.0,0.0,0.0,0.0,0.0,0.0,0.0,0.0,0.0,0.0,0.0,0.0,0.0,0.0,0.0,0.0,0.0,0.0,0.0,0.0,0.0,0.0,0.0,0.0,0.0,0.0,0.0,0.0,0.0,0.0,0.0,0.0,0.0,0.0,0.0,0.0,0.0,0.0,0.0,0.0,0.0,0.0,0.0,0.0,0.0,0.0,0.0,0.0,0.0,0.0,0.0,0.0,0.0,0.0,0.0,0.0,0.0,0.0,0.0,0.0,0.0,0.0,0.0,0.0,0.0,0.0,0.0,0.0,0.0,0.0,0.0,0.0,0.0,0.0,0.0,0.0,0.0,0.0,0.0,0.0,0.0,0.0,0.0,0.0,0.0,0.0,0.0,0.0,0.0,0.0,0.0,0.0,0.0,0.0,0.0,0.0,0.0,0.0,0.0,0.0,0.0,0.0,0.0,0.0,0.0,0.0,0.0,0.0,0.0,0.0,0.0,0.0,0.0,0.0,0.0,0.0,0.0,0.0,0.0,0.0,0.0,0.0,0.0,0.0,0.0,0
0.7066649669222339,0.44199309896917904,-0.33513606724475953,-0.3541993021487402,0.08323077350744512,0.16118130402433814,0.1945466071198144,0.22769892808035366,0.2340531416823834,0.2380228951099213,0.2263250789622365,0.2366753046263529,0.21587516721209746,0.2105075128267029,0.2072846475772086,0.19513521246362164,0.189595461229092,0.19733112221858032,0.1784418397585737,0.16841744415802773,0.17170344948925445,0.17057065343202713,0.1805498066068487,0.16838828330925548,0.17622372772383132,0.16414960716406804,0.15434535587970827,0.14016355077554582,0.1393472587654443,0.12750848476540996,0.1223888981352582,0.11512088152599942,0.10348836793574824,0.10079642677193368,0.11369744770855005,0.12445205470160753,0.1264072403725368,0.12177892480462185,0.1327388829197302,0.14819746928712876,0.1282383381847567,0.12163990012447737,0.13061478838529594,0.13298376631086742,0.15091469278153982,0.1710965628703213,0.1802176170767562,0.21153037645874145,0.23841700036173066,0.24312814020142196,0.2500436164886153,0.26802032207968685,0.2704357007244219,0.294970091556416,0.3127808586148086,0.3305020899767893,0.34146198523206384,0.3611609657652057,0.3940108084982029,0.42224761024289736,0.4458445972013414,0.4581207220459413,0.4856535196840938,0.477409674350973,0.4821358763880841,0.5042286804779251,0.5924299792342471,0.6735228354481518,0.7585480721210515,0.7210651239472113,0.390281884269901,-0.04094582028602056,-0.2267643817984237,-0.24927207658488285,-0.28589329785956685,-0.24794226632555735,-0.18861883837667215,-0.041360394642712975,0.07858783373255986,0.2023321152579734,0.2811523780040424,0.3284143864355948,0.3840911484219497,0.4038933074002866,0.3923121098237421,0.3848802067063597,0.3794327011825943,0.4004114211522484,0.4212563864493881,0.4287099394341639,0.42946880305958,0.4124884572846892,0.3888961090298467,0.3764690650647165,0.3796783630952264,0.3675149595934709,0.35775043611142754,0.3703719240568079,0.35440836830812605,0.32319109736969703,0.31665831687037554,0.31265976842864,0.2956957726629794,0.2857432857815491,0.2606474243335373,0.2470343996234023,0.22274659624678173,0.223277236821141,0.1887707707180981,0.17910945217180255,0.15660954461915216,0.13680371428254634,0.13078906947559787,0.13635770991015744,0.0,0.0,0.0,0.0,0.0,0.0,0.0,0.0,0.0,0.0,0.0,0.0,0.0,0.0,0.0,0.0,0.0,0.0,0.0,0.0,0.0,0.0,0.0,0.0,0.0,0.0,0.0,0.0,0.0,0.0,0.0,0.0,0.0,0.0,0.0,0.0,0.0,0.0,0.0,0.0,0.0,0.0,0.0,0.0,0.0,0.0,0.0,0.0,0.0,0.0,0.0,0.0,0.0,0.0,0.0,0.0,0.0,0.0,0.0,0.0,0.0,0.0,0.0,0.0,0.0,0.0,0.0,0.0,0.0,0.0,0.0,0.0,0.0,0.0,0.0,0.0,0.0,0.0,0.0,0.0,0.0,0.0,0.0,0.0,0.0,0.0,0.0,0.0,0.0,0.0,0.0,0.0,0.0,0.0,0.0,0.0,0.0,0.0,0.0,0.0,0.0,0.0,0.0,0.0,0.0,0.0,0.0,0.0,0.0,0.0,0.0,0.0,0.0,0.0,0.0,0.0,0.0,0.0,0.0,0.0,0.0,0.0,0.0,0.0,0.0,0.0,0.0,0.0,0.0,0.0,0.0,0.0,0.0,0.0,0.0,0.0,0.0,0.0,0.0,0.0,0.0,0.0,0.0,0.0,0.0,0.0,0.0,0.0,0.0,0.0,0.0,0.0,0.0,0.0,0.0,0.0,0.0,0.0,0.0,0.0,0.0,0.0,0.0,0.0,0.0,0.0,0.0,0.0,0.0,0.0,0.0,0.0,0.0,0.0,0.0,0.0,0.0,0.0,0.0,0.0,0.0,0.0,0.0,0.0,0.0,0.0,0
0.745847809682616,0.6570864893965465,0.29759414819217844,-0.377005049379285,-0.12056894216789354,0.02473661814721128,0.1121466246190867,0.16163513515972255,0.19095825951745388,0.22452346155653505,0.22243301486450145,0.2135270807580654,0.21112299637514254,0.21523270663505387,0.20147583910628925,0.18316653151284507,0.1847048513521812,0.18835958910899608,0.17418122431319952,0.16656704330739094,0.1721743620837942,0.16439885234143986,0.16763523580977854,0.15306011389123694,0.13619699842269756,0.12591647364887829,0.11556673081578235,0.09627794415651283,0.0902231340979635,0.07300970363613975,0.06459235326201203,0.025055957793674782,0.02313705318351249,0.014485291147000747,0.014619668338706909,-0.0075060270544247965,-0.005329519875180032,-0.009896381962386055,-0.027860417114632517,-0.023744127794118927,-0.024154217778308232,-0.0313038734166733,-0.034099661824807365,-0.01922778881979717,0.002237517513294325,0.032528180312533087,0.047267462362015705,0.04425233811025523,0.061192519418024574,0.06040632424632585,0.05077690063473141,0.05670880660491427,0.07599769712766291,0.08869984418547837,0.0970450140776939,0.10991469189601688,0.11623339063229828,0.1182293982881201,0.11813042169811112,0.13368528856363085,0.14272926218435847,0.14305342430831613,0.15018724248146895,0.16192036953840633,0.17604170737750524,0.1947741231563581,0.20038311694923466,0.19730708926510615,0.2099399255721452,0.22054416362297408,0.21138129147058726,0.20018989333566897,0.17809884736606524,0.1672794547875995,0.1610760897349457,0.16613661452869416,0.1491951123594147,0.14128907122002532,0.13797703423937405,0.12816467580935745,0.14510472904733626,0.15109288847027513,0.14168493452947015,0.1456967036697513,0.13429125071745018,0.1251960380565466,0.13170308175370352,0.14714728502060698,0.14268901824821706,0.15822692643755304,0.16713731822859,0.1960130094594331,0.25814165569840564,0.2958535346717669,0.35569484263249074,0.4442973228163056,0.5682909399847267,0.6433905527608523,0.7094818744228601,0.7066649669222339,0.44199309896917904,-0.33513606724475953,-0.3541993021487402,0.08323077350744512,0.16118130402433814,0.1945466071198144,0.22769892808035366,0.2340531416823834,0.2380228951099213,0.2263250789622365,0.2366753046263529,0.21587516721209746,0.2105075128267029,0.2072846475772086,0.0,0.0,0.0,0.0,0.0,0.0,0.0,0.0,0.0,0.0,0.0,0.0,0.0,0.0,0.0,0.0,0.0,0.0,0.0,0.0,0.0,0.0,0.0,0.0,0.0,0.0,0.0,0.0,0.0,0.0,0.0,0.0,0.0,0.0,0.0,0.0,0.0,0.0,0.0,0.0,0.0,0.0,0.0,0.0,0.0,0.0,0.0,0.0,0.0,0.0,0.0,0.0,0.0,0.0,0.0,0.0,0.0,0.0,0.0,0.0,0.0,0.0,0.0,0.0,0.0,0.0,0.0,0.0,0.0,0.0,0.0,0.0,0.0,0.0,0.0,0.0,0.0,0.0,0.0,0.0,0.0,0.0,0.0,0.0,0.0,0.0,0.0,0.0,0.0,0.0,0.0,0.0,0.0,0.0,0.0,0.0,0.0,0.0,0.0,0.0,0.0,0.0,0.0,0.0,0.0,0.0,0.0,0.0,0.0,0.0,0.0,0.0,0.0,0.0,0.0,0.0,0.0,0.0,0.0,0.0,0.0,0.0,0.0,0.0,0.0,0.0,0.0,0.0,0.0,0.0,0.0,0.0,0.0,0.0,0.0,0.0,0.0,0.0,0.0,0.0,0.0,0.0,0.0,0.0,0.0,0.0,0.0,0.0,0.0,0.0,0.0,0.0,0.0,0.0,0.0,0.0,0.0,0.0,0.0,0.0,0.0,0.0,0.0,0.0,0.0,0.0,0.0,0.0,0.0,0.0,0.0,0.0,0.0,0.0,0.0,0.0,0.0,0.0,0.0,0.0,0.0,0.0,0.0,0.0,0.0,0.0,0
0.4707525765001514,0.09990772832296624,-0.36927300385456896,-0.07515179385578324,0.01346224987848333,0.0684699753369786,0.11667297903752134,0.14915579289336367,0.170396136298371,0.1737095071628538,0.1725012076847042,0.1533881298232609,0.14986450099110502,0.16193935454639627,0.16729802311560807,0.17264486646037686,0.16459275158396025,0.16993499480181018,0.16188900608358514,0.15162036311957786,0.13466776816862375,0.13335670707876007,0.1298306798226565,0.13748465156230147,0.1295316257697576,0.11713293588943792,0.10698467742579057,0.10578236021858403,0.09566571263409993,0.09002606609967262,0.08662820772764614,0.0765395890772795,0.06198870427138356,0.036274484171151415,0.023947681667108544,0.00044837517716031836,-0.0007438029553245928,-0.015350371997316113,0.0012698445185497008,-0.008926095137257894,-0.003527857702176065,-0.01155770644398435,-0.00846248610194501,-0.01879843653340732,-0.03810115682760483,-0.030652328249446026,-0.01876968611781241,-0.004677397512138305,0.025028219594750076,0.04356997904626367,0.0822102432085872,0.10970689265230198,0.1439278899969726,0.16032704165025524,0.1901648129033096,0.2312164402983145,0.2745593241306297,0.2867144620633142,0.3078672186131045,0.3246264413423916,0.32359943847747297,0.33157320764896603,0.3574747673629504,0.374512756004777,0.3826815662769775,0.3953674891638124,0.41032883625528377,0.4119281714584387,0.40015207302257055,0.41293407695172296,0.4145399788392759,0.4161117075675054,0.4198599387551202,0.4346901528850459,0.4427181894494964,0.4640067318855296,0.4873641180664016,0.5194547269590544,0.5379206638779039,0.5404920931319938,0.5539163262589843,0.6451192848725967,0.7805708396636042,0.8620010766397292,0.838014376913777,0.5455960545472625,-0.32337195062986385,-0.3826984148110535,-0.26862079152628543,-0.18650721575893006,0.08466806839820269,0.2168039303719369,0.27914735133218394,0.3208535721609402,0.3375013546214097,0.33136474163169005,0.3337359254350415,0.33572412891448944,0.3172754305688413,0.30521242823554084,0.2839425256974343,0.28028520835267146,0.2741803439274928,0.27235394041311417,0.265904568912605,0.2526263241820867,0.26379639856860826,0.26372186706005313,0.2546575030579201,0.23885676135437275,0.21633952831314096,0.2116797425642475,0.18471370195344727,0.1778715661417535,0.16438142185320684,0.15541948384962584,0.1242121275901111,0.12657987165031534,0.13797998847220008,0.13610141273928686,0.1187230455034182,0.09924917329579977,0.0888511938914917,0.08084164769234213,0.05513885999872098,0.03853894986204039,0.04221169465298557,0.0,0.0,0.0,0.0,0.0,0.0,0.0,0.0,0.0,0.0,0.0,0.0,0.0,0.0,0.0,0.0,0.0,0.0,0.0,0.0,0.0,0.0,0.0,0.0,0.0,0.0,0.0,0.0,0.0,0.0,0.0,0.0,0.0,0.0,0.0,0.0,0.0,0.0,0.0,0.0,0.0,0.0,0.0,0.0,0.0,0.0,0.0,0.0,0.0,0.0,0.0,0.0,0.0,0.0,0.0,0.0,0.0,0.0,0.0,0.0,0.0,0.0,0.0,0.0,0.0,0.0,0.0,0.0,0.0,0.0,0.0,0.0,0.0,0.0,0.0,0.0,0.0,0.0,0.0,0.0,0.0,0.0,0.0,0.0,0.0,0.0,0.0,0.0,0.0,0.0,0.0,0.0,0.0,0.0,0.0,0.0,0.0,0.0,0.0,0.0,0.0,0.0,0.0,0.0,0.0,0.0,0.0,0.0,0.0,0.0,0.0,0.0,0.0,0.0,0.0,0.0,0.0,0.0,0.0,0.0,0.0,0.0,0.0,0.0,0.0,0.0,0.0,0.0,0.0,0.0,0.0,0.0,0.0,0.0,0.0,0.0,0.0,0.0,0.0,0.0,0.0,0.0,0.0,0.0,0.0,0.0,0.0,0.0,0.0,0.0,0.0,0.0,0.0,0.0,0.0,0.0,0.0,0.0,0.0,0.0,0.0,0.0,0.0,0.0,0.0,0.0,0.0,0.0,0.0,0.0,0.0,0.0,0.0,0
0.7022576413956212,0.3661335800951546,-0.15201147609379834,-0.4220423928133749,-0.060374730656650236,0.05048782097697923,0.13008886126181732,0.18288515617148168,0.20889804637422,0.2414087695704754,0.2560454457766335,0.2417393125484227,0.22511591353338228,0.223930033960362,0.22932668431226225,0.2368845302828771,0.2421810909325793,0.24966225062121675,0.24159880849786505,0.2290863519972595,0.2099149359769025,0.1818734698625361,0.17601062496319897,0.16350470259622302,0.14214177319219606,0.14962006340776504,0.1438111416915672,0.1291509644330897,0.11007476896611107,0.0954519217306513,0.10302078851501233,0.10173673437618856,0.09159803329467624,0.07481983799783162,0.042529906070185516,0.027985982177182324,-0.008728186872812438,-0.005529172396882809,-0.006767313199884737,-0.01687944906572455,-0.013693127717173344,-0.03046897909263505,-0.029509934506363706,-0.02411594162183033,-0.012062432645005186,-0.015513810503253981,-0.010068196151673713,0.0020691141002554285,0.005389455838497029,0.008775416039293433,0.03884865417586189,0.04683961320625922,0.07267403906654184,0.08532104571768365,0.11140145694428906,0.13097053388456675,0.15290901726635375,0.1971839301174764,0.21723990800472148,0.22417267376905115,0.2135551520381652,0.22530689518702995,0.22395521517677108,0.24498269521105495,0.2462622386488605,0.2477523719905794,0.2694103904254104,0.2824098269089931,0.25127070505341964,0.2292071336429184,0.2361711536502159,0.22337464966588544,0.21520211063228054,0.20277609716052974,0.1794354812817402,0.16956154517397773,0.16870863724098895,0.16799548321773114,0.17184428987916536,0.16693732457858262,0.1754341943363327,0.1951024097502928,0.20153472994205088,0.2457141111592259,0.2411444812828176,0.2875890837879381,0.3983318466365539,0.5378727363735143,0.5820142306631636,0.6016862116929605,0.5525115051915583,0.29697965637421714,-0.4798135465438701,-0.032820877281781194,0.039230227486423616,0.09113377536851246,0.1206842015055014,0.15228413453591086,0.1438139767613007,0.1396314788532969,0.1619197981083238,0.1619049958883947,0.15511655944195346,0.16373532878405966,0.15894145744474486,0.17178374090175444,0.17787549416225204,0.19274214706426854,0.1942126537493239,0.19337581610617915,0.18801514037713585,0.16039145391169266,0.14154716745534507,0.14478479035206476,0.0,0.0,0.0,0.0,0.0,0.0,0.0,0.0,0.0,0.0,0.0,0.0,0.0,0.0,0.0,0.0,0.0,0.0,0.0,0.0,0.0,0.0,0.0,0.0,0.0,0.0,0.0,0.0,0.0,0.0,0.0,0.0,0.0,0.0,0.0,0.0,0.0,0.0,0.0,0.0,0.0,0.0,0.0,0.0,0.0,0.0,0.0,0.0,0.0,0.0,0.0,0.0,0.0,0.0,0.0,0.0,0.0,0.0,0.0,0.0,0.0,0.0,0.0,0.0,0.0,0.0,0.0,0.0,0.0,0.0,0.0,0.0,0.0,0.0,0.0,0.0,0.0,0.0,0.0,0.0,0.0,0.0,0.0,0.0,0.0,0.0,0.0,0.0,0.0,0.0,0.0,0.0,0.0,0.0,0.0,0.0,0.0,0.0,0.0,0.0,0.0,0.0,0.0,0.0,0.0,0.0,0.0,0.0,0.0,0.0,0.0,0.0,0.0,0.0,0.0,0.0,0.0,0.0,0.0,0.0,0.0,0.0,0.0,0.0,0.0,0.0,0.0,0.0,0.0,0.0,0.0,0.0,0.0,0.0,0.0,0.0,0.0,0.0,0.0,0.0,0.0,0.0,0.0,0.0,0.0,0.0,0.0,0.0,0.0,0.0,0.0,0.0,0.0,0.0,0.0,0.0,0.0,0.0,0.0,0.0,0.0,0.0,0.0,0.0,0.0,0.0,0.0,0.0,0.0,0.0,0.0,0.0,0.0,0.0,0.0,0.0,0.0,0.0,0.0,0.0,0.0,0.0,0.0,0.0,0.0,0.0,0
0.7368023124866705,0.5533552942398299,0.15387488726456766,-0.2020645485065087,-0.3512012300551282,-0.2830968293268392,-0.04799796759940194,0.0568149043589017,0.13187553542542774,0.1793118479165912,0.17612628541289488,0.19144473258246275,0.22529894022684616,0.2421262078331008,0.2482374073239723,0.2290048505259712,0.2367991263671972,0.24861522067679326,0.2309782605556725,0.2048492386381535,0.21212534213244755,0.2109533361397901,0.19716615417205804,0.1917204943326816,0.1904472495360856,0.184988884201184,0.18164305513627974,0.1594879399005005,0.1729752659124024,0.17186921582486392,0.13943286655874712,0.1133655442983432,0.11461599849145405,0.11388277304169073,0.08814504361223043,0.06881852506189368,0.0663811420590871,0.07246686066091589,0.06405317039313825,0.049523222645002266,0.06657213779117781,0.07333286062247832,0.06353149715986063,0.03926872654605657,0.029863464571066232,0.05625949089517875,0.07658838746577343,0.09923109364924462,0.11581828629789262,0.14938617030634302,0.1622520580287227,0.15651347887217826,0.18032931980699649,0.20648322716136566,0.216132885402953,0.21974723583456388,0.2445440186667332,0.2549278269782295,0.2718328746837563,0.2743174021284905,0.29587539910274463,0.31137490530727263,0.31871356547754803,0.3262561422071153,0.3277096598960553,0.346091800915011,0.34579403058377817,0.34145572247961753,0.33096464163748,0.3436128700114975,0.3395975814974484,0.3105202561245544,0.32126139906231377,0.3320132155529664,0.3343723287295501,0.3366835812311816,0.3703212282470484,0.4247831426180412,0.4602530563276351,0.5185682403578551,0.6227200499067679,0.7475413435612889,0.8678618663080837,0.6214162990374517,0.1316814909228977,-0.23499556214729975,-0.3132670775581945,-0.2539169250408896,-0.15326210534461107,-0.048970918608158866,0.05480265407398794,0.1371594042724616,0.2023246689028588,0.24196068940463736,0.264478575166067,0.2824756956650093,0.28342327862821504,0.2757284888691527,0.2803594837640146,0.2722208732231187,0.2722780341827942,0.263807753437652,0.2321791913386517,0.23185344243313105,0.2419159822977668,0.22470124766986702,0.19907330926285602,0.1859888492304395,0.20640355435977675,0.1996165185795179,0.20333134628696026,0.2050010050803387,0.20254612063375455,0.18969882372324445,0.1643777022872807,0.1370628054493346,0.14126444485608106,0.13093031887242396,0.1249132028831494,0.09600304879801852,0.09236364203548217,0.10143997454967964,0.09183296195786413,0.06983024171476793,0.06684381146854815,0.07241062078576223,0.0,0.0,0.0,0.0,0.0,0.0,0.0,0.0,0.0,0.0,0.0,0.0,0.0,0.0,0.0,0.0,0.0,0.0,0.0,0.0,0.0,0.0,0.0,0.0,0.0,0.0,0.0,0.0,0.0,0.0,0.0,0.0,0.0,0.0,0.0,0.0,0.0,0.0,0.0,0.0,0.0,0.0,0.0,0.0,0.0,0.0,0.0,0.0,0.0,0.0,0.0,0.0,0.0,0.0,0.0,0.0,0.0,0.0,0.0,0.0,0.0,0.0,0.0,0.0,0.0,0.0,0.0,0.0,0.0,0.0,0.0,0.0,0.0,0.0,0.0,0.0,0.0,0.0,0.0,0.0,0.0,0.0,0.0,0.0,0.0,0.0,0.0,0.0,0.0,0.0,0.0,0.0,0.0,0.0,0.0,0.0,0.0,0.0,0.0,0.0,0.0,0.0,0.0,0.0,0.0,0.0,0.0,0.0,0.0,0.0,0.0,0.0,0.0,0.0,0.0,0.0,0.0,0.0,0.0,0.0,0.0,0.0,0.0,0.0,0.0,0.0,0.0,0.0,0.0,0.0,0.0,0.0,0.0,0.0,0.0,0.0,0.0,0.0,0.0,0.0,0.0,0.0,0.0,0.0,0.0,0.0,0.0,0.0,0.0,0.0,0.0,0.0,0.0,0.0,0.0,0.0,0.0,0.0,0.0,0.0,0.0,0.0,0.0,0.0,0.0,0.0,0.0,0.0,0.0,0.0,0.0,0.0,0.0,0.0,0
0.8158376078868469,0.2628479570964889,-0.15603152082713345,-0.3216683569406961,-0.29370305002635577,-0.21341403736789652,-0.1050672506549324,0.062273069645348976,0.20036080397459927,0.3004107617291039,0.32935692707002273,0.3380075357757991,0.3462675833824702,0.33651701190395844,0.3242428821495951,0.3028580055881016,0.2900533959048942,0.2792387290642554,0.2748585141412637,0.2681123239640221,0.2590273837702828,0.2520440915872885,0.24056526692758784,0.2356505224877119,0.23070021473341676,0.21911352187784605,0.19649572530862494,0.1650727808724345,0.15355674204398972,0.1376846767207803,0.119679965123246,0.1105943257506636,0.11927162202692905,0.11482454424431865,0.09947403647032443,0.0776477253252722,0.060394510085970535,0.04331210506171627,0.02420517926481091,0.020743495227026072,0.024109614347576414,0.02990050765931069,0.018262228918120533,-0.0019649808404247605,0.017789648268090288,0.031185035752393887,0.03823240235962904,0.030113786209539868,0.037741654419849766,0.04788319002824997,0.051719900715270085,0.06029836482548494,0.08687215877952091,0.10717119402174452,0.1278265410934991,0.13781068127571755,0.16803333355217348,0.2162946777199084,0.2340416632226397,0.25659591170178897,0.2530601743238097,0.2190229993822576,0.2207038834875786,0.2183729077085795,0.22085869645686074,0.18842913541727294,0.17847029970560715,0.17994236534977054,0.1994626694306124,0.19950251580605413,0.1955063712339912,0.2051249616352953,0.21510644194121126,0.2298559948626161,0.2096325940670765,0.20960610099105187,0.22314214199248986,0.2303617553455029,0.2180066336401587,0.22358422119551452,0.2382484821108032,0.2553595192397072,0.2572399608157226,0.2504909817058554,0.2615777806573029,0.25957563039792225,0.2532891159266588,0.26697232109319113,0.2763184164394071,0.2879208311033597,0.28409178919991457,0.2912872087508825,0.30947450721246783,0.3474486723070513,0.3566144708200464,0.34797086253349124,0.35458759091262043,0.3698020394083652,0.3626699951025963,0.3772921230358596,0.409207628036514,0.438503031743418,0.6130143170994738,0.8532278369502547,0.6602481107142886,0.21721770441742927,-0.17132499999949466,-0.3421071339197003,-0.3238708836246943,-0.2292016888893529,-0.11768006154128666,0.03280375774787528,0.16932398094347828,0.2654417360987397,0.34327695150918336,0.3741813247238861,0.3802717404449337,0.3902849824944534,0.3976398265269892,0.3780950433677324,0.3581743191805077,0.3666067063294782,0.32617114588056834,0.3119454564794696,0.30630104554283194,0.3136803275155735,0.0,0.0,0.0,0.0,0.0,0.0,0.0,0.0,0.0,0.0,0.0,0.0,0.0,0.0,0.0,0.0,0.0,0.0,0.0,0.0,0.0,0.0,0.0,0.0,0.0,0.0,0.0,0.0,0.0,0.0,0.0,0.0,0.0,0.0,0.0,0.0,0.0,0.0,0.0,0.0,0.0,0.0,0.0,0.0,0.0,0.0,0.0,0.0,0.0,0.0,0.0,0.0,0.0,0.0,0.0,0.0,0.0,0.0,0.0,0.0,0.0,0.0,0.0,0.0,0.0,0.0,0.0,0.0,0.0,0.0,0.0,0.0,0.0,0.0,0.0,0.0,0.0,0.0,0.0,0.0,0.0,0.0,0.0,0.0,0.0,0.0,0.0,0.0,0.0,0.0,0.0,0.0,0.0,0.0,0.0,0.0,0.0,0.0,0.0,0.0,0.0,0.0,0.0,0.0,0.0,0.0,0.0,0.0,0.0,0.0,0.0,0.0,0.0,0.0,0.0,0.0,0.0,0.0,0.0,0.0,0.0,0.0,0.0,0.0,0.0,0.0,0.0,0.0,0.0,0.0,0.0,0.0,0.0,0.0,0.0,0.0,0.0,0.0,0.0,0.0,0.0,0.0,0.0,0.0,0.0,0.0,0.0,0.0,0.0,0.0,0.0,0.0,0.0,0.0,0.0,0.0,0.0,0.0,0.0,0.0,0.0,0.0,0.0,0.0,0.0,0.0,0.0,0.0,0.0,0.0,0.0,0.0,0.0,0.0,0
0.6565442645924986,0.3739388767390208,-0.06683013852301235,-0.4472662000437794,-0.20163079022880964,-0.014676660666425131,0.1233337671431025,0.17843148992305646,0.2137757234150142,0.24638859425171644,0.2762936139420397,0.3010848411597103,0.27950341883553304,0.26498959927105803,0.2624178194071767,0.2596636449915359,0.23974488789832946,0.22210137506619945,0.21403063024845687,0.2106879622306464,0.21451227232169529,0.2206567457141853,0.1975630652253761,0.17923377447761082,0.19238576660137194,0.1690344237633173,0.12375367653533195,0.11482458637639055,0.113111643858668,0.10161986989229872,0.07792304518226716,0.06387665125599065,0.06676645467259126,0.057454589225260824,0.02622862201234353,0.014368471594980857,2.018219456988085e-05,-0.007103402211533111,-0.01914342577648711,-0.05066857872241925,-0.01911689695887759,-0.01675350711726551,-0.016858896007040842,-0.03156349312933708,-0.029288150330958437,0.00212351193571211,0.028694458641186464,0.04801451573673394,0.07952735373093447,0.09411198521622444,0.12092432656054936,0.1551247310814332,0.1967293892591235,0.23361261148932105,0.2536477245207801,0.2908430839905841,0.3160720341005593,0.29535002305275543,0.2845350916996466,0.29091938630002656,0.29993964240762633,0.3067440245479582,0.3016227557639659,0.2870056298393621,0.29203136225804044,0.302129257416537,0.27601672974061564,0.2549691933438132,0.2729760195794832,0.2863222364053086,0.28285837849719125,0.2480053280276728,0.2376009587505713,0.2346352776277173,0.23423820807703896,0.2266820585557191,0.23380483792821796,0.2215943411286026,0.22402737904774145,0.2265152367612321,0.22418096277649005,0.2558544490839552,0.3360822578474708,0.4454145794681396,0.5279766105531007,0.5983097265097651,0.6782373255390258,0.6827380950372999,0.6190597251171506,0.3803201102682876,-0.4633193289779115,-0.27771131533911103,0.033844611477009665,0.10471211150912088,0.14859946880343652,0.16553100533392714,0.1725278463224669,0.17689740576719018,0.18108979324264327,0.18998245472852132,0.22059303521644466,0.2438020328343728,0.2717685979121196,0.2850837901710173,0.3104735074407953,0.30910025804341923,0.3052587411299519,0.2722494716144224,0.2465051813137887,0.24260325276804584,0.23384008082425245,0.21779305623498527,0.2041795050133083,0.19300278063829085,0.1818369947992988,0.1949657239857554,0.17654034606022734,0.16298365795943498,0.1397249351826248,0.1359006143699622,0.11508446944812392,0.08455757089992308,0.07345440181542974,0.05505994197675937,0.06093610530629572,0.07408011258314773,0.028924462062332724,-0.021115894684960796,0.0,0.0,0.0,0.0,0.0,0.0,0.0,0.0,0.0,0.0,0.0,0.0,0.0,0.0,0.0,0.0,0.0,0.0,0.0,0.0,0.0,0.0,0.0,0.0,0.0,0.0,0.0,0.0,0.0,0.0,0.0,0.0,0.0,0.0,0.0,0.0,0.0,0.0,0.0,0.0,0.0,0.0,0.0,0.0,0.0,0.0,0.0,0.0,0.0,0.0,0.0,0.0,0.0,0.0,0.0,0.0,0.0,0.0,0.0,0.0,0.0,0.0,0.0,0.0,0.0,0.0,0.0,0.0,0.0,0.0,0.0,0.0,0.0,0.0,0.0,0.0,0.0,0.0,0.0,0.0,0.0,0.0,0.0,0.0,0.0,0.0,0.0,0.0,0.0,0.0,0.0,0.0,0.0,0.0,0.0,0.0,0.0,0.0,0.0,0.0,0.0,0.0,0.0,0.0,0.0,0.0,0.0,0.0,0.0,0.0,0.0,0.0,0.0,0.0,0.0,0.0,0.0,0.0,0.0,0.0,0.0,0.0,0.0,0.0,0.0,0.0,0.0,0.0,0.0,0.0,0.0,0.0,0.0,0.0,0.0,0.0,0.0,0.0,0.0,0.0,0.0,0.0,0.0,0.0,0.0,0.0,0.0,0.0,0.0,0.0,0.0,0.0,0.0,0.0,0.0,0.0,0.0,0.0,0.0,0.0,0.0,0.0,0.0,0.0,0.0,0.0,0.0,0.0,0.0,0.0,0.0,0.0,0
0.8745250222581005,0.6963094562607933,0.2751056217145008,-0.3708425440859178,-0.39501724651764186,-0.2733601697305505,0.06049312044038425,0.18100160454743375,0.23006113677755805,0.26948480677941145,0.2878668537539912,0.3012568070315005,0.2959580659251969,0.28801721414697945,0.2683107711946142,0.2597465602919096,0.26006247868501464,0.25555485924009336,0.2508231595464097,0.2458894531600578,0.24306261265077084,0.2515144405293261,0.2598230458285073,0.25198917375002194,0.24633306732189825,0.22914096581418225,0.21186646125538647,0.201385893710321,0.1999984376526157,0.1962739418498123,0.17878125507726378,0.17269709481160045,0.1620123282933172,0.16274970308954825,0.14745814724648948,0.1435990501683008,0.13058394825023606,0.11528029744553793,0.09769074139939816,0.08239345361439421,0.0808302785277063,0.07469795792657018,0.05484504196457541,0.03728829172932497,0.031180034694901927,0.01135161495238108,-0.006180822977476888,-0.0008250850731128179,0.0022505472764822267,-0.010681863287417638,-0.02589362782303484,-0.029655042611579262,-0.02653836907511101,-0.016536945147768375,-0.020234065783557364,0.008142085826968232,0.03885949545809465,0.06735469259748217,0.09364011869418673,0.11086371903549136,0.12818934261414205,0.15478028410428935,0.16776645342125762,0.1625814116144435,0.17355478410139946,0.1823901614155768,0.19138274448143613,0.20969098166094108,0.2373201518845857,0.2536820074630259,0.29767649547151104,0.35100096633933675,0.3953512821133213,0.4856392499774239,0.5738123095345435,0.6941853848510494,0.8215811495664093,0.7843834061092209,0.3446183082486706,-0.10190119530913087,-0.11360281636088165,-0.026842650098188762,0.0554154197574341,0.09656360028989598,0.1057548840947399,0.12188647163218402,0.13351786574041946,0.13607211921358878,0.14785214855087248,0.15741549920817852,0.1578950836395452,0.1469991334803881,0.1453156221850712,0.15283931004736098,0.1443956463591101,0.1268420600277337,0.1138994173707256,0.1147118442364059,0.10639015316389476,0.09807732694520427,0.08976360390383392,0.07686262571777516,0.08224422280023971,0.07157651301539407,0.0677285312422071,0.06611231692384259,0.050699305213624785,0.03978139764484272,0.035633870348202916,0.024515428641366792,0.020141237225883943,0.01334580693179396,0.008691866659570249,0.00616597232177809,-0.001109523016660418,-0.006283978344065142,-0.004794700373505715,-0.02182308952278584,-0.050517346901060266,-0.04970280348242913,-0.04684158497613658,-0.03507029838354617,-0.03268968517925189,-0.044268836382881364,-0.028612674905237088,-0.01773961825963815,-0.004768462554864553,0.0057434157168554725,0.004662986808363026,0.005737723549787157,0.018138969197449496,0.04646193206018066,0.06784509219872534,0.08001917552909779,0.09444288751847116,0.1134223210203944,0.0,0.0,0.0,0.0,0.0,0.0,0.0,0.0,0.0,0.0,0.0,0.0,0.0,0.0,0.0,0.0,0.0,0.0,0.0,0.0,0.0,0.0,0.0,0.0,0.0,0.0,0.0,0.0,0.0,0.0,0.0,0.0,0.0,0.0,0.0,0.0,0.0,0.0,0.0,0.0,0.0,0.0,0.0,0.0,0.0,0.0,0.0,0.0,0.0,0.0,0.0,0.0,0.0,0.0,0.0,0.0,0.0,0.0,0.0,0.0,0.0,0.0,0.0,0.0,0.0,0.0,0.0,0.0,0.0,0.0,0.0,0.0,0.0,0.0,0.0,0.0,0.0,0.0,0.0,0.0,0.0,0.0,0.0,0.0,0.0,0.0,0.0,0.0,0.0,0.0,0.0,0.0,0.0,0.0,0.0,0.0,0.0,0.0,0.0,0.0,0.0,0.0,0.0,0.0,0.0,0.0,0.0,0.0,0.0,0.0,0.0,0.0,0.0,0.0,0.0,0.0,0.0,0.0,0.0,0.0,0.0,0.0,0.0,0.0,0.0,0.0,0.0,0.0,0.0,0.0,0.0,0.0,0.0,0.0,0.0,0.0,0.0,0.0,0.0,0.0,0.0,0.0,0.0,0.0,0.0,0.0,0.0,0.0,0.0,0.0,0.0,0.0,0.0,0.0,0.0,0.0,0.0,0.0,0.0,0.0,0.0,0.0,0.0,0.0,0
0.9534541859422496,0.476444759939942,-0.19342810831006688,-0.2723140466331948,-0.038376123059277206,0.10381610518357766,0.19220998321341326,0.2299834383337535,0.25824314450801744,0.23907440138699265,0.2199030597528188,0.2386713480881757,0.25746097994082257,0.2541565203808658,0.2856614715689517,0.2571592340438808,0.2255506108763393,0.2414135013892081,0.2130882732405223,0.17218563707769574,0.16928009196168142,0.16644262470235466,0.16999470137057687,0.18941776479990333,0.1678154193582133,0.1462754005749069,0.17852784080555745,0.20451301789930265,0.18629597989679905,0.15547854974160016,0.15630485480063047,0.15715882962844366,0.14222767213440718,0.1115018393128282,0.11238321165691684,0.1100920787794296,0.1299035389175988,0.18128809496917456,0.20101699387040825,0.1732727107543397,0.13913127723375598,0.1301854316304374,0.08636375631106813,0.048740069941336416,0.039422905513243484,0.010982754850453894,0.020296608864084936,0.019934707349499228,0.025683368135366952,0.005916674739557611,-0.01409685617218359,-0.04701844522729663,-0.07389988409370886,-0.06314526178378065,-0.07481510711959302,-0.08046129880046532,-0.061111035017993184,-0.03887438682601445,-0.032694810754222856,0.014347345154058538,0.02958167085400735,0.07625247052423144,0.11645801320882175,0.14706508542350985,0.14913584651487347,0.1669479000204145,0.17524030633041562,0.18984180778128756,0.19497218074973352,0.1843326793308708,0.1958749084203588,0.2264590345648317,0.2255321102991179,0.21839947128249446,0.20823966268296407,0.1982301376711728,0.17890407231618313,0.1502760784638217,0.1597720080768173,0.17579673734206674,0.20152324232041988,0.21167633930668134,0.2125879267376201,0.18530237286176746,0.1677575445527377,0.19156876422064545,0.1935262462133549,0.20524351630943685,0.19827776211569684,0.2010797065860752,0.22313422743079603,0.22019144437265148,0.22385977688291867,0.22465602679002405,0.21941749457514467,0.19549793051187114,0.21610940320594274,0.21170902678910794,0.20125548616899133,0.17841993590154273,0.1716414229992745,0.17458920364102595,0.16828843989525102,0.15588908371510848,0.1626659084422808,0.166480773335768,0.18628524101065655,0.1809746711376324,0.18214209840498027,0.20241479877272384,0.21648942978058344,0.23066972665246124,0.3176353306572797,0.4805269322473409,0.6940363529159358,0.8538327871262539,0.9219589476518898,0.9236694576188538,0.7514603533740795,0.26937577213485403,-0.2982116829400983,-0.2686134540773649,-0.10332550263961764,0.017493727136373562,0.08754010060655655,0.12263505848896655,0.1259563678978652,0.12912846355457974,0.15429272347114506,0.0,0.0,0.0,0.0,0.0,0.0,0.0,0.0,0.0,0.0,0.0,0.0,0.0,0.0,0.0,0.0,0.0,0.0,0.0,0.0,0.0,0.0,0.0,0.0,0.0,0.0,0.0,0.0,0.0,0.0,0.0,0.0,0.0,0.0,0.0,0.0,0.0,0.0,0.0,0.0,0.0,0.0,0.0,0.0,0.0,0.0,0.0,0.0,0.0,0.0,0.0,0.0,0.0,0.0,0.0,0.0,0.0,0.0,0.0,0.0,0.0,0.0,0.0,0.0,0.0,0.0,0.0,0.0,0.0,0.0,0.0,0.0,0.0,0.0,0.0,0.0,0.0,0.0,0.0,0.0,0.0,0.0,0.0,0.0,0.0,0.0,0.0,0.0,0.0,0.0,0.0,0.0,0.0,0.0,0.0,0.0,0.0,0.0,0.0,0.0,0.0,0.0,0.0,0.0,0.0,0.0,0.0,0.0,0.0,0.0,0.0,0.0,0.0,0.0,0.0,0.0,0.0,0.0,0.0,0.0,0.0,0.0,0.0,0.0,0.0,0.0,0.0,0.0,0.0,0.0,0.0,0.0,0.0,0.0,0.0,0.0,0.0,0.0,0.0,0.0,0.0,0.0,0.0,0.0,0.0,0.0,0.0,0.0,0.0,0.0,0.0,0.0,0.0,0.0,0.0,0.0,0.0,0.0,0.0,0.0,0.0,0.0,0.0,0.0,0.0,0.0,0.0,0.0,0.0,0.0,0.0,0
0.8215704211211696,0.7063519021837917,0.3206080245097136,-0.08865306750043023,-0.3707366400260277,-0.2932838742907909,-0.17036555257923405,0.0964411892565392,0.1742660011088918,0.2348281727754536,0.2844410619488033,0.2812609484107066,0.267192087598401,0.2611062442326666,0.25256155782257145,0.2415835370785602,0.2344776327428469,0.23754808763996035,0.21941074316891304,0.20730483149082715,0.1991561984618348,0.2012645931999889,0.2052726244167128,0.18397827998178767,0.15624069022530312,0.14510553547898772,0.13802422078028628,0.10360381112029042,0.10048128406932837,0.0972624964783316,0.10233376677568264,0.08639369803992962,0.07457749029029498,0.08992617663099138,0.10523077856231064,0.10375054268625908,0.09177527386266512,0.10071907755687856,0.08033993744361698,0.04320738199779674,0.027015357352881717,0.031770364568073695,0.03654142016059203,0.01620991190279416,0.006375358309003435,-0.013893646712044143,-0.01527890241193506,-0.014523056969248344,-0.013711162441196773,-0.002364481515463792,0.013247146108543065,0.0247603704106405,0.027999245027954138,0.020881434742276987,0.049480368109126746,0.057276356897388976,0.0882487429070475,0.0963459788559604,0.1129842692394949,0.1067672884275372,0.12167260394333115,0.12630279139897452,0.14579066159957318,0.15711249006632633,0.14561876315320318,0.12806520584951606,0.1295817548368395,0.1292355376472888,0.12703038336940026,0.10621959534186567,0.11705536004008567,0.11766499519462367,0.10176872735007546,0.0882110140842954,0.0728047197197859,0.0597372073100571,0.057382945778059524,0.05108502094899196,0.05968599087763725,0.06643466410284105,0.07132943030565099,0.06808714215423567,0.08811152470696396,0.11883752870958325,0.13304351972458042,0.12025714869895515,0.11188010029249967,0.1120949035745083,0.09995870885553923,0.09221533500898464,0.08676448659601646,0.09197408183372924,0.0827118459724716,0.06734480353649579,0.06680197516994152,0.10410577973945034,0.12690384402708374,0.12053050332335664,0.12475656700907214,0.12072766330996908,0.11261988108066635,0.1025149705909467,0.10924399858334387,0.12023149502774524,0.12080770872752568,0.10467722711466301,0.10741873251298263,0.14367303439497867,0.15479968201129798,0.1742818438942761,0.24397685436391656,0.384803826865808,0.5381187269935239,0.6034008973911122,0.632969641204914,0.5597983526251679,0.23310786313312476,-0.31991632432756584,-0.1655026405096014,-0.028087201758357737,0.07140454036220888,0.10995606762578973,0.13783122791155872,0.16551235533447986,0.1657938658160257,0.16800019127191984,0.0,0.0,0.0,0.0,0.0,0.0,0.0,0.0,0.0,0.0,0.0,0.0,0.0,0.0,0.0,0.0,0.0,0.0,0.0,0.0,0.0,0.0,0.0,0.0,0.0,0.0,0.0,0.0,0.0,0.0,0.0,0.0,0.0,0.0,0.0,0.0,0.0,0.0,0.0,0.0,0.0,0.0,0.0,0.0,0.0,0.0,0.0,0.0,0.0,0.0,0.0,0.0,0.0,0.0,0.0,0.0,0.0,0.0,0.0,0.0,0.0,0.0,0.0,0.0,0.0,0.0,0.0,0.0,0.0,0.0,0.0,0.0,0.0,0.0,0.0,0.0,0.0,0.0,0.0,0.0,0.0,0.0,0.0,0.0,0.0,0.0,0.0,0.0,0.0,0.0,0.0,0.0,0.0,0.0,0.0,0.0,0.0,0.0,0.0,0.0,0.0,0.0,0.0,0.0,0.0,0.0,0.0,0.0,0.0,0.0,0.0,0.0,0.0,0.0,0.0,0.0,0.0,0.0,0.0,0.0,0.0,0.0,0.0,0.0,0.0,0.0,0.0,0.0,0.0,0.0,0.0,0.0,0.0,0.0,0.0,0.0,0.0,0.0,0.0,0.0,0.0,0.0,0.0,0.0,0.0,0.0,0.0,0.0,0.0,0.0,0.0,0.0,0.0,0.0,0.0,0.0,0.0,0.0,0.0,0.0,0.0,0.0,0.0,0.0,0.0,0.0,0.0,0.0,0.0,0.0,0.0,0.0,0.0,0.0,0
0.1976217717689543,0.2300490205639613,0.2417284640037896,0.2305774998345239,0.22382460641120264,0.21938481995009124,0.20260964786530555,0.18397432000509611,0.1823279929555526,0.1830191442868513,0.16092666519660595,0.1390844355566587,0.13424432576596676,0.14012642638959472,0.1441689519314193,0.14218435604926352,0.1320781065027102,0.1431609843273553,0.12727491714703834,0.10535437001582283,0.0857707619340688,0.08317618996984498,0.07662882824657777,0.07240498931149797,0.07259313267465589,0.09393750044679214,0.10502606800303407,0.11213357006835874,0.14456530064911807,0.1981262339395008,0.2539644766815553,0.3330081089700317,0.39127815773519065,0.4664496477810103,0.5271023942855352,0.5648449645902854,0.5147524469687816,0.2344289124484981,-0.18821329758817484,-0.01411144553582644,0.02391941907097565,0.057778120197567236,0.08117685574189798,0.09620247449739427,0.11541009410580175,0.1220420619452195,0.1223712327549912,0.13732599568978748,0.13967822427816562,0.12732392477693855,0.11281454967743493,0.10032597506528117,0.08984604306031599,0.09392450383161996,0.08532969433418666,0.1017352652425967,0.1242835970269308,0.1236478867483458,0.11237540898040432,0.09673161521767648,0.0767001902381288,0.037608190536014566,-0.007999156590609563,-0.022451992526405267,-0.024610542292185938,-0.02286422323687668,-0.04234999428004105,-0.053765533630526934,-0.04874184571292062,-0.05659205626346572,-0.07731237129178946,-0.03133169259443076,-0.014945312800298606,-0.007196391022410199,0.056841767307844474,0.0787852145876968,0.0942487555827933,0.1053470419883949,0.13303786877466006,0.16477874503222434,0.18383904476934046,0.1483624987423008,0.1567721599289847,0.17558503786404528,0.1734110931678554,0.15235916767991176,0.16059940500767508,0.16883299394154386,0.14985405522141093,0.1308929740317079,0.12871071155399247,0.13494275514671722,0.1244740690426208,0.10778243685149834,0.1183761042245149,0.1206695246655056,0.1146700538886166,0.10666564909992957,0.11131863394133462,0.10141609979608504,0.08533807554509684,0.05471420341663034,0.04304839787895959,0.05243827563154788,0.051481478987556124,0.04646261710611914,0.047853511632015636,0.059844547057380126,0.053126109462475805,0.0486379244213002,0.05475704219818628,0.07148533008176666,0.06532462243114986,0.04674483005570425,0.0555278263929601,0.058174528028112675,0.058872802944577175,0.061810228253128714,0.06489288186096863,0.08905761703587199,0.08824144429257892,0.08338044714636964,0.10378520769138118,0.11386010777740832,0.11778997431207867,0.10719665522336358,0.0,0.0,0.0,0.0,0.0,0.0,0.0,0.0,0.0,0.0,0.0,0.0,0.0,0.0,0.0,0.0,0.0,0.0,0.0,0.0,0.0,0.0,0.0,0.0,0.0,0.0,0.0,0.0,0.0,0.0,0.0,0.0,0.0,0.0,0.0,0.0,0.0,0.0,0.0,0.0,0.0,0.0,0.0,0.0,0.0,0.0,0.0,0.0,0.0,0.0,0.0,0.0,0.0,0.0,0.0,0.0,0.0,0.0,0.0,0.0,0.0,0.0,0.0,0.0,0.0,0.0,0.0,0.0,0.0,0.0,0.0,0.0,0.0,0.0,0.0,0.0,0.0,0.0,0.0,0.0,0.0,0.0,0.0,0.0,0.0,0.0,0.0,0.0,0.0,0.0,0.0,0.0,0.0,0.0,0.0,0.0,0.0,0.0,0.0,0.0,0.0,0.0,0.0,0.0,0.0,0.0,0.0,0.0,0.0,0.0,0.0,0.0,0.0,0.0,0.0,0.0,0.0,0.0,0.0,0.0,0.0,0.0,0.0,0.0,0.0,0.0,0.0,0.0,0.0,0.0,0.0,0.0,0.0,0.0,0.0,0.0,0.0,0.0,0.0,0.0,0.0,0.0,0.0,0.0,0.0,0.0,0.0,0.0,0.0,0.0,0.0,0.0,0.0,0.0,0.0,0.0,0.0,0.0,0.0,0.0,0.0,0.0,0.0,0.0,0.0,0.0,0.0,0.0,0.0,0.0,0.0,0.0,0.0,0.0,0
0.7349856077826913,0.42995032786645576,0.018715048355562144,-0.2341345967258456,-0.26350046110380954,-0.17118017941508576,-0.05080401113323968,0.05897485906605976,0.1357927581269721,0.17357040335813276,0.1886192753076962,0.20946350060087865,0.1974519361565892,0.1729643755667788,0.174699896057335,0.190467068661108,0.1999312482920824,0.20514827973220934,0.1959594941781204,0.19070339625289792,0.18939723988853585,0.1859505685355078,0.17223639300324145,0.15844706524193905,0.1568096616746842,0.16937253821500242,0.15340038232149064,0.1027975763772894,0.10306909023171436,0.09722838390695328,0.09342714303482652,0.06317602531800016,0.03498161965912359,0.037350199080719515,0.03161353508728205,0.01981492552923736,0.030460123702338908,0.0309872141823214,0.02140349972184293,0.0017161281374907474,0.008572682015588123,-0.01094503345142273,-0.0059403875373446715,0.01748789192649893,0.026779027932597902,0.03415504044060265,0.0375887159310993,0.030981498799779024,0.036732844666602614,0.06706412596980492,0.028346077431386174,-0.010204049159573488,0.020630856255618942,0.0353643633520023,0.003470751331186217,-0.005832180339564169,0.029854880391793032,0.04133044516634517,0.06320774474794265,0.1138151180094391,0.0791675202199501,0.07733610222548781,0.09204296581460264,0.12736568264379766,0.14666965105781934,0.14588900305054306,0.14945533643543807,0.1675504199970338,0.1696435621462501,0.17405728925821984,0.18282859425149414,0.18578008582909966,0.21344517164801932,0.20882614730641275,0.15360036861866258,0.14750811524950466,0.19665195873889849,0.22571030689237245,0.1817520264589712,0.10955296706883097,0.09867095399857596,0.1348483963628299,0.1712578394439046,0.17328466821120836,0.15720305271611154,0.11689485438333345,0.08288169040956432,0.1304674779238428,0.14564625374604287,0.16708032647212667,0.17439929247624306,0.1757301118987574,0.17309211591903387,0.19293078492403348,0.231156949017442,0.22871966096816865,0.22427492919300324,0.24629969023619905,0.2703445322413575,0.2821367401278609,0.2938648606054332,0.3177160297000974,0.31905744405210706,0.30600201047334125,0.32533716793053963,0.3790659409737691,0.3653748590700923,0.337153066125191,0.4002131061964572,0.5036257421527816,0.7511642455658482,0.5117529484790899,0.12528678447643116,-0.13958736954256876,-0.2564579560389914,-0.2477542123901249,-0.20509092473220994,-0.0938530319508354,0.05341968409632945,0.1309152740151812,0.19159720239121295,0.2558589087560059,0.2850608906645845,0.26295380858073925,0.2648882521318942,0.292932412601961,0.26772973063973576,0.2239149789033484,0.19815717705712207,0.19659044036778964,0.2172055506968133,0.2233873508210649,0.21312455362205107,0.0,0.0,0.0,0.0,0.0,0.0,0.0,0.0,0.0,0.0,0.0,0.0,0.0,0.0,0.0,0.0,0.0,0.0,0.0,0.0,0.0,0.0,0.0,0.0,0.0,0.0,0.0,0.0,0.0,0.0,0.0,0.0,0.0,0.0,0.0,0.0,0.0,0.0,0.0,0.0,0.0,0.0,0.0,0.0,0.0,0.0,0.0,0.0,0.0,0.0,0.0,0.0,0.0,0.0,0.0,0.0,0.0,0.0,0.0,0.0,0.0,0.0,0.0,0.0,0.0,0.0,0.0,0.0,0.0,0.0,0.0,0.0,0.0,0.0,0.0,0.0,0.0,0.0,0.0,0.0,0.0,0.0,0.0,0.0,0.0,0.0,0.0,0.0,0.0,0.0,0.0,0.0,0.0,0.0,0.0,0.0,0.0,0.0,0.0,0.0,0.0,0.0,0.0,0.0,0.0,0.0,0.0,0.0,0.0,0.0,0.0,0.0,0.0,0.0,0.0,0.0,0.0,0.0,0.0,0.0,0.0,0.0,0.0,0.0,0.0,0.0,0.0,0.0,0.0,0.0,0.0,0.0,0.0,0.0,0.0,0.0,0.0,0.0,0.0,0.0,0.0,0.0,0.0,0.0,0.0,0.0,0.0,0.0,0.0,0.0,0.0,0.0,0.0,0.0,0.0,0.0,0.0,0.0,0.0,0.0,0.0,0.0,0.0,0.0,0.0,0.0,0.0,0
0.7333902305933591,0.5381360580761514,0.1511314920496027,-0.1793195492852025,-0.3229778713657298,-0.2595088696339665,-0.017401312350432945,0.09804103650785877,0.17438409747392014,0.2218410459914178,0.2628376995126092,0.2628023679488234,0.2665498875619005,0.2761464818500669,0.2773723563233404,0.2702554353432538,0.25889342771925106,0.27791647580629497,0.2805300012983548,0.2891479485717972,0.2671508753624373,0.25119897724081663,0.2433461578907117,0.2212180371428564,0.21129307381350787,0.20340807884150292,0.19757673497454112,0.18974053661023504,0.1819467472270615,0.1742060959459681,0.1624572308444733,0.1568870285535406,0.14325452555982265,0.1337805874278322,0.1203295069009906,0.10901400740370652,0.093732696783776,0.07245480912865067,0.06757613772045465,0.060780400470339,0.05410683395722984,0.04755878520320457,0.04928167331555619,0.04299365174949527,0.057195511958485865,0.06339143209203484,0.04122764694147482,0.03345322964121535,0.048212091055043066,0.02647364817066596,0.01912870227704085,0.011929181339799777,0.01098277422952706,-0.008136674651795288,-0.023036905754589818,-0.02557398612911177,-0.013708551284108752,0.00035209321642921834,0.014579872395116081,0.033053466478638736,0.051709140174936614,0.062411821614923965,0.06923969431289244,0.09255531496279652,0.11811593792773074,0.1316783547942149,0.14342579442723544,0.1615052416451586,0.17167152193406834,0.17596333849261134,0.18048970747151746,0.1893231795499776,0.2085709886134918,0.20362770883473474,0.21113236945106106,0.20665541191589015,0.22072703470164629,0.22688000466799574,0.22103742724274192,0.2031924447633571,0.18555060830925585,0.19252996692670699,0.18544448660870036,0.18056798337924296,0.17381748949144518,0.17739381959727146,0.17906989140308222,0.1829024208849108,0.18684047170479448,0.199010121286898,0.1888603854109463,0.1869068544514492,0.20330831793252552,0.2115820890567874,0.22392059192733807,0.2138390652947546,0.2098124409875064,0.21181638247088705,0.2442525320061416,0.3111656162241392,0.44509733966093773,0.5584882973885785,0.6390935282217198,0.6665229359141476,0.5674580017260009,0.25229218906396833,-0.09988656951554914,-0.3914150291109508,-0.2274249499889616,-0.10459742481125196,0.0361229429038162,0.14387986103153402,0.2085285699294055,0.2341726901395541,0.2554485843839493,0.2866355879726459,0.29112211760161755,0.2892915551245964,0.2852411415459555,0.28713784272198506,0.29500485568388185,0.30886394177362925,0.31245070207016096,0.31596180684570463,0.3133076788802065,0.28414806156065425,0.2834578009649564,0.2705377966529345,0.2576127579214106,0.2548704557233773,0.2317856598511101,0.2148282640803044,0.21214673236473894,0.0,0.0,0.0,0.0,0.0,0.0,0.0,0.0,0.0,0.0,0.0,0.0,0.0,0.0,0.0,0.0,0.0,0.0,0.0,0.0,0.0,0.0,0.0,0.0,0.0,0.0,0.0,0.0,0.0,0.0,0.0,0.0,0.0,0.0,0.0,0.0,0.0,0.0,0.0,0.0,0.0,0.0,0.0,0.0,0.0,0.0,0.0,0.0,0.0,0.0,0.0,0.0,0.0,0.0,0.0,0.0,0.0,0.0,0.0,0.0,0.0,0.0,0.0,0.0,0.0,0.0,0.0,0.0,0.0,0.0,0.0,0.0,0.0,0.0,0.0,0.0,0.0,0.0,0.0,0.0,0.0,0.0,0.0,0.0,0.0,0.0,0.0,0.0,0.0,0.0,0.0,0.0,0.0,0.0,0.0,0.0,0.0,0.0,0.0,0.0,0.0,0.0,0.0,0.0,0.0,0.0,0.0,0.0,0.0,0.0,0.0,0.0,0.0,0.0,0.0,0.0,0.0,0.0,0.0,0.0,0.0,0.0,0.0,0.0,0.0,0.0,0.0,0.0,0.0,0.0,0.0,0.0,0.0,0.0,0.0,0.0,0.0,0.0,0.0,0.0,0.0,0.0,0.0,0.0,0.0,0.0,0.0,0.0,0.0,0.0,0.0,0.0,0.0,0.0,0.0,0.0,0.0,0.0,0.0,0.0,0.0,0.0,0.0,0.0,0.0,0.0,0.0,0
0.6949385453530227,0.683040539119206,0.33486266470704784,-0.07483064992855039,-0.31198984644446576,-0.3334013605473428,-0.20523870127301252,-0.057258072181890884,0.06731936085144519,0.1634464920615782,0.22607587908628626,0.2577929864493477,0.2713604471197591,0.2871733292200453,0.2823675740658864,0.287513755935539,0.29246784197093423,0.29217351115752993,0.28666212955388115,0.27596360235098705,0.2830075737845802,0.2721970900308516,0.2639144257634994,0.2632730464338509,0.24993935085956984,0.2519253409100035,0.2514394240469824,0.24341162163639984,0.2431272954962565,0.2455139927372172,0.24295347012731555,0.23291540627692855,0.2332248626783104,0.19809136859284687,0.20640744775913064,0.20220217403277727,0.1956625315921538,0.18170704536783644,0.1883327331577384,0.1799213365707093,0.1590222761442351,0.14599609575219305,0.1383013718016986,0.11303935307016055,0.1160141138942724,0.10905819811089776,0.08708304066632587,0.06535612886508319,0.07186738812726018,0.053180026495391934,0.03982785797813738,0.019086660679413992,0.00622233533153751,-0.006400485121860953,-0.0009714517872922509,-0.015660251260556955,0.0004236368658355629,0.01929040483248817,0.015494817467972852,0.02975048550882765,0.03661199985751302,0.04625784855021045,0.05614346303233479,0.06626861816621155,0.10207855515838578,0.11522551739386107,0.14133220316792966,0.1574955164067671,0.1967922979109094,0.20323848628793895,0.20990915089932036,0.2142542990279377,0.23662406076630216,0.266832598461588,0.2692471442791309,0.2820262626997248,0.2924356778453729,0.3182746001806065,0.323904709162345,0.3169438628791155,0.29737457577743903,0.3160692717075917,0.306848451163911,0.3027694478343612,0.3139868888092693,0.33029728968249583,0.35930761905653125,0.3882665963981897,0.4298668916977255,0.4764426359631818,0.5050583626312241,0.5334894182237915,0.6049543710325466,0.8059268919066686,0.8310131221758476,0.6827087129798839,0.3482377121560461,-0.024871039514293557,-0.2560109712583288,-0.294346459568326,-0.2544149157942576,-0.17184397248167954,-0.04661304687299871,0.06024497601908075,0.1614943058997582,0.2317302306570507,0.2709929777689807,0.2996782137116448,0.3305465258777905,0.3330992332644877,0.3200937721407857,0.32464251092879537,0.3111527005156229,0.2847431638742756,0.2886997888065597,0.28742522350770483,0.2580435462047639,0.24638091506481544,0.22955868097106374,0.2177764340821325,0.20850974323247307,0.1941439389620596,0.19505363102983792,0.19344383788275707,0.20205349917345256,0.17763994379999404,0.16093045569601974,0.14684908588468662,0.0,0.0,0.0,0.0,0.0,0.0,0.0,0.0,0.0,0.0,0.0,0.0,0.0,0.0,0.0,0.0,0.0,0.0,0.0,0.0,0.0,0.0,0.0,0.0,0.0,0.0,0.0,0.0,0.0,0.0,0.0,0.0,0.0,0.0,0.0,0.0,0.0,0.0,0.0,0.0,0.0,0.0,0.0,0.0,0.0,0.0,0.0,0.0,0.0,0.0,0.0,0.0,0.0,0.0,0.0,0.0,0.0,0.0,0.0,0.0,0.0,0.0,0.0,0.0,0.0,0.0,0.0,0.0,0.0,0.0,0.0,0.0,0.0,0.0,0.0,0.0,0.0,0.0,0.0,0.0,0.0,0.0,0.0,0.0,0.0,0.0,0.0,0.0,0.0,0.0,0.0,0.0,0.0,0.0,0.0,0.0,0.0,0.0,0.0,0.0,0.0,0.0,0.0,0.0,0.0,0.0,0.0,0.0,0.0,0.0,0.0,0.0,0.0,0.0,0.0,0.0,0.0,0.0,0.0,0.0,0.0,0.0,0.0,0.0,0.0,0.0,0.0,0.0,0.0,0.0,0.0,0.0,0.0,0.0,0.0,0.0,0.0,0.0,0.0,0.0,0.0,0.0,0.0,0.0,0.0,0.0,0.0,0.0,0.0,0.0,0.0,0.0,0.0,0.0,0.0,0.0,0.0,0.0,0.0,0.0,0.0,0.0,0.0,0.0,0.0,0.0,0.0,0.0,0.0,0.0,0.0,0.0,0
0.6900054566941798,0.4034799517808806,-0.05249356220631289,-0.4874950330339474,-0.2895044122801768,0.0193042801547748,0.0858505462477117,0.15199497209056095,0.17710765752963656,0.1740598471698922,0.18140281435007408,0.1670644478614721,0.1717343199188648,0.1783191103026109,0.17400479250014952,0.1973382769475284,0.2119629374299322,0.2179024562599408,0.2237397606928073,0.21237577419942288,0.2116519015280159,0.21516726651850324,0.2036794776152538,0.19646643883442416,0.19140427390138245,0.1927883527773227,0.19635278364470932,0.2042509393122628,0.2015146013100652,0.18601498704954209,0.2005639063452528,0.2023691913632206,0.22782049045551744,0.23412362112267784,0.22556493792826415,0.2042895486283932,0.17886166172251172,0.15356431188364336,0.15194032518056325,0.13760962655896652,0.11271275267104268,0.11577084733962842,0.0783006813567963,0.040962332316723,0.0337151053634783,0.0009150532558694502,0.006762326780217866,0.0020330341125576108,-0.000434540891850984,0.00363757069972201,0.01852737910139136,0.03995257158205817,0.057210514205707885,0.07671898278818795,0.08135462901003465,0.09465516855433023,0.11661707224827185,0.1450962614538737,0.16082746493306851,0.18520613356394197,0.19682539030045465,0.19781827014863929,0.2202778906383374,0.2556349326105793,0.2739182136235419,0.2515755016287589,0.2527963187496363,0.2561658816584718,0.25738875256068905,0.2671487461576833,0.2854280092603873,0.29080659104260226,0.3196451706502634,0.3505209160841705,0.3641494733086098,0.3990267927954675,0.4872267757012432,0.6608213280484723,0.8684169483415509,0.7269050216305328,0.2619271430446725,-0.17344706984286093,-0.3417134233189747,-0.3306428269786233,-0.03536687060094415,0.08617422930706449,0.18382525386367565,0.2276641534114545,0.2519702448468976,0.269620944852334,0.2742317245548088,0.2615567831659823,0.2637302439576725,0.27436355100966103,0.2806466011824897,0.2740480718976254,0.26101577066890874,0.2608365919058612,0.2585549059097104,0.2606145406921247,0.2563374219755224,0.2436044771669788,0.2459762662585389,0.24421060743306186,0.2383247746961356,0.2219145924322904,0.22281591243162369,0.22392187693513,0.2231050474296221,0.2310773229285677,0.20290750599735732,0.17926629138836736,0.17086229266568367,0.17128261754721524,0.1548528337353474,0.16438009057825811,0.18702878223711625,0.17572126194319732,0.1582816144107661,0.16895327431579765,0.0,0.0,0.0,0.0,0.0,0.0,0.0,0.0,0.0,0.0,0.0,0.0,0.0,0.0,0.0,0.0,0.0,0.0,0.0,0.0,0.0,0.0,0.0,0.0,0.0,0.0,0.0,0.0,0.0,0.0,0.0,0.0,0.0,0.0,0.0,0.0,0.0,0.0,0.0,0.0,0.0,0.0,0.0,0.0,0.0,0.0,0.0,0.0,0.0,0.0,0.0,0.0,0.0,0.0,0.0,0.0,0.0,0.0,0.0,0.0,0.0,0.0,0.0,0.0,0.0,0.0,0.0,0.0,0.0,0.0,0.0,0.0,0.0,0.0,0.0,0.0,0.0,0.0,0.0,0.0,0.0,0.0,0.0,0.0,0.0,0.0,0.0,0.0,0.0,0.0,0.0,0.0,0.0,0.0,0.0,0.0,0.0,0.0,0.0,0.0,0.0,0.0,0.0,0.0,0.0,0.0,0.0,0.0,0.0,0.0,0.0,0.0,0.0,0.0,0.0,0.0,0.0,0.0,0.0,0.0,0.0,0.0,0.0,0.0,0.0,0.0,0.0,0.0,0.0,0.0,0.0,0.0,0.0,0.0,0.0,0.0,0.0,0.0,0.0,0.0,0.0,0.0,0.0,0.0,0.0,0.0,0.0,0.0,0.0,0.0,0.0,0.0,0.0,0.0,0.0,0.0,0.0,0.0,0.0,0.0,0.0,0.0,0.0,0.0,0.0,0.0,0.0,0.0,0.0,0.0,0.0,0.0,0.0,0.0,0.0,0.0,0.0,0.0,0.0,0.0,0
0.4664113052402334,0.6244028535421942,0.7465335334811011,0.8353214226300546,0.8602013947144921,0.6811874344881389,0.2956962598300339,-0.08765911670721868,-0.30606950576307634,-0.2654209074270526,-0.1285722905071141,0.0383364300088101,0.14118723173270084,0.20800148648975555,0.2438986878136316,0.2616310133490143,0.2815831453656099,0.278336113267296,0.2722718832529851,0.2786818804287165,0.28741042147957824,0.29847872850586976,0.2966391383188625,0.2946328171038733,0.27211997667053195,0.23166052801976394,0.2063479180264529,0.20128411349515404,0.2012134518416046,0.18070096523636028,0.16520217390578695,0.15472594750988955,0.13655745616703588,0.14378344107661828,0.1280635700538373,0.1097603090628315,0.0761560125698936,0.05524568153822668,0.04703361438328251,0.0413455344674911,0.045818952928284994,0.0222888294646616,0.008927135865457809,0.03881658306305606,0.06361344675724842,0.0451521073895252,0.01397014440028627,-0.007028812649065683,-0.02293152581553844,-0.03373494000663133,-0.0216217986918165,-0.019663134644334796,0.00014186638113186482,0.014904392504623512,0.004280205843001713,0.01917308576346248,0.02651582492910807,0.021231441905299717,0.013510270915194971,0.026265413555509085,0.05187500739776084,0.06744961044948071,0.07808984311084978,0.07362854029707598,0.0820667670664536,0.09578117444842653,0.0918805549016826,0.11872131375133467,0.11269810984896812,0.12471087021650536,0.11405426896379467,0.13417162077401132,0.14435640593130758,0.149703778572494,0.16039732046465827,0.16371869250061394,0.14949332829272585,0.12790244050912386,0.13711681611898413,0.14405851080698354,0.1410946417352528,0.12568075518567545,0.1258065884407679,0.1262034803746616,0.09124554317931784,0.07691094745082082,0.07810761460985567,0.09483223093467708,0.07873417274855057,0.08578990516587925,0.0829153849148309,0.08282848448480966,0.06771176531445346,0.060460569998433175,0.08142532786643956,0.06952977534840224,0.050212781756829215,0.023467121693817167,0.01727564046524195,0.01127414662445499,0.02326698293890724,0.012533217563786586,-0.0005784047329506236,0.017003671681331524,0.02455839090926785,0.050068129101278384,0.07571279490506617,0.063315448978461,0.06375888813068929,0.09230154670758403,0.10313174731285407,0.12168544281477164,0.1199620015936492,0.12339625243180798,0.14978870018310042,0.15332486506628004,0.16707133424735696,0.19355903179417408,0.2047831499440614,0.21345110843764534,0.2220910042751885,0.21541784425833727,0.2315815935629391,0.25275049674024397,0.3018048357319894,0.4270693757889636,0.5827181090100977,0.7254674668535971,0.0,0.0,0.0,0.0,0.0,0.0,0.0,0.0,0.0,0.0,0.0,0.0,0.0,0.0,0.0,0.0,0.0,0.0,0.0,0.0,0.0,0.0,0.0,0.0,0.0,0.0,0.0,0.0,0.0,0.0,0.0,0.0,0.0,0.0,0.0,0.0,0.0,0.0,0.0,0.0,0.0,0.0,0.0,0.0,0.0,0.0,0.0,0.0,0.0,0.0,0.0,0.0,0.0,0.0,0.0,0.0,0.0,0.0,0.0,0.0,0.0,0.0,0.0,0.0,0.0,0.0,0.0,0.0,0.0,0.0,0.0,0.0,0.0,0.0,0.0,0.0,0.0,0.0,0.0,0.0,0.0,0.0,0.0,0.0,0.0,0.0,0.0,0.0,0.0,0.0,0.0,0.0,0.0,0.0,0.0,0.0,0.0,0.0,0.0,0.0,0.0,0.0,0.0,0.0,0.0,0.0,0.0,0.0,0.0,0.0,0.0,0.0,0.0,0.0,0.0,0.0,0.0,0.0,0.0,0.0,0.0,0.0,0.0,0.0,0.0,0.0,0.0,0.0,0.0,0.0,0.0,0.0,0.0,0.0,0.0,0.0,0.0,0.0,0.0,0.0,0.0,0.0,0.0,0.0,0.0,0.0,0.0,0.0,0.0,0.0,0.0,0.0,0.0,0.0,0.0,0.0,0.0,0.0,0.0,0.0,0.0,0.0,0.0,0.0,0.0,0.0,0.0,0.0,0.0,0.0,0.0,0.0,0
0.7769817805095225,0.6987686496135677,0.20735725789474946,-0.2161259063341412,-0.38191327271986997,-0.2613464762636195,-0.12812503475670606,0.004532649640295357,0.12342034664511164,0.191051979881116,0.21408598938104906,0.24332499342885305,0.2324512461541008,0.2322650787858205,0.22293344667904733,0.2177309939967485,0.2233094802079924,0.2529413461535425,0.2514729591845544,0.2630759723454302,0.2590813110224591,0.2328911519776193,0.2419168201574301,0.24644918232822866,0.2332649757789117,0.22004129901023525,0.20900328746919067,0.197960463045164,0.1935503293133242,0.17812957661541914,0.16937003435043105,0.16728458786501826,0.1608489922778921,0.1500744496625998,0.14600764122550236,0.12879290434294174,0.08961012973082892,0.07923449438053952,0.06677223023726342,0.06105979323370962,0.028995428605889675,0.016938316610830943,0.01827333231509643,0.0153489827158908,0.014793506874862666,-0.0054592696734687,-0.005672408446577011,0.0009173874553618653,-0.005547816215690597,-0.01402436483693948,-0.002431793365274193,0.009373818721529422,0.028023703072725937,0.04469824773959091,0.0660284973837699,0.10085252985122467,0.12048472936099427,0.1470058794072345,0.16276554090046338,0.1854286465306827,0.19072143832464356,0.1918925946503004,0.206604353619526,0.210580117045674,0.21044384717810047,0.2238547367433516,0.24419110281763204,0.22951403639458184,0.228380931210084,0.22313033316318803,0.2203794696793928,0.2289517092080864,0.22235321149242754,0.20940509832590984,0.2055491497626345,0.21518981545343566,0.22065795054784806,0.21973413097521485,0.21902685607734612,0.21852175649873232,0.23365416447846826,0.2445422128379859,0.25116817620788995,0.24689133648105585,0.2449350297894734,0.2452778177551194,0.2346534972714915,0.25056154238076445,0.259868040239865,0.2669611886824436,0.2740206295263945,0.2964682098369988,0.30999378641639885,0.3256018405345686,0.34325902011477444,0.3783811417999655,0.4618331026668755,0.6024053411309787,0.7250102327711435,0.8053240446772995,0.7130710984615689,0.2981063790358555,-0.1328165622035338,-0.38110124149438507,-0.30331997438995123,-0.1599368434521175,-0.0039049883430272094,0.13170295535530002,0.21381472303473725,0.24688075505681675,0.2728737861938913,0.3006564666812127,0.2927376921984451,0.2932933521384566,0.3001454820189976,0.2978711108377277,0.3041546169982219,0.3234353494951706,0.33366405644351865,0.31058261210590826,0.2851126393135756,0.2661016412291454,0.26018843877649106,0.24973069894017355,0.23474284116700064,0.21965254960139516,0.0,0.0,0.0,0.0,0.0,0.0,0.0,0.0,0.0,0.0,0.0,0.0,0.0,0.0,0.0,0.0,0.0,0.0,0.0,0.0,0.0,0.0,0.0,0.0,0.0,0.0,0.0,0.0,0.0,0.0,0.0,0.0,0.0,0.0,0.0,0.0,0.0,0.0,0.0,0.0,0.0,0.0,0.0,0.0,0.0,0.0,0.0,0.0,0.0,0.0,0.0,0.0,0.0,0.0,0.0,0.0,0.0,0.0,0.0,0.0,0.0,0.0,0.0,0.0,0.0,0.0,0.0,0.0,0.0,0.0,0.0,0.0,0.0,0.0,0.0,0.0,0.0,0.0,0.0,0.0,0.0,0.0,0.0,0.0,0.0,0.0,0.0,0.0,0.0,0.0,0.0,0.0,0.0,0.0,0.0,0.0,0.0,0.0,0.0,0.0,0.0,0.0,0.0,0.0,0.0,0.0,0.0,0.0,0.0,0.0,0.0,0.0,0.0,0.0,0.0,0.0,0.0,0.0,0.0,0.0,0.0,0.0,0.0,0.0,0.0,0.0,0.0,0.0,0.0,0.0,0.0,0.0,0.0,0.0,0.0,0.0,0.0,0.0,0.0,0.0,0.0,0.0,0.0,0.0,0.0,0.0,0.0,0.0,0.0,0.0,0.0,0.0,0.0,0.0,0.0,0.0,0.0,0.0,0.0,0.0,0.0,0.0,0.0,0.0,0.0,0.0,0.0,0.0,0.0,0.0,0.0,0.0,0.0,0.0,0
0.4370674471793873,0.6014486297034515,0.7704002867291125,0.8866476218740497,0.9549233329450884,0.6698989535580422,0.1889412873648529,-0.17794289777741507,-0.33540243860860525,-0.35502289165252804,0.04462971272967172,0.14091627341946264,0.18906869453967445,0.2344336192944198,0.2603453993537584,0.2906830944211863,0.28731311628262224,0.2884220801584583,0.2868791809488496,0.2755521714435501,0.26638778424889537,0.2522509599978769,0.2737063429157805,0.2616049342512959,0.2636639037728763,0.2655877670337233,0.2793152908096885,0.2786230855128151,0.2635219345208613,0.2554866940852044,0.24975533330538024,0.2511047509536969,0.2404600792601885,0.23929107513266698,0.216595154094211,0.19860977784998216,0.19249091091688555,0.19585331765669348,0.19200048931725894,0.18331535209233246,0.1721798721732182,0.17051530628070266,0.14254101470499567,0.10494664424411278,0.10542680208628633,0.09150339607097396,0.06078389421139936,0.05380623898190042,0.03717146386395902,0.029951472392199387,0.015442205595514244,0.0055600760641637634,0.00029616029457604694,-0.009898700123444274,-0.04172882041057665,-0.05465633277352955,-0.058225492488848986,-0.06674546603458881,-0.04681885293580067,-0.03420841341852557,-0.031281735045924575,-0.016552637816275913,0.002847408718242216,0.0007080932935575629,0.022370643705378,0.03685462735899929,0.05611043178459312,0.09924341556887636,0.10903699989646183,0.10459576658482916,0.11694901114926315,0.14373478125436415,0.16351012560719072,0.1834519955596244,0.17973085181762846,0.19529768757089014,0.19678094050489245,0.2128194180072608,0.2100395973703374,0.2409287557455629,0.2649561008005201,0.2582849979949383,0.2638589377517451,0.3007696013032702,0.3094006419606481,0.29930071070726993,0.2990973257358032,0.3016407320869497,0.2783142133257357,0.27682120166347185,0.28762249510294313,0.30356255931748705,0.28886380054923594,0.2649883498649845,0.26770720467188963,0.2803188983510211,0.2932757810771075,0.3041839567600681,0.3011078558246735,0.2768804913290318,0.2791895616528701,0.2984801381359999,0.29180517129857303,0.2925377761099962,0.3125841425247721,0.3089928069476248,0.3175174514890717,0.3118988671050145,0.3231174998015565,0.32968109700612797,0.3172509458883423,0.3096475136373005,0.3402298882936175,0.3493385903744689,0.3369387336616088,0.3697751349875414,0.400108441216184,0.3992778645482656,0.4268675323750578,0.5186090579329014,0.6816112988017455,0.8395037073366224,0.9755386222500892,0.9966425278862217,0.7286452704929155,0.2334918389849473,-0.13351505243228273,-0.26988934532801306,-0.3020972678913372,-0.2826428037501574,-0.20675999465446732,-0.06965603128790403,0.0667000881216856,0.18327691464752166,0.25627256230926143,0.29288990183728003,0.3313361956944306,0.34303579215035496,0.3590376772077363,0.3626880861590804,0.3754922875334801,0.37363775266494187,0.35000543786195965,0.3475605185520409,0.3424849703918011,0.3276543936711879,0.310252986914662,0.3093885692575189,0.27738595882641764,0.2691256531972846,0.2774754168256716,0.26191094366701256,0.26061324892616383,0.2592908991689256,0.0,0.0,0.0,0.0,0.0,0.0,0.0,0.0,0.0,0.0,0.0,0.0,0.0,0.0,0.0,0.0,0.0,0.0,0.0,0.0,0.0,0.0,0.0,0.0,0.0,0.0,0.0,0.0,0.0,0.0,0.0,0.0,0.0,0.0,0.0,0.0,0.0,0.0,0.0,0.0,0.0,0.0,0.0,0.0,0.0,0.0,0.0,0.0,0.0,0.0,0.0,0.0,0.0,0.0,0.0,0.0,0.0,0.0,0.0,0.0,0.0,0.0,0.0,0.0,0.0,0.0,0.0,0.0,0.0,0.0,0.0,0.0,0.0,0.0,0.0,0.0,0.0,0.0,0.0,0.0,0.0,0.0,0.0,0.0,0.0,0.0,0.0,0.0,0.0,0.0,0.0,0.0,0.0,0.0,0.0,0.0,0.0,0.0,0.0,0.0,0.0,0.0,0.0,0.0,0.0,0.0,0.0,0.0,0.0,0.0,0.0,0.0,0.0,0.0,0.0,0.0,0.0,0.0,0.0,0.0,0.0,0.0,0.0,0.0,0.0,0.0,0.0,0.0,0.0,0.0,0.0,0.0,0.0,0.0,0.0,0.0,0.0,0.0,0.0,0.0,0.0,0.0,0.0,0.0,0.0,0.0,0
0.7230594660687091,0.6319288969566801,0.1695652566460979,-0.4234867327091493,-0.3372109744882525,-0.03293098595050549,0.08324316757625058,0.16364048812326815,0.19945982419044286,0.22825159626188585,0.24121283733593066,0.2361612091795947,0.215327680846819,0.21184363404326914,0.2014507002717749,0.1863765319236564,0.17767680083895232,0.1930280170017068,0.18830261509641846,0.18338250825859714,0.18269787138179172,0.17081265236701398,0.15436245238146895,0.14439653188020973,0.14092709612825222,0.12851483167906733,0.1270358272595263,0.12767119224012638,0.12822317083889356,0.13532239562011286,0.12249000789888903,0.13387868599611066,0.11431394538264912,0.096910899158148,0.0860897520703078,0.053161374179007716,0.02903213533535278,0.015913802801361388,0.004981715300599945,0.007276442067616378,-0.0014775793804989454,-0.014654354451095187,-0.012384208128149934,-0.001283153338628593,0.0009976901125004882,-0.0033273656001683426,-0.012044013290491372,-0.0207303729970379,-0.0249634205771143,-0.020318162502592163,-0.033268827178158884,-0.008619215787527139,0.005088967273084958,0.021118023348500683,0.037279431609821334,0.05359182231358669,0.07890266602139857,0.1021938552557517,0.13451945478136107,0.15823868161144972,0.1645391068641869,0.19978892735321013,0.2286870202010857,0.2380038303412937,0.22333768597443332,0.22884537214416306,0.2324648569390598,0.2231692475986152,0.2318683658735819,0.2364967574551532,0.2370603754482437,0.2357712471495357,0.2414619845804992,0.236476940799708,0.2473043950669137,0.2607008240971733,0.2700432381102333,0.2753291138483845,0.2831763478643925,0.29357969003878875,0.2999107043436995,0.30436851355502137,0.30032171419290904,0.3010026910149448,0.3196423271701396,0.3142885839051733,0.30699826784618617,0.3065830741230687,0.2953660827677112,0.29981397440773433,0.3088685893559091,0.3136775255306893,0.3274594032631325,0.3391514510655628,0.342103773504398,0.3252502660376905,0.3304972738179461,0.3291173021285789,0.33211182392662425,0.35930969328482754,0.3621131467746073,0.3713838647388976,0.4091526902526781,0.5084848928493806,0.6715421028412139,0.7790842909603953,0.8443034707619307,0.822999086814939,0.5915051218512042,0.15417233078926873,-0.23743874131576875,-0.4200585872926656,-0.3208926669875114,-0.20923131939163586,0.11581127320022105,0.2282799096110272,0.2849345719539178,0.33217126716472783,0.3589959039420005,0.3610345001546085,0.3648128721496753,0.36595343764405264,0.3578695336146763,0.35163072067573403,0.3362322033381948,0.3337762780927501,0.0,0.0,0.0,0.0,0.0,0.0,0.0,0.0,0.0,0.0,0.0,0.0,0.0,0.0,0.0,0.0,0.0,0.0,0.0,0.0,0.0,0.0,0.0,0.0,0.0,0.0,0.0,0.0,0.0,0.0,0.0,0.0,0.0,0.0,0.0,0.0,0.0,0.0,0.0,0.0,0.0,0.0,0.0,0.0,0.0,0.0,0.0,0.0,0.0,0.0,0.0,0.0,0.0,0.0,0.0,0.0,0.0,0.0,0.0,0.0,0.0,0.0,0.0,0.0,0.0,0.0,0.0,0.0,0.0,0.0,0.0,0.0,0.0,0.0,0.0,0.0,0.0,0.0,0.0,0.0,0.0,0.0,0.0,0.0,0.0,0.0,0.0,0.0,0.0,0.0,0.0,0.0,0.0,0.0,0.0,0.0,0.0,0.0,0.0,0.0,0.0,0.0,0.0,0.0,0.0,0.0,0.0,0.0,0.0,0.0,0.0,0.0,0.0,0.0,0.0,0.0,0.0,0.0,0.0,0.0,0.0,0.0,0.0,0.0,0.0,0.0,0.0,0.0,0.0,0.0,0.0,0.0,0.0,0.0,0.0,0.0,0.0,0.0,0.0,0.0,0.0,0.0,0.0,0.0,0.0,0.0,0.0,0.0,0.0,0.0,0.0,0.0,0.0,0.0,0.0,0.0,0.0,0.0,0.0,0.0,0.0,0.0,0.0,0.0,0.0,0.0,0.0,0.0,0.0,0.0,0.0,0.0,0.0,0.0,0
0.8301881366782329,0.4918536094552276,0.005570081241691822,-0.28294981358495497,-0.3391824482513689,-0.2530529076533823,0.01463174465468524,0.13196681299407004,0.20271210018242106,0.2407277106078181,0.2483472173291852,0.2670897501803183,0.2831507119693852,0.2735037558408795,0.2566129831528907,0.2486360241909981,0.25189860485348003,0.24106396521372325,0.23459105337297725,0.22558147302162498,0.22327137977089886,0.2023192480187028,0.1996202317567756,0.18983067742988224,0.1937080044562464,0.1997372333484726,0.18718200186421893,0.17679681304213282,0.16858930202727396,0.1625662199806368,0.14029264668685865,0.12943492017409433,0.123082123701302,0.10740738269164614,0.08471893203378875,0.07576529800932542,0.08054865132161358,0.08062995541767372,0.06909528876992405,0.05055584446966,0.04345309145411835,0.02704148546788852,0.010541611188603991,-0.006046496128452857,-0.015807543274862834,-0.03487669816238342,-0.042505970126467035,-0.03868998719981842,-0.02341933934798001,-0.026647287186211874,-0.00917175988060966,0.012889359605472751,0.00958843830348483,0.01321557474881176,0.019179162674953197,0.05054877238230536,0.08890201430829536,0.12734176391514276,0.1451398308326101,0.1630592519487964,0.17650619936160655,0.18319113342641669,0.19234914973626036,0.19707870305238773,0.19969770060522385,0.1909975464630236,0.1825145781891169,0.18347907480537035,0.193899988545836,0.19995473292680646,0.19934526973328606,0.20360318229899976,0.2012080216940149,0.2082995636172579,0.19491450665292895,0.2048518216067984,0.18509515545540609,0.18635679083407364,0.18788987473668792,0.1712517259269125,0.1664058983473858,0.15029770794630626,0.16671964170057596,0.1833950178254384,0.19801266713642995,0.203650296366536,0.1887744150779445,0.19256279276344093,0.1896493555392707,0.1846334129062168,0.17980822256455362,0.1728559119400291,0.1729832271859328,0.1847858430685327,0.18750243034692132,0.18572687494201545,0.18405212526257989,0.19168040819046667,0.1924568912558617,0.2024972333391423,0.19872937062280427,0.21801291920017973,0.23727380912074464,0.2288266732619173,0.2203074434216113,0.2301304930494504,0.25365805852053225,0.2793359148962967,0.3324902258075849,0.4476661724205873,0.6156103059294781,0.8155414214289151,0.5656545252158506,0.11485837241281822,-0.449298358891436,-0.24631194241660534,-0.09219218408421644,0.045352617591698174,0.13869022995759078,0.2062902646714434,0.2550961221714339,0.2805246536757621,0.2733812278145553,0.28440250299167513,0.2744247321093399,0.2619103349005247,0.26301525542081305,0.2593175748681509,0.2462246806865923,0.2583294241457417,0.24723969745748856,0.22679989713733545,0.20624297639483552,0.0,0.0,0.0,0.0,0.0,0.0,0.0,0.0,0.0,0.0,0.0,0.0,0.0,0.0,0.0,0.0,0.0,0.0,0.0,0.0,0.0,0.0,0.0,0.0,0.0,0.0,0.0,0.0,0.0,0.0,0.0,0.0,0.0,0.0,0.0,0.0,0.0,0.0,0.0,0.0,0.0,0.0,0.0,0.0,0.0,0.0,0.0,0.0,0.0,0.0,0.0,0.0,0.0,0.0,0.0,0.0,0.0,0.0,0.0,0.0,0.0,0.0,0.0,0.0,0.0,0.0,0.0,0.0,0.0,0.0,0.0,0.0,0.0,0.0,0.0,0.0,0.0,0.0,0.0,0.0,0.0,0.0,0.0,0.0,0.0,0.0,0.0,0.0,0.0,0.0,0.0,0.0,0.0,0.0,0.0,0.0,0.0,0.0,0.0,0.0,0.0,0.0,0.0,0.0,0.0,0.0,0.0,0.0,0.0,0.0,0.0,0.0,0.0,0.0,0.0,0.0,0.0,0.0,0.0,0.0,0.0,0.0,0.0,0.0,0.0,0.0,0.0,0.0,0.0,0.0,0.0,0.0,0.0,0.0,0.0,0.0,0.0,0.0,0.0,0.0,0.0,0.0,0.0,0.0,0.0,0.0,0.0,0.0,0.0,0.0,0.0,0.0,0.0,0.0,0.0,0.0,0.0,0.0,0.0,0.0,0.0,0.0,0.0,0.0,0.0,0.0,0.0,0
0.8044949462509158,0.6030675478027482,0.11717258929927388,-0.3115436280504609,-0.3922295548459471,-0.25651915268033,-0.07525915866063644,0.04768400544479817,0.13081883090208832,0.19034474483252145,0.23553404308883175,0.2571874640016323,0.2576486968553182,0.2600395765201607,0.257465915200552,0.2638116564261981,0.25370941907563604,0.2456581917403127,0.2419939143909823,0.2450512987074404,0.2340755891519152,0.2414137966005308,0.2255293383578796,0.2256933250275556,0.23038157362087006,0.2465393784809056,0.278802056318077,0.2787006994755166,0.299353338177256,0.28767062580304903,0.2598264907099457,0.2366110743514658,0.22496026469987812,0.2294999409472801,0.21560482016285293,0.1902073349624652,0.1787094457362806,0.15571799589219826,0.12354484398848267,0.11451580441581365,0.08938247637186425,0.06661652959527448,0.04160092966430682,0.02357126342337313,0.02176290971223685,-0.005383036431246148,-0.030160817039781636,-0.017937685583215884,-0.024122233520958943,-0.02331244786430564,0.000660673088435473,0.013174179775912577,0.018855156655001027,0.03156592521087498,0.0466981068545292,0.050407862268133805,0.06117467879051871,0.09286014027160287,0.09929605584312293,0.1151226707040986,0.1218767419028806,0.15419744254485576,0.1866938675069129,0.193974340678728,0.17604333545343462,0.18831617274765236,0.17538365847094475,0.17418868594399398,0.17087910562359931,0.17238132854632648,0.1648414798300172,0.1551842542090665,0.15495117366006922,0.15952120416475224,0.17350783984817225,0.17843551998136947,0.21816611086577306,0.2118839974860358,0.2103755403098312,0.2228671773384528,0.22164308309870004,0.2343981351766748,0.2726643228694666,0.3225753805106939,0.37026367911236097,0.422639408332765,0.5166256409342025,0.6522021248851348,0.7808606848050282,0.9025752245235152,0.8857126772532289,0.5616942517338878,-0.027960130901417003,-0.4815565449221218,-0.08108928408768754,0.012108965727351928,0.04971456570778085,0.07330067553679515,0.0990431233519666,0.103867333465897,0.09471296939796536,0.09006330395488132,0.1084011363785073,0.09201756667580044,0.08710031046401631,0.10058658595098438,0.11401609287018663,0.10431037657257616,0.09918457827423184,0.08710328031775713,0.0773100006460598,0.0582683901624501,0.05076527336742871,0.05480775189634934,0.04269676486060423,0.0375271432784163,0.043922898885787785,0.0595813786086057,0.05911145251026687,0.07253351014246455,0.07214700237964038,0.05333927467668067,0.04612969762545322,0.04590498924945904,0.03881633402451298,0.03410294414947896,0.03407736056715232,0.04105195370560745,0.0,0.0,0.0,0.0,0.0,0.0,0.0,0.0,0.0,0.0,0.0,0.0,0.0,0.0,0.0,0.0,0.0,0.0,0.0,0.0,0.0,0.0,0.0,0.0,0.0,0.0,0.0,0.0,0.0,0.0,0.0,0.0,0.0,0.0,0.0,0.0,0.0,0.0,0.0,0.0,0.0,0.0,0.0,0.0,0.0,0.0,0.0,0.0,0.0,0.0,0.0,0.0,0.0,0.0,0.0,0.0,0.0,0.0,0.0,0.0,0.0,0.0,0.0,0.0,0.0,0.0,0.0,0.0,0.0,0.0,0.0,0.0,0.0,0.0,0.0,0.0,0.0,0.0,0.0,0.0,0.0,0.0,0.0,0.0,0.0,0.0,0.0,0.0,0.0,0.0,0.0,0.0,0.0,0.0,0.0,0.0,0.0,0.0,0.0,0.0,0.0,0.0,0.0,0.0,0.0,0.0,0.0,0.0,0.0,0.0,0.0,0.0,0.0,0.0,0.0,0.0,0.0,0.0,0.0,0.0,0.0,0.0,0.0,0.0,0.0,0.0,0.0,0.0,0.0,0.0,0.0,0.0,0.0,0.0,0.0,0.0,0.0,0.0,0.0,0.0,0.0,0.0,0.0,0.0,0.0,0.0,0.0,0.0,0.0,0.0,0.0,0.0,0.0,0.0,0.0,0.0,0.0,0.0,0.0,0.0,0.0,0.0,0.0,0.0,0.0,0.0,0.0,0.0,0.0,0.0,0.0,0.0,0
0.8794639518182437,0.7606185915382324,0.4130222808728735,-0.0638322479976268,-0.3907659819832763,-0.4318588765690395,-0.25998076119892155,0.0666088866294157,0.17643479249963134,0.2637968168284825,0.30688227845489985,0.3397262577538297,0.3550825455217958,0.36027255927710217,0.3650441620175036,0.3524329855639974,0.3588936961446923,0.3650301173026693,0.3587289407890633,0.3254468123122439,0.2992030017794419,0.2970176056185789,0.29948591085989346,0.27991705676906153,0.2674677657023044,0.2670111515087766,0.2664214444535565,0.23171755171636085,0.20419189602720944,0.16685844011608575,0.15615098538141406,0.1526534184093186,0.11752307789357032,0.1066171540557998,0.07380697203076146,0.0700921595545694,0.06634068588659524,0.05527415785501695,0.034470292368939316,0.01850407621192571,0.0073809984630079095,-0.0158910905644111,-0.012455296941821114,-0.0017305184993859732,-0.012847353382773213,-0.04094114284789729,-0.025296927132001643,0.004959969925645834,0.030419511262567762,0.03409985590861528,0.037870545070935006,0.05874450767303732,0.08459583257956821,0.09358543136392224,0.10758176867953947,0.10717308608567293,0.11422684239976227,0.15546640235817324,0.1750550492289991,0.19728657839020328,0.19546127120875995,0.17687351510924645,0.18766825448473615,0.18657359724230985,0.17116824722262758,0.15845574253578945,0.1581541027741245,0.15084190454511004,0.1438073634996703,0.1467661619713851,0.15972037968830352,0.1462480491649912,0.12577548483421488,0.14443869970245618,0.1488160213194643,0.11705192663980718,0.07828278727368924,0.09078304027782068,0.09384390757824118,0.07532057502935388,0.037637084619093535,0.03906618225261934,0.06017735709996351,0.052401252294107935,0.04729949952313113,0.05700770133142405,0.06937901484409773,0.03584299876508263,0.017098805051256154,-0.0014294412130238527,-0.017320154192177167,-0.016010507792817017,-0.01207468121304734,0.02605086429865492,0.0643688504997155,0.06402542710888202,0.06386949055035349,0.0930367335524804,0.11752878629952596,0.1252008018216899,0.10390734550524032,0.09006677457600097,0.10067115958564232,0.1381427953988924,0.17819304371072034,0.16982214568815776,0.15430184543579084,0.17047481705529902,0.1843363363737872,0.18616303576605708,0.19294105573918935,0.19737339706330312,0.2115878629406646,0.22342906078477207,0.2571638534524829,0.2617831389978248,0.2469820519600141,0.25159306866871106,0.2634547918075733,0.2849738914479841,0.3258403830639027,0.3690324274458702,0.4023829979668687,0.4695723033578425,0.589996331512964,0.7441971881900364,0.791302984556293,0.8114062119812464,0.0,0.0,0.0,0.0,0.0,0.0,0.0,0.0,0.0,0.0,0.0,0.0,0.0,0.0,0.0,0.0,0.0,0.0,0.0,0.0,0.0,0.0,0.0,0.0,0.0,0.0,0.0,0.0,0.0,0.0,0.0,0.0,0.0,0.0,0.0,0.0,0.0,0.0,0.0,0.0,0.0,0.0,0.0,0.0,0.0,0.0,0.0,0.0,0.0,0.0,0.0,0.0,0.0,0.0,0.0,0.0,0.0,0.0,0.0,0.0,0.0,0.0,0.0,0.0,0.0,0.0,0.0,0.0,0.0,0.0,0.0,0.0,0.0,0.0,0.0,0.0,0.0,0.0,0.0,0.0,0.0,0.0,0.0,0.0,0.0,0.0,0.0,0.0,0.0,0.0,0.0,0.0,0.0,0.0,0.0,0.0,0.0,0.0,0.0,0.0,0.0,0.0,0.0,0.0,0.0,0.0,0.0,0.0,0.0,0.0,0.0,0.0,0.0,0.0,0.0,0.0,0.0,0.0,0.0,0.0,0.0,0.0,0.0,0.0,0.0,0.0,0.0,0.0,0.0,0.0,0.0,0.0,0.0,0.0,0.0,0.0,0.0,0.0,0.0,0.0,0.0,0.0,0.0,0.0,0.0,0.0,0.0,0.0,0.0,0.0,0.0,0.0,0.0,0.0,0.0,0.0,0.0,0.0,0.0,0.0,0.0,0.0,0.0,0.0,0.0,0.0,0.0,0.0,0.0,0.0,0.0,0.0,0
0.5655179475384029,0.21837601547076174,-0.24691433196776205,-0.10570824163191483,0.01096255035741032,0.13974844495188538,0.14223942197364214,0.1487220689423091,0.17548946550900826,0.1818375493788177,0.1840577791451868,0.17197809070081516,0.16392369881735575,0.15379193051785145,0.14565722148108273,0.1354508958067923,0.14149499151192504,0.127150056678095,0.12702142983158138,0.13296651499660586,0.13887766674508728,0.13661098916152267,0.11598630628722904,0.10753447220550492,0.10718080493572868,0.09049422827645406,0.0839327714933692,0.07934905524863238,0.07673762315992994,0.06998586513513241,0.05705195870368743,0.054214002359334185,0.043144853203629895,0.019766196852044643,0.008497702363631308,-0.01102394444016148,-0.0347350723682412,-0.042286277716021975,-0.05403657004397069,-0.05777157123862867,-0.029058255783304832,-0.008596850817124184,0.0076980614617082905,0.03612622948489329,0.07466709230020674,0.06226792433373263,0.0905445507895707,0.10047914707356773,0.10837010509813166,0.12847972872508887,0.16489185169150827,0.18708470920342646,0.1808203972463926,0.1827497177535692,0.1949176124237436,0.20308342396834375,0.14618705044926808,0.09751602773115604,0.07743193371738878,0.0492994603955104,0.057906338787251675,0.08290131246195727,0.10393283545727766,0.12304038950761095,0.1300494227540996,0.1168203537907844,0.09963997882274904,0.08258099602422969,0.07175119102441467,0.06308000827328024,0.05860329042938656,0.05424980778671309,0.043912451967940865,0.03166177162094375,0.017496924521642896,0.011594838411333356,-0.0064014312760083255,-0.012066002673977349,0.004778514635877492,-0.004721326648283058,0.004217942402061636,0.001063570012148013,-0.018254603169496675,-0.01098827175072874,0.028972062060662062,0.04463378464246488,0.03396495019301038,0.1007838437937174,0.2613783975428597,0.3508689163381649,0.4181108919442418,0.4753175199938829,0.3779598101422504,0.07514333557983957,-0.040270547545396114,0.03374669546731547,0.1038112021555116,0.1332790367464227,0.1221462861985029,0.15997413988826312,0.15108488186976293,0.0690099085911392,0.02773527126051873,0.05575207853293793,0.0940211172286826,0.105894337610956,0.10561286120853453,0.09316818049458184,0.06448008856826272,0.03175259792661067,0.035687597834065235,0.047776906527299774,0.05986802035346181,0.06380819677516633,0.043302051295541086,0.03090793609304262,0.0367925446325609,0.036517459706917145,0.03414227931405857,0.029655247554941037,0.0006529956158136767,0.008191018255388883,0.04004372339293165,0.03716700793114908,0.0524737795706816,0.08595153315112439,0.031737047091163366,-0.03283062101200794,-0.04669725748520267,-0.013944270701321444,0.02063965410926872,0.05297886951884493,0.03014356918510071,0.0,0.0,0.0,0.0,0.0,0.0,0.0,0.0,0.0,0.0,0.0,0.0,0.0,0.0,0.0,0.0,0.0,0.0,0.0,0.0,0.0,0.0,0.0,0.0,0.0,0.0,0.0,0.0,0.0,0.0,0.0,0.0,0.0,0.0,0.0,0.0,0.0,0.0,0.0,0.0,0.0,0.0,0.0,0.0,0.0,0.0,0.0,0.0,0.0,0.0,0.0,0.0,0.0,0.0,0.0,0.0,0.0,0.0,0.0,0.0,0.0,0.0,0.0,0.0,0.0,0.0,0.0,0.0,0.0,0.0,0.0,0.0,0.0,0.0,0.0,0.0,0.0,0.0,0.0,0.0,0.0,0.0,0.0,0.0,0.0,0.0,0.0,0.0,0.0,0.0,0.0,0.0,0.0,0.0,0.0,0.0,0.0,0.0,0.0,0.0,0.0,0.0,0.0,0.0,0.0,0.0,0.0,0.0,0.0,0.0,0.0,0.0,0.0,0.0,0.0,0.0,0.0,0.0,0.0,0.0,0.0,0.0,0.0,0.0,0.0,0.0,0.0,0.0,0.0,0.0,0.0,0.0,0.0,0.0,0.0,0.0,0.0,0.0,0.0,0.0,0.0,0.0,0.0,0.0,0.0,0.0,0.0,0.0,0.0,0.0,0.0,0.0,0.0,0.0,0.0,0.0,0.0,0.0,0.0,0.0,0.0,0.0,0.0,0.0,0.0,0.0,0.0,0
0.6520495569675342,0.4711906873022786,0.0758758117079773,-0.2450332617294795,-0.3482002851783815,-0.2678920563623752,0.004459229808785293,0.11577395217223795,0.17308884797707466,0.21067748516506607,0.23285149958298254,0.2482016260688488,0.2481968256884709,0.2564059613396254,0.2471749025811395,0.241929913107514,0.2449754112240169,0.25419437701833003,0.2417876514289992,0.22703648058816486,0.2313609778790507,0.2205381405796368,0.21812586627519412,0.2070195022628302,0.21505490518646125,0.21228483948031185,0.2179827466589008,0.21503971159376928,0.20132626256810512,0.1982526907492785,0.18014660450786604,0.16199606854845072,0.14380771351721286,0.12986751245866987,0.11376033843207163,0.1040509484844856,0.10074322610392686,0.0802996964409278,0.061983904716690526,0.04365823276053445,0.027464904860935564,0.015545927015206006,0.012183244085473437,-0.0018821148785096344,-0.00952788652443091,-5.185726708484049e-05,0.0030078725985138908,-0.004626106592148946,0.0005897709184696871,-0.002742089608101313,-0.010338371587107346,-0.013635345556600944,-0.006208376098673843,-0.01801282765636996,-0.021221417764823274,-0.0094059146339406,0.002463167667658945,0.035797503852026735,0.07348738490725562,0.08772254188721898,0.10205416695302597,0.11007194700231604,0.12890589674463412,0.12860380436430946,0.13485479443902784,0.12840574855131276,0.11568378828179547,0.12879630745444468,0.13992798817276705,0.14480370664147207,0.12630718228928833,0.12510346763859134,0.12835507894234474,0.12536398312551422,0.12683226723107074,0.13490108672470955,0.13459035339606973,0.12161968547605655,0.11738894251588845,0.12403669026429635,0.12872037419991836,0.13571742913266144,0.1150634272411212,0.10955585255430801,0.09136909953587558,0.09473922436107506,0.0982598454368196,0.08052410747390036,0.06292618767068156,0.05829955584762993,0.0388159195968135,0.02372837117800145,0.015169199256644656,0.00671026909897806,0.002623751071940212,0.013602010559144158,0.016096180796007303,0.01009816509063443,0.014860471974286438,0.011114188079278295,0.005271240007645505,-0.00481680596687721,-0.01701825754807501,-0.007800202949765802,-0.0007097898167809122,-0.012873196206651328,-0.005774551824034743,-0.002958972910809792,-0.002290112854351441,-0.014471801075648116,-0.022386658973546844,-0.02389646645117258,-0.0232811052470677,0.0008627273366185928,0.007878336211875125,0.01489107908923421,0.011205283826127021,-0.0031744152287107624,0.012418007844497609,0.015185909150715275,0.0,0.0,0.0,0.0,0.0,0.0,0.0,0.0,0.0,0.0,0.0,0.0,0.0,0.0,0.0,0.0,0.0,0.0,0.0,0.0,0.0,0.0,0.0,0.0,0.0,0.0,0.0,0.0,0.0,0.0,0.0,0.0,0.0,0.0,0.0,0.0,0.0,0.0,0.0,0.0,0.0,0.0,0.0,0.0,0.0,0.0,0.0,0.0,0.0,0.0,0.0,0.0,0.0,0.0,0.0,0.0,0.0,0.0,0.0,0.0,0.0,0.0,0.0,0.0,0.0,0.0,0.0,0.0,0.0,0.0,0.0,0.0,0.0,0.0,0.0,0.0,0.0,0.0,0.0,0.0,0.0,0.0,0.0,0.0,0.0,0.0,0.0,0.0,0.0,0.0,0.0,0.0,0.0,0.0,0.0,0.0,0.0,0.0,0.0,0.0,0.0,0.0,0.0,0.0,0.0,0.0,0.0,0.0,0.0,0.0,0.0,0.0,0.0,0.0,0.0,0.0,0.0,0.0,0.0,0.0,0.0,0.0,0.0,0.0,0.0,0.0,0.0,0.0,0.0,0.0,0.0,0.0,0.0,0.0,0.0,0.0,0.0,0.0,0.0,0.0,0.0,0.0,0.0,0.0,0.0,0.0,0.0,0.0,0.0,0.0,0.0,0.0,0.0,0.0,0.0,0.0,0.0,0.0,0.0,0.0,0.0,0.0,0.0,0.0,0.0,0.0,0.0,0.0,0.0,0.0,0.0,0.0,0.0,0.0,0.0,0.0,0.0,0.0,0.0,0.0,0
0.7359762518165671,0.19341375950048645,-0.296222480607855,-0.21810476838281148,-0.10558414162207884,0.01595074128554605,0.0957241694719256,0.12451921536160765,0.14622146442868225,0.14237758498157446,0.1453276801669775,0.13661697529806946,0.13011352919682098,0.12352293752672973,0.1330207511820435,0.11475243459753386,0.11259816464659968,0.12656985566927506,0.11742882169317828,0.10365638701663822,0.0921891601698772,0.09227205712598194,0.10622305573783966,0.10634493807565766,0.11111646959035562,0.1205452782097665,0.12771195910497654,0.13262298189507946,0.16529891206176758,0.16340662297984174,0.18005344776952015,0.18753700214992147,0.15815400157292553,0.12192086692539035,0.1042355768745667,0.08431898598737962,0.08987676787366031,0.06318762273072627,0.0273387017400404,0.012343317319350209,0.015891085045700862,0.012583301531555187,0.007035918356345079,0.0061736499077942025,-0.013093559028359831,-0.027679280038637816,-0.02142231799585133,-0.010482408388402082,-0.008708425859682496,6.648519810618056e-05,0.01584822761962267,0.017863272383903468,0.019970397100840344,0.04526359296316135,0.06835141109081815,0.09154808498339234,0.11947633210820947,0.13367015494417456,0.13644239011172796,0.1370316830549342,0.13313186838190938,0.13398022416635186,0.14419571137301918,0.1499260152671515,0.14655340303463024,0.14562117230485747,0.14481893359142256,0.153379697926051,0.17130044934660224,0.16625384484525185,0.15670585085751915,0.15188629965050104,0.14948011133804207,0.14486262087768906,0.1472613701752292,0.15205022247454789,0.1430581760886817,0.14567233212594666,0.16219081915578254,0.17644043158757255,0.18379128150060156,0.2165538103687894,0.2470080718648599,0.2612859912412824,0.287077121756559,0.3058931957432442,0.34772985036907456,0.3710075958670215,0.4011011498399917,0.4749275034769101,0.5993869080385583,0.7352007256522094,0.4621310769186686,-0.035151253667402294,-0.4149776429803566,-0.13480829046788734,-0.0050358474341454474,0.08518130579933625,0.11969985245255575,0.15856729875736725,0.16947752345438047,0.1639913012189026,0.1582862107882228,0.1731566623927232,0.16705798026214386,0.15385644023810194,0.16357926294591044,0.17084108233349155,0.1756527974252479,0.17571562731537094,0.14564165558606929,0.13854216188459995,0.14057175163075486,0.11941373173511967,0.0750742663967158,0.060661914416295724,0.05771126175449361,0.033903636713573965,0.02618485078347925,0.029941682889576087,0.024399000959380274,0.011869780459988415,0.008519829212289573,-0.008735141633322258,-0.016802949029608008,-0.017987663063668585,-0.023827060441645283,-0.020460126068893133,0.0,0.0,0.0,0.0,0.0,0.0,0.0,0.0,0.0,0.0,0.0,0.0,0.0,0.0,0.0,0.0,0.0,0.0,0.0,0.0,0.0,0.0,0.0,0.0,0.0,0.0,0.0,0.0,0.0,0.0,0.0,0.0,0.0,0.0,0.0,0.0,0.0,0.0,0.0,0.0,0.0,0.0,0.0,0.0,0.0,0.0,0.0,0.0,0.0,0.0,0.0,0.0,0.0,0.0,0.0,0.0,0.0,0.0,0.0,0.0,0.0,0.0,0.0,0.0,0.0,0.0,0.0,0.0,0.0,0.0,0.0,0.0,0.0,0.0,0.0,0.0,0.0,0.0,0.0,0.0,0.0,0.0,0.0,0.0,0.0,0.0,0.0,0.0,0.0,0.0,0.0,0.0,0.0,0.0,0.0,0.0,0.0,0.0,0.0,0.0,0.0,0.0,0.0,0.0,0.0,0.0,0.0,0.0,0.0,0.0,0.0,0.0,0.0,0.0,0.0,0.0,0.0,0.0,0.0,0.0,0.0,0.0,0.0,0.0,0.0,0.0,0.0,0.0,0.0,0.0,0.0,0.0,0.0,0.0,0.0,0.0,0.0,0.0,0.0,0.0,0.0,0.0,0.0,0.0,0.0,0.0,0.0,0.0,0.0,0.0,0.0,0.0,0.0,0.0,0.0,0.0,0.0,0.0,0.0,0.0,0.0,0.0,0.0,0.0,0.0,0.0,0.0,0.0,0.0,0.0,0.0,0.0,0
0.8712595613550601,0.7620909967795492,0.3685490851175354,-0.3902256690725577,-0.2998433723651812,-0.16840839482063724,-0.01899587494700289,0.11840857037075395,0.22536525747978334,0.2765074335099849,0.3180408162337566,0.3430667492159389,0.33775850864289264,0.3367729955880228,0.31704477921220225,0.3132273879313146,0.2999432960925585,0.2979899264021848,0.2796778616291727,0.2704191862632592,0.26560985198247905,0.2537179811945369,0.2462986255058729,0.2364349621346246,0.21028245963140305,0.2024807445927996,0.1899477490831181,0.1749974757357345,0.16456062889487852,0.16094938646780188,0.14800449776021551,0.12803651312929426,0.12413467443291999,0.11782872030001687,0.09064776868613694,0.07491451434882092,0.054465858585975364,0.0500795397197276,0.029430032072522594,0.010985725514696558,-0.0052557430319711395,-0.023914443023928075,-0.02190403592443891,-0.03385655444466968,-0.02744600439318679,-0.018828515426674484,-0.033392912730597975,-0.029570286762269624,-0.016582721597882686,-0.024428923659584014,-0.004605949367783406,0.012891390961671972,0.041936413349316574,0.0710052863859348,0.10704457477864077,0.15238283675851744,0.1793333609113795,0.1925322340560516,0.1989234720693534,0.19852365099253536,0.20289248087348524,0.2051180733434393,0.20059635129602893,0.18472221203451866,0.1805954585780112,0.1836090616369544,0.18453743749490384,0.1880070387389043,0.18940809236961456,0.18412988535249986,0.1721784090621625,0.16279403712297633,0.1444368507440739,0.14019850303639544,0.1246845847058366,0.09097059126417442,0.08523438647065212,0.08207978176277035,0.09536019972768993,0.06966388080967591,0.06040222344237346,0.07219211179443348,0.07040009070179712,0.07118650998543669,0.06993193594267491,0.07586953328708196,0.09592329134774864,0.143943297280498,0.2407056357990949,0.3631179831296259,0.4234396916756113,0.4655313645642299,0.48476614750341207,0.4488089498466698,0.3714987716127693,0.2274223314541347,0.09506164814531197,0.01595639175239702,0.010866325510048848,0.049756966925377434,0.005623098732283616,-0.06845233858580088,-0.06859226671534788,-0.05022207938183303,0.01666589777218978,0.06973108120972603,0.09050049283548343,0.11591262329395315,0.13442017050637128,0.1252399499316592,0.11376461942387672,0.11153325628853657,0.120849066108856,0.1255440910033743,0.12099389746929773,0.10026459855857801,0.10952469402406924,0.11875093337724725,0.1002283442309172,0.10012378363680308,0.10226531293531947,0.09509814429756204,0.0878464100912574,0.08511611574381163,0.061498093028185714,0.07239164850474633,0.08084275225141263,0.06605879246145784,0.0,0.0,0.0,0.0,0.0,0.0,0.0,0.0,0.0,0.0,0.0,0.0,0.0,0.0,0.0,0.0,0.0,0.0,0.0,0.0,0.0,0.0,0.0,0.0,0.0,0.0,0.0,0.0,0.0,0.0,0.0,0.0,0.0,0.0,0.0,0.0,0.0,0.0,0.0,0.0,0.0,0.0,0.0,0.0,0.0,0.0,0.0,0.0,0.0,0.0,0.0,0.0,0.0,0.0,0.0,0.0,0.0,0.0,0.0,0.0,0.0,0.0,0.0,0.0,0.0,0.0,0.0,0.0,0.0,0.0,0.0,0.0,0.0,0.0,0.0,0.0,0.0,0.0,0.0,0.0,0.0,0.0,0.0,0.0,0.0,0.0,0.0,0.0,0.0,0.0,0.0,0.0,0.0,0.0,0.0,0.0,0.0,0.0,0.0,0.0,0.0,0.0,0.0,0.0,0.0,0.0,0.0,0.0,0.0,0.0,0.0,0.0,0.0,0.0,0.0,0.0,0.0,0.0,0.0,0.0,0.0,0.0,0.0,0.0,0.0,0.0,0.0,0.0,0.0,0.0,0.0,0.0,0.0,0.0,0.0,0.0,0.0,0.0,0.0,0.0,0.0,0.0,0.0,0.0,0.0,0.0,0.0,0.0,0.0,0.0,0.0,0.0,0.0,0.0,0.0,0.0,0.0,0.0,0.0,0.0,0.0,0.0,0.0,0.0,0.0,0.0,0.0,0.0,0.0,0.0,0.0,0.0,0
0.6565442645924986,0.3739388767390208,-0.06683013852301235,-0.4472662000437794,-0.20163079022880964,-0.014676660666425131,0.1233337671431025,0.17843148992305646,0.2137757234150142,0.24638859425171644,0.2762936139420397,0.3010848411597103,0.27950341883553304,0.26498959927105803,0.2624178194071767,0.2596636449915359,0.23974488789832946,0.22210137506619945,0.21403063024845687,0.2106879622306464,0.21451227232169529,0.2206567457141853,0.1975630652253761,0.17923377447761082,0.19238576660137194,0.1690344237633173,0.12375367653533195,0.11482458637639055,0.113111643858668,0.10161986989229872,0.07792304518226716,0.06387665125599065,0.06676645467259126,0.057454589225260824,0.02622862201234353,0.014368471594980857,2.018219456988085e-05,-0.007103402211533111,-0.01914342577648711,-0.05066857872241925,-0.01911689695887759,-0.01675350711726551,-0.016858896007040842,-0.03156349312933708,-0.029288150330958437,0.00212351193571211,0.028694458641186464,0.04801451573673394,0.07952735373093447,0.09411198521622444,0.12092432656054936,0.1551247310814332,0.1967293892591235,0.23361261148932105,0.2536477245207801,0.2908430839905841,0.3160720341005593,0.29535002305275543,0.2845350916996466,0.29091938630002656,0.29993964240762633,0.3067440245479582,0.3016227557639659,0.2870056298393621,0.29203136225804044,0.302129257416537,0.27601672974061564,0.2549691933438132,0.2729760195794832,0.2863222364053086,0.28285837849719125,0.2480053280276728,0.2376009587505713,0.2346352776277173,0.23423820807703896,0.2266820585557191,0.23380483792821796,0.2215943411286026,0.22402737904774145,0.2265152367612321,0.22418096277649005,0.2558544490839552,0.3360822578474708,0.4454145794681396,0.5279766105531007,0.5983097265097651,0.6782373255390258,0.6827380950372999,0.6190597251171506,0.3803201102682876,-0.4633193289779115,-0.27771131533911103,0.033844611477009665,0.10471211150912088,0.14859946880343652,0.16553100533392714,0.1725278463224669,0.17689740576719018,0.18108979324264327,0.18998245472852132,0.22059303521644466,0.2438020328343728,0.2717685979121196,0.2850837901710173,0.3104735074407953,0.30910025804341923,0.3052587411299519,0.2722494716144224,0.2465051813137887,0.24260325276804584,0.23384008082425245,0.21779305623498527,0.2041795050133083,0.19300278063829085,0.1818369947992988,0.1949657239857554,0.17654034606022734,0.16298365795943498,0.1397249351826248,0.1359006143699622,0.11508446944812392,0.08455757089992308,0.07345440181542974,0.05505994197675937,0.06093610530629572,0.07408011258314773,0.028924462062332724,-0.021115894684960796,0.0,0.0,0.0,0.0,0.0,0.0,0.0,0.0,0.0,0.0,0.0,0.0,0.0,0.0,0.0,0.0,0.0,0.0,0.0,0.0,0.0,0.0,0.0,0.0,0.0,0.0,0.0,0.0,0.0,0.0,0.0,0.0,0.0,0.0,0.0,0.0,0.0,0.0,0.0,0.0,0.0,0.0,0.0,0.0,0.0,0.0,0.0,0.0,0.0,0.0,0.0,0.0,0.0,0.0,0.0,0.0,0.0,0.0,0.0,0.0,0.0,0.0,0.0,0.0,0.0,0.0,0.0,0.0,0.0,0.0,0.0,0.0,0.0,0.0,0.0,0.0,0.0,0.0,0.0,0.0,0.0,0.0,0.0,0.0,0.0,0.0,0.0,0.0,0.0,0.0,0.0,0.0,0.0,0.0,0.0,0.0,0.0,0.0,0.0,0.0,0.0,0.0,0.0,0.0,0.0,0.0,0.0,0.0,0.0,0.0,0.0,0.0,0.0,0.0,0.0,0.0,0.0,0.0,0.0,0.0,0.0,0.0,0.0,0.0,0.0,0.0,0.0,0.0,0.0,0.0,0.0,0.0,0.0,0.0,0.0,0.0,0.0,0.0,0.0,0.0,0.0,0.0,0.0,0.0,0.0,0.0,0.0,0.0,0.0,0.0,0.0,0.0,0.0,0.0,0.0,0.0,0.0,0.0,0.0,0.0,0.0,0.0,0.0,0.0,0.0,0.0,0.0,0.0,0.0,0.0,0.0,0.0,0
0.8012712550423264,0.8736377322954466,0.10197128319977516,-0.23659261938386894,-0.2823775712448233,-0.17359095692706447,-0.033757190479663766,0.07014664874524355,0.13395873672420466,0.18911039279135544,0.23562624228935464,0.2525926155437016,0.23793827926736014,0.2419341108732053,0.2352878701149725,0.22220586622015576,0.2089869669234179,0.2123976036626886,0.2031409941176325,0.20216893269636527,0.1990261739042388,0.2041938108671368,0.21140206200791697,0.19972398015474613,0.18382505521631295,0.17208857364184715,0.16033449307618478,0.14438191072129364,0.13261153178579355,0.1313096046222312,0.1237306301137791,0.10987833216774316,0.10022449077087646,0.10524033651827124,0.10817804457781162,0.0943829988622187,0.05757498218006887,0.050097883927491794,0.03845217281840442,0.02682529611465604,-0.0015328406479636985,0.00990825706803878,0.015086217040560282,-0.006936563135553045,-0.014285712900953509,-0.02789825111838229,-0.02683514057746381,-0.025748187824798745,-0.02881797533603512,-0.02137902499030158,-0.0076067354777459096,0.008325525518858226,0.011776438224009726,0.04044801489756885,0.06713642557509847,0.09394992730336073,0.11462150166091176,0.14172727499534707,0.15643677634896064,0.15666870569982794,0.16965327009341638,0.16818278462215655,0.1690171499890393,0.17216554641097578,0.15669895955393173,0.1540308879191298,0.16416802231520147,0.16199146403810394,0.16634992742059368,0.1604978227472743,0.16956342748350367,0.16633084294253694,0.14661440703220693,0.15019605988304266,0.13938881553231414,0.14141072037909844,0.14788562978756234,0.15462416196131015,0.17209234030143392,0.16469324626478568,0.14707873956298534,0.14436853117401935,0.16702545205653938,0.1752619726100718,0.17116442703727394,0.17147441785657705,0.17408907724560105,0.1727172101168375,0.16734795577695052,0.16843826467915127,0.1780693107507939,0.1962276907813896,0.20405549669521975,0.2140998634759052,0.23262570099002464,0.2533344389257221,0.2448015244844016,0.2321319817513012,0.2467108156435946,0.2738597015951167,0.2695867922343505,0.2568983891798968,0.2797367955815906,0.3024811021295779,0.3523210492256136,0.4627260697055003,0.6504139552276386,0.7981011472428278,0.8743439679393941,0.9000381226629154,0.7620759084618788,0.3410639173545994,-0.08039795928839523,-0.27624237897219234,-0.2716425549780936,-0.2048071446734543,-0.12179466173604647,0.017198969642403954,0.14311517854401887,0.22877000698646316,0.2637286609836652,0.28361737152294897,0.3094049063226963,0.31809018113752063,0.3034204442696605,0.27379749819608523,0.0,0.0,0.0,0.0,0.0,0.0,0.0,0.0,0.0,0.0,0.0,0.0,0.0,0.0,0.0,0.0,0.0,0.0,0.0,0.0,0.0,0.0,0.0,0.0,0.0,0.0,0.0,0.0,0.0,0.0,0.0,0.0,0.0,0.0,0.0,0.0,0.0,0.0,0.0,0.0,0.0,0.0,0.0,0.0,0.0,0.0,0.0,0.0,0.0,0.0,0.0,0.0,0.0,0.0,0.0,0.0,0.0,0.0,0.0,0.0,0.0,0.0,0.0,0.0,0.0,0.0,0.0,0.0,0.0,0.0,0.0,0.0,0.0,0.0,0.0,0.0,0.0,0.0,0.0,0.0,0.0,0.0,0.0,0.0,0.0,0.0,0.0,0.0,0.0,0.0,0.0,0.0,0.0,0.0,0.0,0.0,0.0,0.0,0.0,0.0,0.0,0.0,0.0,0.0,0.0,0.0,0.0,0.0,0.0,0.0,0.0,0.0,0.0,0.0,0.0,0.0,0.0,0.0,0.0,0.0,0.0,0.0,0.0,0.0,0.0,0.0,0.0,0.0,0.0,0.0,0.0,0.0,0.0,0.0,0.0,0.0,0.0,0.0,0.0,0.0,0.0,0.0,0.0,0.0,0.0,0.0,0.0,0.0,0.0,0.0,0.0,0.0,0.0,0.0,0.0,0.0,0.0,0.0,0.0,0.0,0.0,0.0,0.0,0.0,0.0,0.0,0.0,0.0,0.0,0.0,0.0,0.0,0.0,0.0,0
0.758160297553453,0.5277203493063415,-0.04401542413205512,-0.2680225723144738,-0.08427344951605756,0.020465099315979063,0.07464609827039137,0.12568732296534335,0.15462918729633834,0.16147633057717045,0.17784070873387275,0.19740376260101486,0.21068523483380466,0.2145254990202725,0.2278895381529975,0.22232912795979967,0.21996784833388947,0.2049984598130267,0.2027031397813581,0.19095090599346728,0.19502189732550285,0.19910478121345454,0.1810656320321901,0.18198570814902207,0.16708594718348171,0.14899851146382234,0.14983715481601395,0.12849870655711776,0.10709542633477216,0.0950956953998128,0.08300250567103774,0.0708008005162213,0.07111834419387937,0.07445688412780227,0.07447862112587665,0.06800619268738617,0.04870105494269099,0.035510795797728686,0.028417905798256038,0.008439844081145944,0.007166871306823121,-0.01334859153149493,-0.027837979758595296,-0.01735307853470501,-0.01983758997668984,-0.016339006094238585,-0.025832642035802888,-0.01988012610699192,-0.014291958173867022,-0.03751998539377986,-0.045316090744250984,-0.05980558129635729,-0.04621489752783838,-0.04246340483001492,-0.03589313456586087,-0.02648531997816153,-0.014217784461918641,-0.002226644282553191,0.018996570887308026,0.027352453148069545,0.03867120732709228,0.056139665586200864,0.07978365775536538,0.09698549706295732,0.12357437860141747,0.1311276868742551,0.17340322188434373,0.2061730497457774,0.2168164593147168,0.22115898936443176,0.22238185868262533,0.22366518026205354,0.20922310133127334,0.18855512259948096,0.19644617046690627,0.18866000416272669,0.19365800712907147,0.18932767589496774,0.18832443743340055,0.19065953617570494,0.19002165697939336,0.1864201493559325,0.16405936782941588,0.14507244253300125,0.13578763842391933,0.13621087714555316,0.12422173857237015,0.12827206513753342,0.12624013455243194,0.12761167292630465,0.11342449438535927,0.12793195451379044,0.13636661737788158,0.1387293061181366,0.1286985440903374,0.1125953969070055,0.12518756747030008,0.14750844311649688,0.1574299762682164,0.20868279722548566,0.3581575581142677,0.5363115086138364,0.6641176806882216,0.7605315029942556,0.7528416233016575,0.4640261905206505,-0.134382388783232,-0.12261133543013547,0.02836894672699385,0.11310765588075235,0.1632145215653212,0.2102987077766018,0.19430510213917787,0.17844909084097985,0.1722113359555282,0.16294594448016628,0.1569710162104629,0.16060383621226434,0.18016090469633605,0.17138497524118065,0.18800297887112252,0.17311267553199414,0.17727839033253104,0.17204335842265198,0.1573972093426818,0.15229356627105853,0.15355960256945025,0.13589606730097065,0.14037993022288958,0.0,0.0,0.0,0.0,0.0,0.0,0.0,0.0,0.0,0.0,0.0,0.0,0.0,0.0,0.0,0.0,0.0,0.0,0.0,0.0,0.0,0.0,0.0,0.0,0.0,0.0,0.0,0.0,0.0,0.0,0.0,0.0,0.0,0.0,0.0,0.0,0.0,0.0,0.0,0.0,0.0,0.0,0.0,0.0,0.0,0.0,0.0,0.0,0.0,0.0,0.0,0.0,0.0,0.0,0.0,0.0,0.0,0.0,0.0,0.0,0.0,0.0,0.0,0.0,0.0,0.0,0.0,0.0,0.0,0.0,0.0,0.0,0.0,0.0,0.0,0.0,0.0,0.0,0.0,0.0,0.0,0.0,0.0,0.0,0.0,0.0,0.0,0.0,0.0,0.0,0.0,0.0,0.0,0.0,0.0,0.0,0.0,0.0,0.0,0.0,0.0,0.0,0.0,0.0,0.0,0.0,0.0,0.0,0.0,0.0,0.0,0.0,0.0,0.0,0.0,0.0,0.0,0.0,0.0,0.0,0.0,0.0,0.0,0.0,0.0,0.0,0.0,0.0,0.0,0.0,0.0,0.0,0.0,0.0,0.0,0.0,0.0,0.0,0.0,0.0,0.0,0.0,0.0,0.0,0.0,0.0,0.0,0.0,0.0,0.0,0.0,0.0,0.0,0.0,0.0,0.0,0.0,0.0,0.0,0.0,0.0,0.0,0.0,0.0,0.0,0.0,0.0,0.0,0.0,0.0,0.0,0
0.6692780181843284,0.4014496005922735,-0.06965143565016399,-0.438800111381876,-0.3792993645663202,-0.20121927149810467,0.02629635440043632,0.17211146934718038,0.26488836710780617,0.3118230149015982,0.3415755214950525,0.3613389705505433,0.3520691683106687,0.3567314605137546,0.3419677757023393,0.3459698120584831,0.3449162117347861,0.3555297672363221,0.3516006145090111,0.3426928884983489,0.3288287590405153,0.3147987860603693,0.3053918853389752,0.27915982912129744,0.2695090535537727,0.2478332527931109,0.2594613785241387,0.2662443310857905,0.2658074901585198,0.23907954176519905,0.22899918908183015,0.21410754191956474,0.20872034174202075,0.17706617216733006,0.1525390747321786,0.14706673965334413,0.12249000714445428,0.09550517294633644,0.09473317923258584,0.07962798913067015,0.0716544382927413,0.054116135806032764,0.03893695380431599,0.01896007962819681,0.00849397192255915,0.0051516320959630645,-0.017304498678498856,-0.008790348135949444,-0.014622271146568394,-0.034799803742807514,-0.04308552329919111,-0.029934063644813377,-0.012031535026223693,0.01063415848200022,0.04046130757766915,0.06315278735187553,0.07156642591885642,0.06571489095859435,0.09092647607359712,0.1066672823357292,0.1344143023750551,0.13601770107120795,0.1472635763056933,0.14669610323405236,0.14386439378923493,0.17216734418928265,0.186296422703762,0.16717780630768694,0.1649032420142214,0.1627821912037948,0.13935318718750567,0.13516529555607695,0.11444522828435033,0.10343036771127008,0.09496679907778813,0.08905524580270027,0.08331090469424614,0.08965883794380095,0.0937881216460478,0.0861574871546017,0.08107571464807707,0.06900063575204488,0.05708503914942827,0.04294116141372836,0.05041652323541922,0.046117187961708835,0.044350002388404745,0.04749632384257079,0.03647182191221162,0.04466306778805007,0.03390489700487563,0.028043267972719384,0.024688400034958584,0.028605527648313117,0.02786439939157697,0.015304724369027594,0.007616590128553326,-0.0047455618477479896,-0.005091758618560496,-0.0005820941798006528,0.015934131849048606,0.011061794945917984,0.0038768300024164815,0.00391490949493511,0.004016324079789243,-0.0005936033846923879,-0.005149363015558352,-0.00011528498441397124,-0.002190779815546795,0.0029304260141194685,-0.00622096249666825,-0.008183323023198947,0.004195247091310937,0.011831858377163548,0.007568859271229408,0.017639263922938308,0.013419857776525384,0.013988373611121959,0.009801855787840845,0.000857485832170128,-0.010462551963120308,-0.007465766933325322,-0.002079295790032546,-0.0014594624438494961,-0.00799228971916186,0.01886727018667104,0.01710779795169917,0.012964695650370823,0.02074802093534052,0.016606938210811842,0.0029260776830524428,-0.0012146510404356925,0.0017991810284139734,-0.0023431406132871178,0.0006682818543968058,0.008448206413834158,-0.007624181836184619,-0.007003238517638133,0.010311524843235987,0.006160433602886626,0.013935314856962215,0.01694187759116656,0.008025968220872193,-0.0008862373354501527,0.006901500263950821,0.0051545725752789855,-0.001355990257472775,0.00406607501962951,0.0023413838311823264,0.012551359696379744,0.018001637779084572,0.018693152922286727,0.0074715946311047325,0.015343387369865213,0.0,0.0,0.0,0.0,0.0,0.0,0.0,0.0,0.0,0.0,0.0,0.0,0.0,0.0,0.0,0.0,0.0,0.0,0.0,0.0,0.0,0.0,0.0,0.0,0.0,0.0,0.0,0.0,0.0,0.0,0.0,0.0,0.0,0.0,0.0,0.0,0.0,0.0,0.0,0.0,0.0,0.0,0.0,0.0,0.0,0.0,0.0,0.0,0.0,0.0,0.0,0.0,0.0,0.0,0.0,0.0,0.0,0.0,0.0,0.0,0.0,0.0,0.0,0.0,0.0,0.0,0.0,0.0,0.0,0.0,0.0,0.0,0.0,0.0,0.0,0.0,0.0,0.0,0.0,0.0,0.0,0.0,0.0,0.0,0.0,0.0,0.0,0.0,0.0,0.0,0.0,0.0,0.0,0.0,0.0,0.0,0.0,0.0,0.0,0.0,0.0,0.0,0.0,0.0,0.0,0.0,0.0,0.0,0.0,0.0,0.0,0.0,0.0,0.0,0.0,0.0,0.0,0.0,0.0,0.0,0.0,0.0,0.0,0.0,0.0,0.0,0.0,0.0,0.0,0.0,0.0,0.0,0.0,0.0,0.0,0.0,0.0,0.0,0.0,0.0,0.0,0.0,0.0,0.0,0.0,0.0,0
0.8337074208882171,0.5319138765218333,0.09825367925797933,-0.22298855750732136,-0.3027838893329851,-0.2448976467917844,-0.16459191375565865,-0.038799295596250144,0.07718971771975702,0.16266487546472308,0.229186990714652,0.2514344063614761,0.27323742597410033,0.2738821964449332,0.2557045340165617,0.2533103352728234,0.241371525877882,0.238355732465112,0.22815282150429514,0.22231271033132108,0.2462147968403572,0.2560842607500926,0.249636914672388,0.22228218724406926,0.21322522643827574,0.1925169622052841,0.16708891522893274,0.1600073684843652,0.15054080198126207,0.15944875965961725,0.13372671903602593,0.11026839897878908,0.10752602129276544,0.10015428891993199,0.09507881692439148,0.11075023736745616,0.09646560030442723,0.0845051299737306,0.06796180787236537,0.05836902140152784,0.04190367906233504,0.0393189508167604,0.04370655446361117,0.03202228633082423,0.027323795288181782,0.0296175345567253,0.036604717184788985,0.039071097471841565,0.018581832478842368,0.0028039549858808795,-0.005951734227155527,-0.007679551953885475,-0.018508974449291976,-0.010771780890035807,-0.0005949596210916638,0.009726145654135564,0.017896247753405134,0.028535321524940507,0.04395814878199556,0.07569978287613982,0.1030236076159666,0.10058242120369287,0.11909692399661645,0.13321889616681004,0.14295566149276606,0.13678835988984153,0.14468928046224186,0.14361264663656265,0.15430892591388387,0.16986662508728173,0.18106837585147176,0.183306167675506,0.1788863953477496,0.17933495134065322,0.1708206946036507,0.17869834782484428,0.17760950140678367,0.16524588779758828,0.1807902153650264,0.18735594897430768,0.1964628241679135,0.2173245361548493,0.21766193386284385,0.2066866435641007,0.2074398245435396,0.22221567066928424,0.2371716137342197,0.2361588708991467,0.2422142338802221,0.2599324851694013,0.26624595354269964,0.2980183605107092,0.35523043949456057,0.4539971586996978,0.5551092248898261,0.6424061103801657,0.6928092012786204,0.7431693640595448,0.7704013087542836,0.7744670650846708,0.6700359792779533,0.3395020754738206,-0.09501320277992263,-0.3638634820070731,-0.2411903299980499,-0.08198684305266331,0.03077901495087001,0.09252058971127368,0.13092252278442862,0.15983837180088176,0.17929041845618088,0.1846899381465527,0.17375241336986258,0.15341281738920845,0.14443587602800695,0.14683961606200954,0.15142092787266406,0.1674167960731848,0.17409710197364522,0.1806972359986398,0.17801088965740605,0.16605126518792498,0.17249191741849973,0.16507287852410474,0.1576353892947446,0.15940965804856955,0.13582813740589647,0.14452662508798705,0.15093609752618067,0.1550633618246543,0.1569144704070972,0.15879980393412,0.14919833717159606,0.0,0.0,0.0,0.0,0.0,0.0,0.0,0.0,0.0,0.0,0.0,0.0,0.0,0.0,0.0,0.0,0.0,0.0,0.0,0.0,0.0,0.0,0.0,0.0,0.0,0.0,0.0,0.0,0.0,0.0,0.0,0.0,0.0,0.0,0.0,0.0,0.0,0.0,0.0,0.0,0.0,0.0,0.0,0.0,0.0,0.0,0.0,0.0,0.0,0.0,0.0,0.0,0.0,0.0,0.0,0.0,0.0,0.0,0.0,0.0,0.0,0.0,0.0,0.0,0.0,0.0,0.0,0.0,0.0,0.0,0.0,0.0,0.0,0.0,0.0,0.0,0.0,0.0,0.0,0.0,0.0,0.0,0.0,0.0,0.0,0.0,0.0,0.0,0.0,0.0,0.0,0.0,0.0,0.0,0.0,0.0,0.0,0.0,0.0,0.0,0.0,0.0,0.0,0.0,0.0,0.0,0.0,0.0,0.0,0.0,0.0,0.0,0.0,0.0,0.0,0.0,0.0,0.0,0.0,0.0,0.0,0.0,0.0,0.0,0.0,0.0,0.0,0.0,0.0,0.0,0.0,0.0,0.0,0.0,0.0,0.0,0.0,0.0,0.0,0.0,0.0,0.0,0.0,0.0,0.0,0.0,0.0,0.0,0.0,0.0,0.0,0.0,0.0,0.0,0.0,0.0,0.0,0.0,0.0,0.0,0.0,0.0,0.0,0.0,0.0,0.0,0.0,0
