'Time','ECG1'
'[11:06:00.000]',-0.035
'[11:06:00.008]',-0.015
'[11:06:00.016]',-0.045
'[11:06:00.023]',-0.025
'[11:06:00.031]',-0.035
'[11:06:00.039]',-0.035
'[11:06:00.047]',-0.015
'[11:06:00.055]',-0.015
'[11:06:00.063]',-0.045
'[11:06:00.070]',-0.015
'[11:06:00.078]',-0.015
'[11:06:00.086]',-0.015
'[11:06:00.094]',-0.005
'[11:06:00.102]',0.025
'[11:06:00.109]',0.025
'[11:06:00.117]',0.055
'[11:06:00.125]',0.045
'[11:06:00.133]',0.045
'[11:06:00.141]',0.035
'[11:06:00.148]',0.015
'[11:06:00.156]',0.015
'[11:06:00.164]',-0.035
'[11:06:00.172]',-0.045
'[11:06:00.180]',-0.035
'[11:06:00.188]',-0.065
'[11:06:00.195]',-0.055
'[11:06:00.203]',-0.065
'[11:06:00.211]',-0.075
'[11:06:00.219]',-0.055
'[11:06:00.227]',-0.045
'[11:06:00.234]',-0.075
'[11:06:00.242]',-0.035
'[11:06:00.250]',-0.035
'[11:06:00.258]',-0.025
'[11:06:00.266]',0.005
'[11:06:00.273]',0.025
'[11:06:00.281]',0.235
'[11:06:00.289]',0.875
'[11:06:00.297]',1415
'[11:06:00.305]',0.855
'[11:06:00.313]',-0.215
'[11:06:00.320]',-0.465
'[11:06:00.328]',-0.165
'[11:06:00.336]',-0.095
'[11:06:00.344]',-0.095
'[11:06:00.352]',-0.115
'[11:06:00.359]',-0.115
'[11:06:00.367]',-0.105
'[11:06:00.375]',-0.095
'[11:06:00.383]',-0.105
'[11:06:00.391]',-0.105
'[11:06:00.398]',-0.095
'[11:06:00.406]',-0.095
'[11:06:00.414]',-0.105
'[11:06:00.422]',-0.105
'[11:06:00.430]',-0.115
'[11:06:00.438]',-0.105
'[11:06:00.445]',-0.125
'[11:06:00.453]',-0.115
'[11:06:00.461]',-0.105
'[11:06:00.469]',-0.075
'[11:06:00.477]',-0.105
'[11:06:00.484]',-0.105
'[11:06:00.492]',-0.115
'[11:06:00.500]',-0.135
'[11:06:00.508]',-0.135
'[11:06:00.516]',-0.155
'[11:06:00.523]',-0.135
'[11:06:00.531]',-0.155
'[11:06:00.539]',-0.105
'[11:06:00.547]',-0.155
'[11:06:00.555]',-0.115
'[11:06:00.563]',-0.105
'[11:06:00.570]',-0.095
'[11:06:00.578]',-0.065
'[11:06:00.586]',-0.045
'[11:06:00.594]',-0.025
'[11:06:00.602]',-0.055
'[11:06:00.609]',-0.025
'[11:06:00.617]',-0.045
'[11:06:00.625]',-0.075
'[11:06:00.633]',-0.065
'[11:06:00.641]',-0.065
'[11:06:00.648]',-0.055
'[11:06:00.656]',-0.065
'[11:06:00.664]',-0.075
'[11:06:00.672]',-0.065
'[11:06:00.680]',-0.075
'[11:06:00.688]',-0.055
'[11:06:00.695]',-0.045
'[11:06:00.703]',-0.055
'[11:06:00.711]',-0.055
'[11:06:00.719]',-0.055
'[11:06:00.727]',-0.055
'[11:06:00.734]',-0.025
'[11:06:00.742]',-0.035
'[11:06:00.750]',-0.045
'[11:06:00.758]',-0.035
'[11:06:00.766]',-0.035
'[11:06:00.773]',-0.025
'[11:06:00.781]',0.005
'[11:06:00.789]',-0.055
'[11:06:00.797]',-0.055
'[11:06:00.805]',-0.015
'[11:06:00.813]',-0.005
'[11:06:00.820]',-0.055
'[11:06:00.828]',-0.045
'[11:06:00.836]',-0.055
'[11:06:00.844]',-0.025
'[11:06:00.852]',-0.035
'[11:06:00.859]',-0.045
'[11:06:00.867]',-0.045
'[11:06:00.875]',-0.015
'[11:06:00.883]',-0.045
'[11:06:00.891]',-0.035
'[11:06:00.898]',-0.015
'[11:06:00.906]',-0.005
'[11:06:00.914]',-0.045
'[11:06:00.922]',-0.035
'[11:06:00.930]',-0.015
'[11:06:00.938]',-0.015
'[11:06:00.945]',-0.015
'[11:06:00.953]',-0.025
'[11:06:00.961]',-0.025
'[11:06:00.969]',0.005
'[11:06:00.977]',0.025
'[11:06:00.984]',0.005
'[11:06:00.992]',0.045
'[11:06:01.000]',0.065
'[11:06:01.008]',0.055
'[11:06:01.016]',0.075
'[11:06:01.023]',0.065
'[11:06:01.031]',0.055
'[11:06:01.039]',0.015
'[11:06:01.047]',0.035
'[11:06:01.055]',0.015
'[11:06:01.063]',-0.045
'[11:06:01.070]',-0.045
'[11:06:01.078]',-0.065
'[11:06:01.086]',-0.065
'[11:06:01.094]',-0.045
'[11:06:01.102]',-0.065
'[11:06:01.109]',-0.035
'[11:06:01.117]',-0.015
'[11:06:01.125]',-0.045
'[11:06:01.133]',-0.045
'[11:06:01.141]',-0.005
'[11:06:01.148]',-0.015
'[11:06:01.156]',0.015
'[11:06:01.164]',0.035
'[11:06:01.172]',0.215
'[11:06:01.180]',0.845
'[11:06:01.188]',1395
'[11:06:01.195]',1155
'[11:06:01.203]',0.205
'[11:06:01.211]',-0.525
'[11:06:01.219]',-0.265
'[11:06:01.227]',-0.065
'[11:06:01.234]',-0.055
'[11:06:01.242]',-0.065
'[11:06:01.250]',-0.095
'[11:06:01.258]',-0.115
'[11:06:01.266]',-0.075
'[11:06:01.273]',-0.115
'[11:06:01.281]',-0.095
'[11:06:01.289]',-0.105
'[11:06:01.297]',-0.095
'[11:06:01.305]',-0.095
'[11:06:01.313]',-0.105
'[11:06:01.320]',-0.105
'[11:06:01.328]',-0.095
'[11:06:01.336]',-0.125
'[11:06:01.344]',-0.105
'[11:06:01.352]',-0.105
'[11:06:01.359]',-0.125
'[11:06:01.367]',-0.085
'[11:06:01.375]',-0.105
'[11:06:01.383]',-0.105
'[11:06:01.391]',-0.105
'[11:06:01.398]',-0.125
'[11:06:01.406]',-0.115
'[11:06:01.414]',-0.155
'[11:06:01.422]',-0.135
'[11:06:01.430]',-0.115
'[11:06:01.438]',-0.135
'[11:06:01.445]',-0.105
'[11:06:01.453]',-0.125
'[11:06:01.461]',-0.085
'[11:06:01.469]',-0.075
'[11:06:01.477]',-0.025
'[11:06:01.484]',-0.045
'[11:06:01.492]',-0.025
'[11:06:01.500]',-0.025
'[11:06:01.508]',-0.045
'[11:06:01.516]',-0.055
'[11:06:01.523]',-0.045
'[11:06:01.531]',-0.065
'[11:06:01.539]',-0.085
'[11:06:01.547]',-0.065
'[11:06:01.555]',-0.065
'[11:06:01.563]',-0.055
'[11:06:01.570]',-0.085
'[11:06:01.578]',-0.065
'[11:06:01.586]',-0.075
'[11:06:01.594]',-0.065
'[11:06:01.602]',-0.055
'[11:06:01.609]',-0.055
'[11:06:01.617]',-0.045
'[11:06:01.625]',-0.065
'[11:06:01.633]',-0.085
'[11:06:01.641]',-0.055
'[11:06:01.648]',-0.055
'[11:06:01.656]',-0.045
'[11:06:01.664]',-0.065
'[11:06:01.672]',-0.045
'[11:06:01.680]',-0.045
'[11:06:01.688]',-0.035
'[11:06:01.695]',-0.035
'[11:06:01.703]',-0.045
'[11:06:01.711]',-0.035
'[11:06:01.719]',-0.045
'[11:06:01.727]',-0.055
'[11:06:01.734]',-0.065
'[11:06:01.742]',-0.065
'[11:06:01.750]',-0.055
'[11:06:01.758]',-0.055
'[11:06:01.766]',-0.075
'[11:06:01.773]',-0.045
'[11:06:01.781]',-0.055
'[11:06:01.789]',-0.045
'[11:06:01.797]',-0.055
'[11:06:01.805]',-0.065
'[11:06:01.813]',-0.055
'[11:06:01.820]',-0.065
'[11:06:01.828]',-0.015
'[11:06:01.836]',-0.075
'[11:06:01.844]',-0.075
'[11:06:01.852]',-0.055
'[11:06:01.859]',-0.035
'[11:06:01.867]',-0.045
'[11:06:01.875]',0.005
'[11:06:01.883]',-0.005
'[11:06:01.891]',0.005
'[11:06:01.898]',-0.005
'[11:06:01.906]',0.035
'[11:06:01.914]',0.025
'[11:06:01.922]',0.025
'[11:06:01.930]',0.015
'[11:06:01.938]',-0.005
'[11:06:01.945]',-0.025
'[11:06:01.953]',-0.035
'[11:06:01.961]',-0.075
'[11:06:01.969]',-0.075
'[11:06:01.977]',-0.095
'[11:06:01.984]',-0.075
'[11:06:01.992]',-0.085
'[11:06:02.000]',-0.085
'[11:06:02.008]',-0.085
'[11:06:02.016]',-0.075
'[11:06:02.023]',-0.075
'[11:06:02.031]',-0.065
'[11:06:02.039]',-0.035
'[11:06:02.047]',-0.055
'[11:06:02.055]',-0.005
'[11:06:02.063]',0.045
'[11:06:02.070]',0.325
'[11:06:02.078]',0.985
'[11:06:02.086]',1295
'[11:06:02.094]',0.515
'[11:06:02.102]',-0.325
'[11:06:02.109]',-0.455
'[11:06:02.117]',-0.175
'[11:06:02.125]',-0.085
'[11:06:02.133]',-0.115
'[11:06:02.141]',-0.105
'[11:06:02.148]',-0.115
'[11:06:02.156]',-0.135
'[11:06:02.164]',-0.135
'[11:06:02.172]',-0.135
'[11:06:02.180]',-0.125
'[11:06:02.188]',-0.115
'[11:06:02.195]',-0.125
'[11:06:02.203]',-0.115
'[11:06:02.211]',-0.135
'[11:06:02.219]',-0.145
'[11:06:02.227]',-0.135
'[11:06:02.234]',-0.135
'[11:06:02.242]',-0.125
'[11:06:02.250]',-0.145
'[11:06:02.258]',-0.125
'[11:06:02.266]',-0.115
'[11:06:02.273]',-0.135
'[11:06:02.281]',-0.145
'[11:06:02.289]',-0.155
'[11:06:02.297]',-0.165
'[11:06:02.305]',-0.135
'[11:06:02.313]',-0.155
'[11:06:02.320]',-0.185
'[11:06:02.328]',-0.175
'[11:06:02.336]',-0.175
'[11:06:02.344]',-0.155
'[11:06:02.352]',-0.165
'[11:06:02.359]',-0.125
'[11:06:02.367]',-0.115
'[11:06:02.375]',-0.065
'[11:06:02.383]',-0.085
'[11:06:02.391]',-0.085
'[11:06:02.398]',-0.065
'[11:06:02.406]',-0.075
'[11:06:02.414]',-0.095
'[11:06:02.422]',-0.105
'[11:06:02.430]',-0.075
'[11:06:02.438]',-0.115
'[11:06:02.445]',-0.105
'[11:06:02.453]',-0.095
'[11:06:02.461]',-0.105
'[11:06:02.469]',-0.115
'[11:06:02.477]',-0.095
'[11:06:02.484]',-0.095
'[11:06:02.492]',-0.075
'[11:06:02.500]',-0.095
'[11:06:02.508]',-0.095
'[11:06:02.516]',-0.055
'[11:06:02.523]',-0.085
'[11:06:02.531]',-0.085
'[11:06:02.539]',-0.065
'[11:06:02.547]',-0.055
'[11:06:02.555]',-0.075
'[11:06:02.563]',-0.075
'[11:06:02.570]',-0.065
'[11:06:02.578]',-0.065
'[11:06:02.586]',-0.095
'[11:06:02.594]',-0.075
'[11:06:02.602]',-0.085
'[11:06:02.609]',-0.045
'[11:06:02.617]',-0.055
'[11:06:02.625]',-0.065
'[11:06:02.633]',-0.105
'[11:06:02.641]',-0.075
'[11:06:02.648]',-0.065
'[11:06:02.656]',-0.075
'[11:06:02.664]',-0.075
'[11:06:02.672]',-0.065
'[11:06:02.680]',-0.065
'[11:06:02.688]',-0.065
'[11:06:02.695]',-0.065
'[11:06:02.703]',-0.085
'[11:06:02.711]',-0.055
'[11:06:02.719]',-0.045
'[11:06:02.727]',-0.055
'[11:06:02.734]',-0.035
'[11:06:02.742]',-0.005
'[11:06:02.750]',-0.015
'[11:06:02.758]',-0.005
'[11:06:02.766]',0.015
'[11:06:02.773]',0.005
'[11:06:02.781]',0.005
'[11:06:02.789]',0.005
'[11:06:02.797]',-0.025
'[11:06:02.805]',-0.025
'[11:06:02.813]',-0.045
'[11:06:02.820]',-0.075
'[11:06:02.828]',-0.095
'[11:06:02.836]',-0.105
'[11:06:02.844]',-0.105
'[11:06:02.852]',-0.075
'[11:06:02.859]',-0.095
'[11:06:02.867]',-0.075
'[11:06:02.875]',-0.105
'[11:06:02.883]',-0.075
'[11:06:02.891]',-0.055
'[11:06:02.898]',-0.055
'[11:06:02.906]',-0.065
'[11:06:02.914]',-0.025
'[11:06:02.922]',0.045
'[11:06:02.930]',0.305
'[11:06:02.938]',1075
'[11:06:02.945]',1415
'[11:06:02.953]',0.695
'[11:06:02.961]',-0.305
'[11:06:02.969]',-0.515
'[11:06:02.977]',-0.225
'[11:06:02.984]',-0.095
'[11:06:02.992]',-0.075
'[11:06:03.000]',-0.105
'[11:06:03.008]',-0.135
'[11:06:03.016]',-0.115
'[11:06:03.023]',-0.125
'[11:06:03.031]',-0.125
'[11:06:03.039]',-0.135
'[11:06:03.047]',-0.115
'[11:06:03.055]',-0.115
'[11:06:03.063]',-0.105
'[11:06:03.070]',-0.125
'[11:06:03.078]',-0.105
'[11:06:03.086]',-0.135
'[11:06:03.094]',-0.095
'[11:06:03.102]',-0.115
'[11:06:03.109]',-0.145
'[11:06:03.117]',-0.125
'[11:06:03.125]',-0.135
'[11:06:03.133]',-0.105
'[11:06:03.141]',-0.145
'[11:06:03.148]',-0.135
'[11:06:03.156]',-0.135
'[11:06:03.164]',-0.145
'[11:06:03.172]',-0.155
'[11:06:03.180]',-0.145
'[11:06:03.188]',-0.165
'[11:06:03.195]',-0.165
'[11:06:03.203]',-0.145
'[11:06:03.211]',-0.145
'[11:06:03.219]',-0.105
'[11:06:03.227]',-0.075
'[11:06:03.234]',-0.055
'[11:06:03.242]',-0.035
'[11:06:03.250]',-0.055
'[11:06:03.258]',-0.055
'[11:06:03.266]',-0.065
'[11:06:03.273]',-0.065
'[11:06:03.281]',-0.075
'[11:06:03.289]',-0.065
'[11:06:03.297]',-0.055
'[11:06:03.305]',-0.085
'[11:06:03.313]',-0.105
'[11:06:03.320]',-0.095
'[11:06:03.328]',-0.065
'[11:06:03.336]',-0.085
'[11:06:03.344]',-0.085
'[11:06:03.352]',-0.075
'[11:06:03.359]',-0.045
'[11:06:03.367]',-0.075
'[11:06:03.375]',-0.075
'[11:06:03.383]',-0.015
'[11:06:03.391]',-0.065
'[11:06:03.398]',-0.085
'[11:06:03.406]',-0.045
'[11:06:03.414]',-0.035
'[11:06:03.422]',-0.065
'[11:06:03.430]',-0.045
'[11:06:03.438]',-0.045
'[11:06:03.445]',-0.035
'[11:06:03.453]',-0.035
'[11:06:03.461]',-0.055
'[11:06:03.469]',-0.055
'[11:06:03.477]',-0.045
'[11:06:03.484]',-0.045
'[11:06:03.492]',-0.035
'[11:06:03.500]',-0.075
'[11:06:03.508]',-0.055
'[11:06:03.516]',-0.035
'[11:06:03.523]',-0.065
'[11:06:03.531]',-0.055
'[11:06:03.539]',-0.065
'[11:06:03.547]',-0.055
'[11:06:03.555]',-0.045
'[11:06:03.563]',-0.085
'[11:06:03.570]',-0.045
'[11:06:03.578]',-0.055
'[11:06:03.586]',-0.055
'[11:06:03.594]',-0.035
'[11:06:03.602]',-0.015
'[11:06:03.609]',0.015
'[11:06:03.617]',0.005
'[11:06:03.625]',0.035
'[11:06:03.633]',0.025
'[11:06:03.641]',0.025
'[11:06:03.648]',0.005
'[11:06:03.656]',-0.025
'[11:06:03.664]',0.005
'[11:06:03.672]',-0.005
'[11:06:03.680]',-0.055
'[11:06:03.688]',-0.105
'[11:06:03.695]',-0.085
'[11:06:03.703]',-0.075
'[11:06:03.711]',-0.095
'[11:06:03.719]',-0.085
'[11:06:03.727]',-0.095
'[11:06:03.734]',-0.085
'[11:06:03.742]',-0.055
'[11:06:03.750]',-0.045
'[11:06:03.758]',-0.055
'[11:06:03.766]',-0.045
'[11:06:03.773]',-0.025
'[11:06:03.781]',0.025
'[11:06:03.789]',0.155
'[11:06:03.797]',0.685
'[11:06:03.805]',1345
'[11:06:03.813]',1075
'[11:06:03.820]',0.055
'[11:06:03.828]',-0.515
'[11:06:03.836]',-0.245
'[11:06:03.844]',-0.075
'[11:06:03.852]',-0.085
'[11:06:03.859]',-0.105
'[11:06:03.867]',-0.105
'[11:06:03.875]',-0.115
'[11:06:03.883]',-0.115
'[11:06:03.891]',-0.125
'[11:06:03.898]',-0.125
'[11:06:03.906]',-0.095
'[11:06:03.914]',-0.115
'[11:06:03.922]',-0.105
'[11:06:03.930]',-0.085
'[11:06:03.938]',-0.105
'[11:06:03.945]',-0.125
'[11:06:03.953]',-0.105
'[11:06:03.961]',-0.115
'[11:06:03.969]',-0.105
'[11:06:03.977]',-0.115
'[11:06:03.984]',-0.125
'[11:06:03.992]',-0.085
'[11:06:04.000]',-0.125
'[11:06:04.008]',-0.155
'[11:06:04.016]',-0.105
'[11:06:04.023]',-0.135
'[11:06:04.031]',-0.165
'[11:06:04.039]',-0.145
'[11:06:04.047]',-0.125
'[11:06:04.055]',-0.135
'[11:06:04.063]',-0.135
'[11:06:04.070]',-0.125
'[11:06:04.078]',-0.085
'[11:06:04.086]',-0.075
'[11:06:04.094]',-0.035
'[11:06:04.102]',-0.035
'[11:06:04.109]',-0.055
'[11:06:04.117]',-0.055
'[11:06:04.125]',-0.035
'[11:06:04.133]',-0.065
'[11:06:04.141]',-0.065
'[11:06:04.148]',-0.065
'[11:06:04.156]',-0.075
'[11:06:04.164]',-0.065
'[11:06:04.172]',-0.085
'[11:06:04.180]',-0.065
'[11:06:04.188]',-0.075
'[11:06:04.195]',-0.075
'[11:06:04.203]',-0.075
'[11:06:04.211]',-0.065
'[11:06:04.219]',-0.045
'[11:06:04.227]',-0.055
'[11:06:04.234]',-0.055
'[11:06:04.242]',-0.045
'[11:06:04.250]',-0.065
'[11:06:04.258]',-0.035
'[11:06:04.266]',-0.025
'[11:06:04.273]',-0.045
'[11:06:04.281]',-0.045
'[11:06:04.289]',-0.025
'[11:06:04.297]',-0.045
'[11:06:04.305]',-0.025
'[11:06:04.313]',-0.025
'[11:06:04.320]',-0.025
'[11:06:04.328]',-0.025
'[11:06:04.336]',-0.035
'[11:06:04.344]',-0.035
'[11:06:04.352]',-0.035
'[11:06:04.359]',-0.025
'[11:06:04.367]',-0.035
'[11:06:04.375]',-0.055
'[11:06:04.383]',-0.025
'[11:06:04.391]',-0.045
'[11:06:04.398]',-0.035
'[11:06:04.406]',-0.025
'[11:06:04.414]',-0.045
'[11:06:04.422]',-0.055
'[11:06:04.430]',-0.025
'[11:06:04.438]',-0.005
'[11:06:04.445]',-0.025
'[11:06:04.453]',-0.035
'[11:06:04.461]',-0.045
'[11:06:04.469]',-0.035
'[11:06:04.477]',-0.035
'[11:06:04.484]',-0.025
'[11:06:04.492]',-0.025
'[11:06:04.500]',0.005
'[11:06:04.508]',0.015
'[11:06:04.516]',0.025
'[11:06:04.523]',0.015
'[11:06:04.531]',0.025
'[11:06:04.539]',0.055
'[11:06:04.547]',0.035
'[11:06:04.555]',0.025
'[11:06:04.563]',0.005
'[11:06:04.570]',0.015
'[11:06:04.578]',-0.025
'[11:06:04.586]',-0.055
'[11:06:04.594]',-0.065
'[11:06:04.602]',-0.075
'[11:06:04.609]',-0.045
'[11:06:04.617]',-0.065
'[11:06:04.625]',-0.055
'[11:06:04.633]',-0.045
'[11:06:04.641]',-0.045
'[11:06:04.648]',-0.045
'[11:06:04.656]',-0.035
'[11:06:04.664]',-0.025
'[11:06:04.672]',-0.025
'[11:06:04.680]',0.005
'[11:06:04.688]',0.015
'[11:06:04.695]',0.135
'[11:06:04.703]',0.595
'[11:06:04.711]',1165
'[11:06:04.719]',1005
'[11:06:04.727]',0.215
'[11:06:04.734]',-0.415
'[11:06:04.742]',-0.215
'[11:06:04.750]',-0.075
'[11:06:04.758]',-0.085
'[11:06:04.766]',-0.085
'[11:06:04.773]',-0.095
'[11:06:04.781]',-0.095
'[11:06:04.789]',-0.115
'[11:06:04.797]',-0.115
'[11:06:04.805]',-0.085
'[11:06:04.813]',-0.115
'[11:06:04.820]',-0.135
'[11:06:04.828]',-0.115
'[11:06:04.836]',-0.115
'[11:06:04.844]',-0.105
'[11:06:04.852]',-0.125
'[11:06:04.859]',-0.105
'[11:06:04.867]',-0.105
'[11:06:04.875]',-0.115
'[11:06:04.883]',-0.115
'[11:06:04.891]',-0.125
'[11:06:04.898]',-0.095
'[11:06:04.906]',-0.145
'[11:06:04.914]',-0.145
'[11:06:04.922]',-0.125
'[11:06:04.930]',-0.125
'[11:06:04.938]',-0.135
'[11:06:04.945]',-0.145
'[11:06:04.953]',-0.135
'[11:06:04.961]',-0.145
'[11:06:04.969]',-0.145
'[11:06:04.977]',-0.135
'[11:06:04.984]',-0.105
'[11:06:04.992]',-0.055
'[11:06:05.000]',-0.065
'[11:06:05.008]',-0.045
'[11:06:05.016]',-0.045
'[11:06:05.023]',-0.065
'[11:06:05.031]',-0.055
'[11:06:05.039]',-0.085
'[11:06:05.047]',-0.075
'[11:06:05.055]',-0.065
'[11:06:05.063]',-0.085
'[11:06:05.070]',-0.095
'[11:06:05.078]',-0.075
'[11:06:05.086]',-0.075
'[11:06:05.094]',-0.095
'[11:06:05.102]',-0.105
'[11:06:05.109]',-0.085
'[11:06:05.117]',-0.085
'[11:06:05.125]',-0.065
'[11:06:05.133]',-0.075
'[11:06:05.141]',-0.075
'[11:06:05.148]',-0.075
'[11:06:05.156]',-0.045
'[11:06:05.164]',-0.035
'[11:06:05.172]',-0.065
'[11:06:05.180]',-0.035
'[11:06:05.188]',-0.055
'[11:06:05.195]',-0.045
'[11:06:05.203]',-0.045
'[11:06:05.211]',-0.055
'[11:06:05.219]',-0.055
'[11:06:05.227]',-0.045
'[11:06:05.234]',-0.035
'[11:06:05.242]',-0.035
'[11:06:05.250]',-0.055
'[11:06:05.258]',-0.045
'[11:06:05.266]',-0.045
'[11:06:05.273]',-0.045
'[11:06:05.281]',-0.055
'[11:06:05.289]',-0.045
'[11:06:05.297]',-0.065
'[11:06:05.305]',-0.055
'[11:06:05.313]',-0.055
'[11:06:05.320]',-0.045
'[11:06:05.328]',-0.045
'[11:06:05.336]',-0.045
'[11:06:05.344]',-0.055
'[11:06:05.352]',-0.055
'[11:06:05.359]',-0.035
'[11:06:05.367]',-0.025
'[11:06:05.375]',-0.035
'[11:06:05.383]',-0.005
'[11:06:05.391]',-0.005
'[11:06:05.398]',-0.005
'[11:06:05.406]',0.035
'[11:06:05.414]',0.025
'[11:06:05.422]',0.035
'[11:06:05.430]',0.045
'[11:06:05.438]',0.015
'[11:06:05.445]',-0.015
'[11:06:05.453]',-0.015
'[11:06:05.461]',-0.055
'[11:06:05.469]',-0.065
'[11:06:05.477]',-0.075
'[11:06:05.484]',-0.075
'[11:06:05.492]',-0.085
'[11:06:05.500]',-0.085
'[11:06:05.508]',-0.075
'[11:06:05.516]',-0.085
'[11:06:05.523]',-0.055
'[11:06:05.531]',-0.065
'[11:06:05.539]',-0.065
'[11:06:05.547]',-0.025
'[11:06:05.555]',-0.015
'[11:06:05.563]',-0.005
'[11:06:05.570]',0.055
'[11:06:05.578]',0.255
'[11:06:05.586]',0.905
'[11:06:05.594]',1395
'[11:06:05.602]',0.985
'[11:06:05.609]',0.035
'[11:06:05.617]',-0.495
'[11:06:05.625]',-0.215
'[11:06:05.633]',-0.105
'[11:06:05.641]',-0.075
'[11:06:05.648]',-0.095
'[11:06:05.656]',-0.085
'[11:06:05.664]',-0.135
'[11:06:05.672]',-0.085
'[11:06:05.680]',-0.075
'[11:06:05.688]',-0.095
'[11:06:05.695]',-0.085
'[11:06:05.703]',-0.085
'[11:06:05.711]',-0.085
'[11:06:05.719]',-0.065
'[11:06:05.727]',-0.095
'[11:06:05.734]',-0.115
'[11:06:05.742]',-0.095
'[11:06:05.750]',-0.115
'[11:06:05.758]',-0.075
'[11:06:05.766]',-0.095
'[11:06:05.773]',-0.085
'[11:06:05.781]',-0.105
'[11:06:05.789]',-0.125
'[11:06:05.797]',-0.075
'[11:06:05.805]',-0.095
'[11:06:05.813]',-0.115
'[11:06:05.820]',-0.125
'[11:06:05.828]',-0.125
'[11:06:05.836]',-0.125
'[11:06:05.844]',-0.125
'[11:06:05.852]',-0.125
'[11:06:05.859]',-0.085
'[11:06:05.867]',-0.065
'[11:06:05.875]',-0.065
'[11:06:05.883]',-0.035
'[11:06:05.891]',-0.035
'[11:06:05.898]',-0.035
'[11:06:05.906]',-0.025
'[11:06:05.914]',-0.035
'[11:06:05.922]',-0.035
'[11:06:05.930]',-0.055
'[11:06:05.938]',-0.045
'[11:06:05.945]',-0.075
'[11:06:05.953]',-0.055
'[11:06:05.961]',-0.055
'[11:06:05.969]',-0.075
'[11:06:05.977]',-0.055
'[11:06:05.984]',-0.095
'[11:06:05.992]',-0.065
'[11:06:06.000]',-0.055
'[11:06:06.008]',-0.045
'[11:06:06.016]',-0.065
'[11:06:06.023]',-0.045
'[11:06:06.031]',-0.045
'[11:06:06.039]',-0.055
'[11:06:06.047]',-0.025
'[11:06:06.055]',-0.015
'[11:06:06.063]',-0.015
'[11:06:06.070]',-0.045
'[11:06:06.078]',-0.035
'[11:06:06.086]',-0.045
'[11:06:06.094]',-0.045
'[11:06:06.102]',-0.045
'[11:06:06.109]',-0.035
'[11:06:06.117]',-0.055
'[11:06:06.125]',-0.055
'[11:06:06.133]',-0.035
'[11:06:06.141]',-0.055
'[11:06:06.148]',-0.045
'[11:06:06.156]',-0.025
'[11:06:06.164]',-0.055
'[11:06:06.172]',-0.065
'[11:06:06.180]',-0.055
'[11:06:06.188]',-0.035
'[11:06:06.195]',-0.045
'[11:06:06.203]',-0.055
'[11:06:06.211]',-0.035
'[11:06:06.219]',-0.045
'[11:06:06.227]',-0.055
'[11:06:06.234]',-0.055
'[11:06:06.242]',-0.045
'[11:06:06.250]',-0.035
'[11:06:06.258]',-0.035
'[11:06:06.266]',-0.045
'[11:06:06.273]',-0.025
'[11:06:06.281]',-0.065
'[11:06:06.289]',-0.045
'[11:06:06.297]',-0.045
'[11:06:06.305]',0.005
'[11:06:06.313]',0.025
'[11:06:06.320]',0.005
'[11:06:06.328]',0.045
'[11:06:06.336]',0.025
'[11:06:06.344]',0.065
'[11:06:06.352]',0.015
'[11:06:06.359]',0.075
'[11:06:06.367]',-0.015
'[11:06:06.375]',-0.005
'[11:06:06.383]',-0.025
'[11:06:06.391]',-0.035
'[11:06:06.398]',-0.065
'[11:06:06.406]',-0.075
'[11:06:06.414]',-0.085
'[11:06:06.422]',-0.075
'[11:06:06.430]',-0.055
'[11:06:06.438]',-0.075
'[11:06:06.445]',-0.065
'[11:06:06.453]',-0.035
'[11:06:06.461]',-0.045
'[11:06:06.469]',-0.045
'[11:06:06.477]',-0.005
'[11:06:06.484]',0.015
'[11:06:06.492]',0.075
'[11:06:06.500]',0.385
'[11:06:06.508]',1035
'[11:06:06.516]',1345
'[11:06:06.523]',0.625
'[11:06:06.531]',-0.355
'[11:06:06.539]',-0.415
'[11:06:06.547]',-0.145
'[11:06:06.555]',-0.065
'[11:06:06.563]',-0.075
'[11:06:06.570]',-0.085
'[11:06:06.578]',-0.115
'[11:06:06.586]',-0.085
'[11:06:06.594]',-0.125
'[11:06:06.602]',-0.095
'[11:06:06.609]',-0.105
'[11:06:06.617]',-0.115
'[11:06:06.625]',-0.115
'[11:06:06.633]',-0.105
'[11:06:06.641]',-0.115
'[11:06:06.648]',-0.115
'[11:06:06.656]',-0.105
'[11:06:06.664]',-0.105
'[11:06:06.672]',-0.085
'[11:06:06.680]',-0.105
'[11:06:06.688]',-0.105
'[11:06:06.695]',-0.125
'[11:06:06.703]',-0.125
'[11:06:06.711]',-0.105
'[11:06:06.719]',-0.115
'[11:06:06.727]',-0.115
'[11:06:06.734]',-0.115
'[11:06:06.742]',-0.145
'[11:06:06.750]',-0.125
'[11:06:06.758]',-0.135
'[11:06:06.766]',-0.155
'[11:06:06.773]',-0.125
'[11:06:06.781]',-0.115
'[11:06:06.789]',-0.065
'[11:06:06.797]',-0.075
'[11:06:06.805]',-0.045
'[11:06:06.813]',-0.045
'[11:06:06.820]',0.005
'[11:06:06.828]',-0.035
'[11:06:06.836]',-0.065
'[11:06:06.844]',-0.045
'[11:06:06.852]',-0.075
'[11:06:06.859]',-0.055
'[11:06:06.867]',-0.055
'[11:06:06.875]',-0.065
'[11:06:06.883]',-0.065
'[11:06:06.891]',-0.055
'[11:06:06.898]',-0.055
'[11:06:06.906]',-0.065
'[11:06:06.914]',-0.075
'[11:06:06.922]',-0.065
'[11:06:06.930]',-0.035
'[11:06:06.938]',-0.075
'[11:06:06.945]',-0.055
'[11:06:06.953]',-0.025
'[11:06:06.961]',-0.035
'[11:06:06.969]',-0.045
'[11:06:06.977]',-0.055
'[11:06:06.984]',-0.055
'[11:06:06.992]',-0.015
'[11:06:07.000]',-0.025
'[11:06:07.008]',-0.045
'[11:06:07.016]',-0.015
'[11:06:07.023]',-0.045
'[11:06:07.031]',-0.025
'[11:06:07.039]',-0.035
'[11:06:07.047]',-0.055
'[11:06:07.055]',-0.025
'[11:06:07.063]',-0.025
'[11:06:07.070]',-0.055
'[11:06:07.078]',-0.045
'[11:06:07.086]',-0.035
'[11:06:07.094]',-0.025
'[11:06:07.102]',-0.045
'[11:06:07.109]',-0.015
'[11:06:07.117]',-0.045
'[11:06:07.125]',-0.055
'[11:06:07.133]',-0.045
'[11:06:07.141]',-0.035
'[11:06:07.148]',-0.025
'[11:06:07.156]',-0.045
'[11:06:07.164]',-0.055
'[11:06:07.172]',-0.045
'[11:06:07.180]',-0.035
'[11:06:07.188]',-0.025
'[11:06:07.195]',-0.055
'[11:06:07.203]',-0.045
'[11:06:07.211]',-0.035
'[11:06:07.219]',-0.005
'[11:06:07.227]',0.035
'[11:06:07.234]',0.015
'[11:06:07.242]',0.035
'[11:06:07.250]',0.055
'[11:06:07.258]',0.025
'[11:06:07.266]',0.005
'[11:06:07.273]',0.025
'[11:06:07.281]',0.005
'[11:06:07.289]',0.005
'[11:06:07.297]',-0.015
'[11:06:07.305]',-0.035
'[11:06:07.313]',-0.045
'[11:06:07.320]',-0.065
'[11:06:07.328]',-0.085
'[11:06:07.336]',-0.075
'[11:06:07.344]',-0.085
'[11:06:07.352]',-0.035
'[11:06:07.359]',-0.035
'[11:06:07.367]',-0.055
'[11:06:07.375]',-0.025
'[11:06:07.383]',-0.015
'[11:06:07.391]',-0.015
'[11:06:07.398]',0.065
'[11:06:07.406]',0.135
'[11:06:07.414]',0.665
'[11:06:07.422]',1325
'[11:06:07.430]',1105
'[11:06:07.438]',0.235
'[11:06:07.445]',-0.445
'[11:06:07.453]',-0.285
'[11:06:07.461]',-0.055
'[11:06:07.469]',-0.055
'[11:06:07.477]',-0.065
'[11:06:07.484]',-0.065
'[11:06:07.492]',-0.105
'[11:06:07.500]',-0.075
'[11:06:07.508]',-0.085
'[11:06:07.516]',-0.075
'[11:06:07.523]',-0.055
'[11:06:07.531]',-0.095
'[11:06:07.539]',-0.075
'[11:06:07.547]',-0.075
'[11:06:07.555]',-0.075
'[11:06:07.563]',-0.085
'[11:06:07.570]',-0.055
'[11:06:07.578]',-0.085
'[11:06:07.586]',-0.065
'[11:06:07.594]',-0.095
'[11:06:07.602]',-0.085
'[11:06:07.609]',-0.115
'[11:06:07.617]',-0.105
'[11:06:07.625]',-0.105
'[11:06:07.633]',-0.085
'[11:06:07.641]',-0.105
'[11:06:07.648]',-0.115
'[11:06:07.656]',-0.115
'[11:06:07.664]',-0.135
'[11:06:07.672]',-0.105
'[11:06:07.680]',-0.115
'[11:06:07.688]',-0.105
'[11:06:07.695]',-0.075
'[11:06:07.703]',-0.085
'[11:06:07.711]',-0.055
'[11:06:07.719]',-0.035
'[11:06:07.727]',-0.015
'[11:06:07.734]',-0.025
'[11:06:07.742]',-0.035
'[11:06:07.750]',-0.055
'[11:06:07.758]',-0.035
'[11:06:07.766]',-0.065
'[11:06:07.773]',-0.025
'[11:06:07.781]',-0.075
'[11:06:07.789]',-0.055
'[11:06:07.797]',-0.045
'[11:06:07.805]',-0.055
'[11:06:07.813]',-0.065
'[11:06:07.820]',-0.055
'[11:06:07.828]',-0.065
'[11:06:07.836]',-0.045
'[11:06:07.844]',-0.055
'[11:06:07.852]',-0.055
'[11:06:07.859]',-0.035
'[11:06:07.867]',-0.025
'[11:06:07.875]',-0.025
'[11:06:07.883]',-0.035
'[11:06:07.891]',-0.025
'[11:06:07.898]',-0.025
'[11:06:07.906]',-0.025
'[11:06:07.914]',-0.025
'[11:06:07.922]',-0.015
'[11:06:07.930]',-0.035
'[11:06:07.938]',-0.035
'[11:06:07.945]',-0.025
'[11:06:07.953]',-0.035
'[11:06:07.961]',-0.025
'[11:06:07.969]',-0.015
'[11:06:07.977]',-0.045
'[11:06:07.984]',-0.035
'[11:06:07.992]',-0.005
'[11:06:08.000]',-0.045
'[11:06:08.008]',-0.045
'[11:06:08.016]',-0.055
'[11:06:08.023]',-0.035
'[11:06:08.031]',-0.045
'[11:06:08.039]',-0.055
'[11:06:08.047]',-0.025
'[11:06:08.055]',-0.005
'[11:06:08.063]',-0.035
'[11:06:08.070]',-0.045
'[11:06:08.078]',-0.045
'[11:06:08.086]',-0.045
'[11:06:08.094]',-0.015
'[11:06:08.102]',-0.045
'[11:06:08.109]',0.025
'[11:06:08.117]',0.035
'[11:06:08.125]',0.015
'[11:06:08.133]',0.015
'[11:06:08.141]',0.055
'[11:06:08.148]',0.045
'[11:06:08.156]',0.035
'[11:06:08.164]',0.015
'[11:06:08.172]',0.015
'[11:06:08.180]',0.045
'[11:06:08.188]',-0.035
'[11:06:08.195]',-0.055
'[11:06:08.203]',-0.065
'[11:06:08.211]',-0.075
'[11:06:08.219]',-0.075
'[11:06:08.227]',-0.095
'[11:06:08.234]',-0.055
'[11:06:08.242]',-0.055
'[11:06:08.250]',-0.055
'[11:06:08.258]',-0.065
'[11:06:08.266]',-0.045
'[11:06:08.273]',-0.035
'[11:06:08.281]',-0.035
'[11:06:08.289]',0.005
'[11:06:08.297]',0.085
'[11:06:08.305]',0.445
'[11:06:08.313]',1135
'[11:06:08.320]',1305
'[11:06:08.328]',0.465
'[11:06:08.336]',-0.425
'[11:06:08.344]',-0.365
'[11:06:08.352]',-0.135
'[11:06:08.359]',-0.065
'[11:06:08.367]',-0.085
'[11:06:08.375]',-0.095
'[11:06:08.383]',-0.095
'[11:06:08.391]',-0.115
'[11:06:08.398]',-0.115
'[11:06:08.406]',-0.095
'[11:06:08.414]',-0.095
'[11:06:08.422]',-0.075
'[11:06:08.430]',-0.105
'[11:06:08.438]',-0.085
'[11:06:08.445]',-0.095
'[11:06:08.453]',-0.105
'[11:06:08.461]',-0.085
'[11:06:08.469]',-0.085
'[11:06:08.477]',-0.105
'[11:06:08.484]',-0.095
'[11:06:08.492]',-0.085
'[11:06:08.500]',-0.105
'[11:06:08.508]',-0.105
'[11:06:08.516]',-0.115
'[11:06:08.523]',-0.105
'[11:06:08.531]',-0.135
'[11:06:08.539]',-0.095
'[11:06:08.547]',-0.115
'[11:06:08.555]',-0.125
'[11:06:08.563]',-0.145
'[11:06:08.570]',-0.135
'[11:06:08.578]',-0.125
'[11:06:08.586]',-0.095
'[11:06:08.594]',-0.065
'[11:06:08.602]',-0.055
'[11:06:08.609]',-0.005
'[11:06:08.617]',-0.025
'[11:06:08.625]',-0.035
'[11:06:08.633]',-0.035
'[11:06:08.641]',-0.065
'[11:06:08.648]',-0.065
'[11:06:08.656]',-0.075
'[11:06:08.664]',-0.055
'[11:06:08.672]',-0.045
'[11:06:08.680]',-0.085
'[11:06:08.688]',-0.065
'[11:06:08.695]',-0.075
'[11:06:08.703]',-0.055
'[11:06:08.711]',-0.085
'[11:06:08.719]',-0.085
'[11:06:08.727]',-0.065
'[11:06:08.734]',-0.065
'[11:06:08.742]',-0.035
'[11:06:08.750]',-0.065
'[11:06:08.758]',-0.065
'[11:06:08.766]',-0.045
'[11:06:08.773]',-0.045
'[11:06:08.781]',-0.035
'[11:06:08.789]',-0.035
'[11:06:08.797]',-0.035
'[11:06:08.805]',-0.025
'[11:06:08.813]',-0.025
'[11:06:08.820]',-0.055
'[11:06:08.828]',-0.035
'[11:06:08.836]',-0.055
'[11:06:08.844]',-0.035
'[11:06:08.852]',-0.035
'[11:06:08.859]',-0.035
'[11:06:08.867]',-0.035
'[11:06:08.875]',-0.045
'[11:06:08.883]',-0.055
'[11:06:08.891]',-0.055
'[11:06:08.898]',-0.035
'[11:06:08.906]',-0.035
'[11:06:08.914]',-0.055
'[11:06:08.922]',-0.065
'[11:06:08.930]',-0.035
'[11:06:08.938]',-0.035
'[11:06:08.945]',-0.055
'[11:06:08.953]',-0.045
'[11:06:08.961]',-0.025
'[11:06:08.969]',-0.045
'[11:06:08.977]',-0.035
'[11:06:08.984]',-0.035
'[11:06:08.992]',0.005
'[11:06:09.000]',-0.015
'[11:06:09.008]',0.015
'[11:06:09.016]',0.025
'[11:06:09.023]',0.055
'[11:06:09.031]',0.045
'[11:06:09.039]',0.035
'[11:06:09.047]',0.025
'[11:06:09.055]',0.005
'[11:06:09.063]',-0.005
'[11:06:09.070]',-0.015
'[11:06:09.078]',-0.065
'[11:06:09.086]',-0.085
'[11:06:09.094]',-0.095
'[11:06:09.102]',-0.065
'[11:06:09.109]',-0.075
'[11:06:09.117]',-0.085
'[11:06:09.125]',-0.065
'[11:06:09.133]',-0.065
'[11:06:09.141]',-0.065
'[11:06:09.148]',-0.035
'[11:06:09.156]',-0.025
'[11:06:09.164]',-0.045
'[11:06:09.172]',0.025
'[11:06:09.180]',0.105
'[11:06:09.188]',0.575
'[11:06:09.195]',1285
'[11:06:09.203]',1245
'[11:06:09.211]',0.425
'[11:06:09.219]',-0.485
'[11:06:09.227]',-0.345
'[11:06:09.234]',-0.105
'[11:06:09.242]',-0.085
'[11:06:09.250]',-0.095
'[11:06:09.258]',-0.105
'[11:06:09.266]',-0.115
'[11:06:09.273]',-0.085
'[11:06:09.281]',-0.125
'[11:06:09.289]',-0.095
'[11:06:09.297]',-0.105
'[11:06:09.305]',-0.085
'[11:06:09.313]',-0.115
'[11:06:09.320]',-0.105
'[11:06:09.328]',-0.105
'[11:06:09.336]',-0.105
'[11:06:09.344]',-0.115
'[11:06:09.352]',-0.115
'[11:06:09.359]',-0.095
'[11:06:09.367]',-0.105
'[11:06:09.375]',-0.105
'[11:06:09.383]',-0.135
'[11:06:09.391]',-0.125
'[11:06:09.398]',-0.105
'[11:06:09.406]',-0.135
'[11:06:09.414]',-0.155
'[11:06:09.422]',-0.105
'[11:06:09.430]',-0.165
'[11:06:09.438]',-0.155
'[11:06:09.445]',-0.135
'[11:06:09.453]',-0.155
'[11:06:09.461]',-0.155
'[11:06:09.469]',-0.135
'[11:06:09.477]',-0.115
'[11:06:09.484]',-0.065
'[11:06:09.492]',-0.035
'[11:06:09.500]',-0.055
'[11:06:09.508]',-0.055
'[11:06:09.516]',-0.035
'[11:06:09.523]',-0.055
'[11:06:09.531]',-0.065
'[11:06:09.539]',-0.065
'[11:06:09.547]',-0.085
'[11:06:09.555]',-0.055
'[11:06:09.563]',-0.075
'[11:06:09.570]',-0.095
'[11:06:09.578]',-0.075
'[11:06:09.586]',-0.095
'[11:06:09.594]',-0.035
'[11:06:09.602]',-0.075
'[11:06:09.609]',-0.065
'[11:06:09.617]',-0.055
'[11:06:09.625]',-0.055
'[11:06:09.633]',-0.055
'[11:06:09.641]',-0.035
'[11:06:09.648]',-0.045
'[11:06:09.656]',-0.045
'[11:06:09.664]',-0.025
'[11:06:09.672]',-0.055
'[11:06:09.680]',-0.035
'[11:06:09.688]',-0.025
'[11:06:09.695]',-0.035
'[11:06:09.703]',-0.035
'[11:06:09.711]',-0.035
'[11:06:09.719]',-0.025
'[11:06:09.727]',-0.045
'[11:06:09.734]',-0.065
'[11:06:09.742]',-0.055
'[11:06:09.750]',-0.035
'[11:06:09.758]',-0.065
'[11:06:09.766]',-0.025
'[11:06:09.773]',-0.065
'[11:06:09.781]',-0.045
'[11:06:09.789]',-0.065
'[11:06:09.797]',-0.055
'[11:06:09.805]',-0.055
'[11:06:09.813]',-0.035
'[11:06:09.820]',-0.065
'[11:06:09.828]',-0.045
'[11:06:09.836]',-0.075
'[11:06:09.844]',-0.045
'[11:06:09.852]',-0.075
'[11:06:09.859]',-0.045
'[11:06:09.867]',-0.035
'[11:06:09.875]',-0.045
'[11:06:09.883]',-0.065
'[11:06:09.891]',-0.015
'[11:06:09.898]',0.005
'[11:06:09.906]',-0.005
'[11:06:09.914]',0.015
'[11:06:09.922]',0.015
'[11:06:09.930]',0.035
'[11:06:09.938]',0.045
'[11:06:09.945]',0.015
'[11:06:09.953]',0.005
'[11:06:09.961]',-0.005
'[11:06:09.969]',-0.035
'[11:06:09.977]',-0.085
'[11:06:09.984]',-0.085
'[11:06:09.992]',-0.095
'[11:06:10.000]',-0.105
'[11:06:10.008]',-0.105
'[11:06:10.016]',-0.065
'[11:06:10.023]',-0.095
'[11:06:10.031]',-0.105
'[11:06:10.039]',-0.085
'[11:06:10.047]',-0.075
'[11:06:10.055]',-0.075
'[11:06:10.063]',-0.035
'[11:06:10.070]',-0.065
'[11:06:10.078]',-0.005
'[11:06:10.086]',0.095
'[11:06:10.094]',0.535
'[11:06:10.102]',1185
'[11:06:10.109]',1185
'[11:06:10.117]',0.295
'[11:06:10.125]',-0.475
'[11:06:10.133]',-0.325
'[11:06:10.141]',-0.115
'[11:06:10.148]',-0.095
'[11:06:10.156]',-0.115
'[11:06:10.164]',-0.125
'[11:06:10.172]',-0.115
'[11:06:10.180]',-0.135
'[11:06:10.188]',-0.115
'[11:06:10.195]',-0.135
'[11:06:10.203]',-0.125
'[11:06:10.211]',-0.115
'[11:06:10.219]',-0.135
'[11:06:10.227]',-0.135
'[11:06:10.234]',-0.145
'[11:06:10.242]',-0.115
'[11:06:10.250]',-0.125
'[11:06:10.258]',-0.135
'[11:06:10.266]',-0.135
'[11:06:10.273]',-0.145
'[11:06:10.281]',-0.125
'[11:06:10.289]',-0.155
'[11:06:10.297]',-0.155
'[11:06:10.305]',-0.145
'[11:06:10.313]',-0.155
'[11:06:10.320]',-0.165
'[11:06:10.328]',-0.145
'[11:06:10.336]',-0.175
'[11:06:10.344]',-0.175
'[11:06:10.352]',-0.175
'[11:06:10.359]',-0.165
'[11:06:10.367]',-0.145
'[11:06:10.375]',-0.125
'[11:06:10.383]',-0.095
'[11:06:10.391]',-0.075
'[11:06:10.398]',-0.095
'[11:06:10.406]',-0.065
'[11:06:10.414]',-0.065
'[11:06:10.422]',-0.075
'[11:06:10.430]',-0.105
'[11:06:10.438]',-0.095
'[11:06:10.445]',-0.115
'[11:06:10.453]',-0.095
'[11:06:10.461]',-0.105
'[11:06:10.469]',-0.105
'[11:06:10.477]',-0.095
'[11:06:10.484]',-0.095
'[11:06:10.492]',-0.105
'[11:06:10.500]',-0.115
'[11:06:10.508]',-0.105
'[11:06:10.516]',-0.115
'[11:06:10.523]',-0.085
'[11:06:10.531]',-0.095
'[11:06:10.539]',-0.085
'[11:06:10.547]',-0.105
'[11:06:10.555]',-0.085
'[11:06:10.563]',-0.085
'[11:06:10.570]',-0.095
'[11:06:10.578]',-0.085
'[11:06:10.586]',-0.085
'[11:06:10.594]',-0.085
'[11:06:10.602]',-0.075
'[11:06:10.609]',-0.075
'[11:06:10.617]',-0.085
'[11:06:10.625]',-0.065
'[11:06:10.633]',-0.085
'[11:06:10.641]',-0.085
'[11:06:10.648]',-0.075
'[11:06:10.656]',-0.095
'[11:06:10.664]',-0.105
'[11:06:10.672]',-0.095
'[11:06:10.680]',-0.075
'[11:06:10.688]',-0.075
'[11:06:10.695]',-0.095
'[11:06:10.703]',-0.095
'[11:06:10.711]',-0.075
'[11:06:10.719]',-0.075
'[11:06:10.727]',-0.085
'[11:06:10.734]',-0.105
'[11:06:10.742]',-0.085
'[11:06:10.750]',-0.095
'[11:06:10.758]',-0.085
'[11:06:10.766]',-0.105
'[11:06:10.773]',-0.105
'[11:06:10.781]',-0.105
'[11:06:10.789]',-0.095
'[11:06:10.797]',-0.095
'[11:06:10.805]',-0.085
'[11:06:10.813]',-0.085
'[11:06:10.820]',-0.085
'[11:06:10.828]',-0.105
'[11:06:10.836]',-0.065
'[11:06:10.844]',-0.065
'[11:06:10.852]',-0.045
'[11:06:10.859]',-0.025
'[11:06:10.867]',-0.025
'[11:06:10.875]',-0.015
'[11:06:10.883]',-0.035
'[11:06:10.891]',-0.015
'[11:06:10.898]',-0.025
'[11:06:10.906]',-0.035
'[11:06:10.914]',-0.065
'[11:06:10.922]',-0.085
'[11:06:10.930]',-0.095
'[11:06:10.938]',-0.115
'[11:06:10.945]',-0.125
'[11:06:10.953]',-0.135
'[11:06:10.961]',-0.135
'[11:06:10.969]',-0.115
'[11:06:10.977]',-0.105
'[11:06:10.984]',-0.105
'[11:06:10.992]',-0.115
'[11:06:11.000]',-0.125
'[11:06:11.008]',-0.105
'[11:06:11.016]',-0.065
'[11:06:11.023]',-0.055
'[11:06:11.031]',-0.025
'[11:06:11.039]',0.235
'[11:06:11.047]',0.895
'[11:06:11.055]',1385
'[11:06:11.063]',0.875
'[11:06:11.070]',-0.105
'[11:06:11.078]',-0.565
'[11:06:11.086]',-0.325
'[11:06:11.094]',-0.115
'[11:06:11.102]',-0.145
'[11:06:11.109]',-0.145
'[11:06:11.117]',-0.135
'[11:06:11.125]',-0.145
'[11:06:11.133]',-0.155
'[11:06:11.141]',-0.145
'[11:06:11.148]',-0.155
'[11:06:11.156]',-0.145
'[11:06:11.164]',-0.155
'[11:06:11.172]',-0.155
'[11:06:11.180]',-0.155
'[11:06:11.188]',-0.155
'[11:06:11.195]',-0.155
'[11:06:11.203]',-0.155
'[11:06:11.211]',-0.155
'[11:06:11.219]',-0.155
'[11:06:11.227]',-0.155
'[11:06:11.234]',-0.165
'[11:06:11.242]',-0.135
'[11:06:11.250]',-0.175
'[11:06:11.258]',-0.165
'[11:06:11.266]',-0.155
'[11:06:11.273]',-0.175
'[11:06:11.281]',-0.175
'[11:06:11.289]',-0.175
'[11:06:11.297]',-0.185
'[11:06:11.305]',-0.175
'[11:06:11.313]',-0.185
'[11:06:11.320]',-0.185
'[11:06:11.328]',-0.125
'[11:06:11.336]',-0.125
'[11:06:11.344]',-0.075
'[11:06:11.352]',-0.085
'[11:06:11.359]',-0.075
'[11:06:11.367]',-0.065
'[11:06:11.375]',-0.085
'[11:06:11.383]',-0.085
'[11:06:11.391]',-0.095
'[11:06:11.398]',-0.095
'[11:06:11.406]',-0.085
'[11:06:11.414]',-0.105
'[11:06:11.422]',-0.105
'[11:06:11.430]',-0.095
'[11:06:11.438]',-0.095
'[11:06:11.445]',-0.095
'[11:06:11.453]',-0.095
'[11:06:11.461]',-0.105
'[11:06:11.469]',-0.095
'[11:06:11.477]',-0.075
'[11:06:11.484]',-0.085
'[11:06:11.492]',-0.065
'[11:06:11.500]',-0.085
'[11:06:11.508]',-0.065
'[11:06:11.516]',-0.075
'[11:06:11.523]',-0.065
'[11:06:11.531]',-0.075
'[11:06:11.539]',-0.055
'[11:06:11.547]',-0.075
'[11:06:11.555]',-0.035
'[11:06:11.563]',-0.075
'[11:06:11.570]',-0.065
'[11:06:11.578]',-0.085
'[11:06:11.586]',-0.065
'[11:06:11.594]',-0.065
'[11:06:11.602]',-0.085
'[11:06:11.609]',-0.085
'[11:06:11.617]',-0.075
'[11:06:11.625]',-0.045
'[11:06:11.633]',-0.095
'[11:06:11.641]',-0.095
'[11:06:11.648]',-0.065
'[11:06:11.656]',-0.075
'[11:06:11.664]',-0.085
'[11:06:11.672]',-0.065
'[11:06:11.680]',-0.075
'[11:06:11.688]',-0.075
'[11:06:11.695]',-0.075
'[11:06:11.703]',-0.075
'[11:06:11.711]',-0.055
'[11:06:11.719]',-0.085
'[11:06:11.727]',-0.085
'[11:06:11.734]',-0.055
'[11:06:11.742]',-0.065
'[11:06:11.750]',-0.095
'[11:06:11.758]',-0.085
'[11:06:11.766]',-0.045
'[11:06:11.773]',-0.075
'[11:06:11.781]',-0.085
'[11:06:11.789]',-0.075
'[11:06:11.797]',-0.075
'[11:06:11.805]',-0.045
'[11:06:11.813]',-0.065
'[11:06:11.820]',-0.045
'[11:06:11.828]',-0.015
'[11:06:11.836]',-0.005
'[11:06:11.844]',0.015
'[11:06:11.852]',-0.015
'[11:06:11.859]',0.005
'[11:06:11.867]',0.015
'[11:06:11.875]',0.025
'[11:06:11.883]',-0.015
'[11:06:11.891]',-0.035
'[11:06:11.898]',-0.035
'[11:06:11.906]',-0.025
'[11:06:11.914]',-0.085
'[11:06:11.922]',-0.085
'[11:06:11.930]',-0.115
'[11:06:11.938]',-0.065
'[11:06:11.945]',-0.095
'[11:06:11.953]',-0.085
'[11:06:11.961]',-0.095
'[11:06:11.969]',-0.085
'[11:06:11.977]',-0.055
'[11:06:11.984]',-0.055
'[11:06:11.992]',-0.045
'[11:06:12.000]',-0.025
'[11:06:12.008]',-0.005
'[11:06:12.016]',0.095
'[11:06:12.023]',0.485
'[11:06:12.031]',1175
'[11:06:12.039]',1285
'[11:06:12.047]',0.475
'[11:06:12.055]',-0.415
'[11:06:12.063]',-0.365
'[11:06:12.070]',-0.155
'[11:06:12.078]',-0.075
'[11:06:12.086]',-0.105
'[11:06:12.094]',-0.095
'[11:06:12.102]',-0.115
'[11:06:12.109]',-0.095
'[11:06:12.117]',-0.125
'[11:06:12.125]',-0.115
'[11:06:12.133]',-0.155
'[11:06:12.141]',-0.065
'[11:06:12.148]',-0.085
'[11:06:12.156]',-0.105
'[11:06:12.164]',-0.105
'[11:06:12.172]',-0.085
'[11:06:12.180]',-0.085
'[11:06:12.188]',-0.095
'[11:06:12.195]',-0.075
'[11:06:12.203]',-0.105
'[11:06:12.211]',-0.115
'[11:06:12.219]',-0.105
'[11:06:12.227]',-0.115
'[11:06:12.234]',-0.115
'[11:06:12.242]',-0.115
'[11:06:12.250]',-0.135
'[11:06:12.258]',-0.095
'[11:06:12.266]',-0.125
'[11:06:12.273]',-0.125
'[11:06:12.281]',-0.105
'[11:06:12.289]',-0.105
'[11:06:12.297]',-0.105
'[11:06:12.305]',-0.085
'[11:06:12.313]',-0.075
'[11:06:12.320]',-0.035
'[11:06:12.328]',-0.035
'[11:06:12.336]',-0.075
'[11:06:12.344]',-0.035
'[11:06:12.352]',-0.045
'[11:06:12.359]',-0.065
'[11:06:12.367]',-0.045
'[11:06:12.375]',-0.065
'[11:06:12.383]',-0.065
'[11:06:12.391]',-0.075
'[11:06:12.398]',-0.065
'[11:06:12.406]',-0.055
'[11:06:12.414]',-0.095
'[11:06:12.422]',-0.065
'[11:06:12.430]',-0.085
'[11:06:12.438]',-0.075
'[11:06:12.445]',-0.075
'[11:06:12.453]',-0.075
'[11:06:12.461]',-0.055
'[11:06:12.469]',-0.065
'[11:06:12.477]',-0.055
'[11:06:12.484]',-0.045
'[11:06:12.492]',-0.045
'[11:06:12.500]',-0.055
'[11:06:12.508]',-0.055
'[11:06:12.516]',-0.055
'[11:06:12.523]',-0.045
'[11:06:12.531]',-0.055
'[11:06:12.539]',-0.075
'[11:06:12.547]',-0.055
'[11:06:12.555]',-0.045
'[11:06:12.563]',-0.045
'[11:06:12.570]',-0.075
'[11:06:12.578]',-0.045
'[11:06:12.586]',-0.055
'[11:06:12.594]',-0.075
'[11:06:12.602]',-0.075
'[11:06:12.609]',-0.055
'[11:06:12.617]',-0.065
'[11:06:12.625]',-0.075
'[11:06:12.633]',-0.055
'[11:06:12.641]',-0.055
'[11:06:12.648]',-0.075
'[11:06:12.656]',-0.065
'[11:06:12.664]',-0.075
'[11:06:12.672]',-0.065
'[11:06:12.680]',-0.055
'[11:06:12.688]',-0.065
'[11:06:12.695]',-0.085
'[11:06:12.703]',-0.065
'[11:06:12.711]',-0.065
'[11:06:12.719]',-0.065
'[11:06:12.727]',-0.075
'[11:06:12.734]',-0.085
'[11:06:12.742]',-0.055
'[11:06:12.750]',-0.055
'[11:06:12.758]',-0.075
'[11:06:12.766]',-0.075
'[11:06:12.773]',-0.045
'[11:06:12.781]',-0.065
'[11:06:12.789]',-0.065
'[11:06:12.797]',-0.065
'[11:06:12.805]',-0.075
'[11:06:12.813]',-0.055
'[11:06:12.820]',-0.065
'[11:06:12.828]',-0.025
'[11:06:12.836]',0.005
'[11:06:12.844]',-0.005
'[11:06:12.852]',-0.005
'[11:06:12.859]',0.005
'[11:06:12.867]',0.025
'[11:06:12.875]',0.035
'[11:06:12.883]',0.035
'[11:06:12.891]',-0.025
'[11:06:12.898]',-0.035
'[11:06:12.906]',-0.055
'[11:06:12.914]',-0.105
'[11:06:12.922]',-0.095
'[11:06:12.930]',-0.095
'[11:06:12.938]',-0.105
'[11:06:12.945]',-0.105
'[11:06:12.953]',-0.095
'[11:06:12.961]',-0.075
'[11:06:12.969]',-0.105
'[11:06:12.977]',-0.105
'[11:06:12.984]',-0.095
'[11:06:12.992]',-0.055
'[11:06:13.000]',-0.075
'[11:06:13.008]',-0.025
'[11:06:13.016]',0.075
'[11:06:13.023]',0.415
'[11:06:13.031]',1135
'[11:06:13.039]',1325
'[11:06:13.047]',0.425
'[11:06:13.055]',-0.405
'[11:06:13.063]',-0.425
'[11:06:13.070]',-0.145
'[11:06:13.078]',-0.055
'[11:06:13.086]',-0.105
'[11:06:13.094]',-0.105
'[11:06:13.102]',-0.105
'[11:06:13.109]',-0.135
'[11:06:13.117]',-0.125
'[11:06:13.125]',-0.125
'[11:06:13.133]',-0.115
'[11:06:13.141]',-0.105
'[11:06:13.148]',-0.125
'[11:06:13.156]',-0.115
'[11:06:13.164]',-0.135
'[11:06:13.172]',-0.105
'[11:06:13.180]',-0.095
'[11:06:13.188]',-0.125
'[11:06:13.195]',-0.115
'[11:06:13.203]',-0.135
'[11:06:13.211]',-0.145
'[11:06:13.219]',-0.125
'[11:06:13.227]',-0.135
'[11:06:13.234]',-0.135
'[11:06:13.242]',-0.125
'[11:06:13.250]',-0.135
'[11:06:13.258]',-0.115
'[11:06:13.266]',-0.165
'[11:06:13.273]',-0.145
'[11:06:13.281]',-0.145
'[11:06:13.289]',-0.155
'[11:06:13.297]',-0.155
'[11:06:13.305]',-0.105
'[11:06:13.313]',-0.095
'[11:06:13.320]',-0.055
'[11:06:13.328]',-0.075
'[11:06:13.336]',-0.055
'[11:06:13.344]',-0.015
'[11:06:13.352]',-0.065
'[11:06:13.359]',-0.055
'[11:06:13.367]',-0.045
'[11:06:13.375]',-0.055
'[11:06:13.383]',-0.045
'[11:06:13.391]',-0.085
'[11:06:13.398]',-0.105
'[11:06:13.406]',-0.095
'[11:06:13.414]',-0.045
'[11:06:13.422]',-0.075
'[11:06:13.430]',-0.085
'[11:06:13.438]',-0.085
'[11:06:13.445]',-0.045
'[11:06:13.453]',-0.085
'[11:06:13.461]',-0.055
'[11:06:13.469]',-0.065
'[11:06:13.477]',-0.045
'[11:06:13.484]',-0.055
'[11:06:13.492]',-0.035
'[11:06:13.500]',-0.065
'[11:06:13.508]',-0.025
'[11:06:13.516]',-0.055
'[11:06:13.523]',-0.035
'[11:06:13.531]',-0.065
'[11:06:13.539]',-0.035
'[11:06:13.547]',-0.055
'[11:06:13.555]',-0.055
'[11:06:13.563]',-0.055
'[11:06:13.570]',-0.035
'[11:06:13.578]',-0.045
'[11:06:13.586]',-0.065
'[11:06:13.594]',-0.045
'[11:06:13.602]',-0.055
'[11:06:13.609]',-0.025
'[11:06:13.617]',-0.045
'[11:06:13.625]',-0.075
'[11:06:13.633]',-0.055
'[11:06:13.641]',-0.025
'[11:06:13.648]',-0.065
'[11:06:13.656]',-0.075
'[11:06:13.664]',-0.065
'[11:06:13.672]',-0.075
'[11:06:13.680]',-0.045
'[11:06:13.688]',-0.035
'[11:06:13.695]',-0.055
'[11:06:13.703]',-0.045
'[11:06:13.711]',-0.055
'[11:06:13.719]',-0.045
'[11:06:13.727]',-0.035
'[11:06:13.734]',-0.075
'[11:06:13.742]',-0.025
'[11:06:13.750]',-0.045
'[11:06:13.758]',-0.055
'[11:06:13.766]',-0.035
'[11:06:13.773]',-0.015
'[11:06:13.781]',0.015
'[11:06:13.789]',0.015
'[11:06:13.797]',0.035
'[11:06:13.805]',0.045
'[11:06:13.813]',0.025
'[11:06:13.820]',0.035
'[11:06:13.828]',0.065
'[11:06:13.836]',-0.005
'[11:06:13.844]',-0.005
'[11:06:13.852]',-0.055
'[11:06:13.859]',-0.065
'[11:06:13.867]',-0.065
'[11:06:13.875]',-0.085
'[11:06:13.883]',-0.095
'[11:06:13.891]',-0.085
'[11:06:13.898]',-0.075
'[11:06:13.906]',-0.065
'[11:06:13.914]',-0.085
'[11:06:13.922]',-0.065
'[11:06:13.930]',-0.025
'[11:06:13.938]',-0.025
'[11:06:13.945]',-0.035
'[11:06:13.953]',0.015
'[11:06:13.961]',0.115
'[11:06:13.969]',0.565
'[11:06:13.977]',1245
'[11:06:13.984]',1175
'[11:06:13.992]',0.255
'[11:06:14.000]',-0.505
'[11:06:14.008]',-0.315
'[11:06:14.016]',-0.115
'[11:06:14.023]',-0.085
'[11:06:14.031]',-0.105
'[11:06:14.039]',-0.135
'[11:06:14.047]',-0.125
'[11:06:14.055]',-0.095
'[11:06:14.063]',-0.135
'[11:06:14.070]',-0.135
'[11:06:14.078]',-0.145
'[11:06:14.086]',-0.125
'[11:06:14.094]',-0.105
'[11:06:14.102]',-0.135
'[11:06:14.109]',-0.125
'[11:06:14.117]',-0.135
'[11:06:14.125]',-0.125
'[11:06:14.133]',-0.145
'[11:06:14.141]',-0.135
'[11:06:14.148]',-0.115
'[11:06:14.156]',-0.115
'[11:06:14.164]',-0.145
'[11:06:14.172]',-0.155
'[11:06:14.180]',-0.135
'[11:06:14.188]',-0.145
'[11:06:14.195]',-0.145
'[11:06:14.203]',-0.145
'[11:06:14.211]',-0.155
'[11:06:14.219]',-0.155
'[11:06:14.227]',-0.165
'[11:06:14.234]',-0.145
'[11:06:14.242]',-0.145
'[11:06:14.250]',-0.145
'[11:06:14.258]',-0.125
'[11:06:14.266]',-0.085
'[11:06:14.273]',-0.055
'[11:06:14.281]',-0.065
'[11:06:14.289]',-0.095
'[11:06:14.297]',-0.075
'[11:06:14.305]',-0.055
'[11:06:14.313]',-0.085
'[11:06:14.320]',-0.085
'[11:06:14.328]',-0.085
'[11:06:14.336]',-0.105
'[11:06:14.344]',-0.085
'[11:06:14.352]',-0.105
'[11:06:14.359]',-0.085
'[11:06:14.367]',-0.105
'[11:06:14.375]',-0.095
'[11:06:14.383]',-0.095
'[11:06:14.391]',-0.065
'[11:06:14.398]',-0.065
'[11:06:14.406]',-0.095
'[11:06:14.414]',-0.085
'[11:06:14.422]',-0.095
'[11:06:14.430]',-0.055
'[11:06:14.438]',-0.055
'[11:06:14.445]',-0.055
'[11:06:14.453]',-0.055
'[11:06:14.461]',-0.065
'[11:06:14.469]',-0.045
'[11:06:14.477]',-0.055
'[11:06:14.484]',-0.065
'[11:06:14.492]',-0.045
'[11:06:14.500]',-0.055
'[11:06:14.508]',-0.065
'[11:06:14.516]',-0.045
'[11:06:14.523]',-0.065
'[11:06:14.531]',-0.055
'[11:06:14.539]',-0.075
'[11:06:14.547]',-0.055
'[11:06:14.555]',-0.055
'[11:06:14.563]',-0.065
'[11:06:14.570]',-0.045
'[11:06:14.578]',-0.055
'[11:06:14.586]',-0.045
'[11:06:14.594]',-0.045
'[11:06:14.602]',-0.045
'[11:06:14.609]',-0.055
'[11:06:14.617]',-0.045
'[11:06:14.625]',-0.055
'[11:06:14.633]',-0.045
'[11:06:14.641]',-0.045
'[11:06:14.648]',-0.075
'[11:06:14.656]',-0.035
'[11:06:14.664]',-0.015
'[11:06:14.672]',0.005
'[11:06:14.680]',-0.005
'[11:06:14.688]',0.015
'[11:06:14.695]',0.025
'[11:06:14.703]',0.045
'[11:06:14.711]',0.045
'[11:06:14.719]',0.035
'[11:06:14.727]',-0.005
'[11:06:14.734]',-0.005
'[11:06:14.742]',0.005
'[11:06:14.750]',-0.035
'[11:06:14.758]',-0.045
'[11:06:14.766]',-0.075
'[11:06:14.773]',-0.085
'[11:06:14.781]',-0.085
'[11:06:14.789]',-0.075
'[11:06:14.797]',-0.065
'[11:06:14.805]',-0.055
'[11:06:14.813]',-0.055
'[11:06:14.820]',-0.055
'[11:06:14.828]',-0.025
'[11:06:14.836]',-0.015
'[11:06:14.844]',0.015
'[11:06:14.852]',0.055
'[11:06:14.859]',0.425
'[11:06:14.867]',1145
'[11:06:14.875]',1465
'[11:06:14.883]',0.665
'[11:06:14.891]',-0.335
'[11:06:14.898]',-0.435
'[11:06:14.906]',-0.155
'[11:06:14.914]',-0.095
'[11:06:14.922]',-0.085
'[11:06:14.930]',-0.095
'[11:06:14.938]',-0.085
'[11:06:14.945]',-0.125
'[11:06:14.953]',-0.115
'[11:06:14.961]',-0.115
'[11:06:14.969]',-0.115
'[11:06:14.977]',-0.115
'[11:06:14.984]',-0.115
'[11:06:14.992]',-0.085
'[11:06:15.000]',-0.105
'[11:06:15.008]',-0.105
'[11:06:15.016]',-0.095
'[11:06:15.023]',-0.125
'[11:06:15.031]',-0.105
'[11:06:15.039]',-0.115
'[11:06:15.047]',-0.105
'[11:06:15.055]',-0.095
'[11:06:15.063]',-0.115
'[11:06:15.070]',-0.135
'[11:06:15.078]',-0.095
'[11:06:15.086]',-0.135
'[11:06:15.094]',-0.115
'[11:06:15.102]',-0.125
'[11:06:15.109]',-0.135
'[11:06:15.117]',-0.145
'[11:06:15.125]',-0.145
'[11:06:15.133]',-0.125
'[11:06:15.141]',-0.125
'[11:06:15.148]',-0.105
'[11:06:15.156]',-0.075
'[11:06:15.164]',-0.045
'[11:06:15.172]',-0.035
'[11:06:15.180]',-0.025
'[11:06:15.188]',-0.045
'[11:06:15.195]',-0.055
'[11:06:15.203]',-0.055
'[11:06:15.211]',-0.045
'[11:06:15.219]',-0.035
'[11:06:15.227]',-0.045
'[11:06:15.234]',-0.105
'[11:06:15.242]',-0.065
'[11:06:15.250]',-0.065
'[11:06:15.258]',-0.075
'[11:06:15.266]',-0.075
'[11:06:15.273]',-0.075
'[11:06:15.281]',-0.075
'[11:06:15.289]',-0.055
'[11:06:15.297]',-0.055
'[11:06:15.305]',-0.055
'[11:06:15.313]',-0.035
'[11:06:15.320]',-0.045
'[11:06:15.328]',-0.035
'[11:06:15.336]',-0.015
'[11:06:15.344]',-0.065
'[11:06:15.352]',-0.055
'[11:06:15.359]',-0.025
'[11:06:15.367]',-0.025
'[11:06:15.375]',-0.035
'[11:06:15.383]',-0.045
'[11:06:15.391]',-0.025
'[11:06:15.398]',-0.045
'[11:06:15.406]',-0.065
'[11:06:15.414]',-0.045
'[11:06:15.422]',-0.035
'[11:06:15.430]',-0.015
'[11:06:15.438]',-0.045
'[11:06:15.445]',-0.055
'[11:06:15.453]',-0.045
'[11:06:15.461]',-0.025
'[11:06:15.469]',-0.035
'[11:06:15.477]',-0.065
'[11:06:15.484]',-0.055
'[11:06:15.492]',-0.035
'[11:06:15.500]',-0.015
'[11:06:15.508]',-0.065
'[11:06:15.516]',-0.045
'[11:06:15.523]',-0.035
'[11:06:15.531]',-0.045
'[11:06:15.539]',-0.045
'[11:06:15.547]',-0.015
'[11:06:15.555]',0.005
'[11:06:15.563]',0.015
'[11:06:15.570]',0.015
'[11:06:15.578]',0.045
'[11:06:15.586]',0.015
'[11:06:15.594]',0.065
'[11:06:15.602]',0.055
'[11:06:15.609]',0.065
'[11:06:15.617]',-0.005
'[11:06:15.625]',0.015
'[11:06:15.633]',0.005
'[11:06:15.641]',-0.045
'[11:06:15.648]',-0.075
'[11:06:15.656]',-0.085
'[11:06:15.664]',-0.055
'[11:06:15.672]',-0.085
'[11:06:15.680]',-0.075
'[11:06:15.688]',-0.035
'[11:06:15.695]',-0.075
'[11:06:15.703]',-0.045
'[11:06:15.711]',-0.055
'[11:06:15.719]',-0.045
'[11:06:15.727]',-0.035
'[11:06:15.734]',-0.015
'[11:06:15.742]',0.045
'[11:06:15.750]',0.195
'[11:06:15.758]',0.785
'[11:06:15.766]',1425
'[11:06:15.773]',1075
'[11:06:15.781]',0.095
'[11:06:15.789]',-0.535
'[11:06:15.797]',-0.275
'[11:06:15.805]',-0.075
'[11:06:15.813]',-0.055
'[11:06:15.820]',-0.085
'[11:06:15.828]',-0.105
'[11:06:15.836]',-0.135
'[11:06:15.844]',-0.105
'[11:06:15.852]',-0.105
'[11:06:15.859]',-0.115
'[11:06:15.867]',-0.105
'[11:06:15.875]',-0.105
'[11:06:15.883]',-0.125
'[11:06:15.891]',-0.085
'[11:06:15.898]',-0.125
'[11:06:15.906]',-0.135
'[11:06:15.914]',-0.125
'[11:06:15.922]',-0.105
'[11:06:15.930]',-0.095
'[11:06:15.938]',-0.135
'[11:06:15.945]',-0.145
'[11:06:15.953]',-0.135
'[11:06:15.961]',-0.135
'[11:06:15.969]',-0.125
'[11:06:15.977]',-0.125
'[11:06:15.984]',-0.145
'[11:06:15.992]',-0.125
'[11:06:16.000]',-0.135
'[11:06:16.008]',-0.145
'[11:06:16.016]',-0.175
'[11:06:16.023]',-0.165
'[11:06:16.031]',-0.125
'[11:06:16.039]',-0.115
'[11:06:16.047]',-0.095
'[11:06:16.055]',-0.055
'[11:06:16.063]',-0.045
'[11:06:16.070]',-0.075
'[11:06:16.078]',-0.045
'[11:06:16.086]',-0.075
'[11:06:16.094]',-0.055
'[11:06:16.102]',-0.105
'[11:06:16.109]',-0.065
'[11:06:16.117]',-0.085
'[11:06:16.125]',-0.095
'[11:06:16.133]',-0.085
'[11:06:16.141]',-0.105
'[11:06:16.148]',-0.095
'[11:06:16.156]',-0.105
'[11:06:16.164]',-0.095
'[11:06:16.172]',-0.085
'[11:06:16.180]',-0.085
'[11:06:16.188]',-0.075
'[11:06:16.195]',-0.065
'[11:06:16.203]',-0.085
'[11:06:16.211]',-0.055
'[11:06:16.219]',-0.065
'[11:06:16.227]',-0.045
'[11:06:16.234]',-0.035
'[11:06:16.242]',-0.065
'[11:06:16.250]',-0.065
'[11:06:16.258]',-0.045
'[11:06:16.266]',-0.035
'[11:06:16.273]',-0.075
'[11:06:16.281]',-0.045
'[11:06:16.289]',-0.025
'[11:06:16.297]',-0.045
'[11:06:16.305]',-0.015
'[11:06:16.313]',-0.035
'[11:06:16.320]',-0.035
'[11:06:16.328]',-0.055
'[11:06:16.336]',-0.005
'[11:06:16.344]',-0.045
'[11:06:16.352]',-0.065
'[11:06:16.359]',-0.045
'[11:06:16.367]',-0.015
'[11:06:16.375]',-0.045
'[11:06:16.383]',-0.065
'[11:06:16.391]',-0.025
'[11:06:16.398]',-0.025
'[11:06:16.406]',-0.075
'[11:06:16.414]',-0.045
'[11:06:16.422]',-0.025
'[11:06:16.430]',0.005
'[11:06:16.438]',0.005
'[11:06:16.445]',0.015
'[11:06:16.453]',0.015
'[11:06:16.461]',0.025
'[11:06:16.469]',0.055
'[11:06:16.477]',0.045
'[11:06:16.484]',0.015
'[11:06:16.492]',0.015
'[11:06:16.500]',0.015
'[11:06:16.508]',-0.005
'[11:06:16.516]',-0.045
'[11:06:16.523]',-0.095
'[11:06:16.531]',-0.065
'[11:06:16.539]',-0.065
'[11:06:16.547]',-0.075
'[11:06:16.555]',-0.055
'[11:06:16.563]',-0.065
'[11:06:16.570]',-0.085
'[11:06:16.578]',-0.035
'[11:06:16.586]',-0.025
'[11:06:16.594]',-0.045
'[11:06:16.602]',-0.015
'[11:06:16.609]',-0.015
'[11:06:16.617]',0.135
'[11:06:16.625]',0.635
'[11:06:16.633]',1325
'[11:06:16.641]',1275
'[11:06:16.648]',0.295
'[11:06:16.656]',-0.485
'[11:06:16.664]',-0.295
'[11:06:16.672]',-0.095
'[11:06:16.680]',-0.065
'[11:06:16.688]',-0.095
'[11:06:16.695]',-0.125
'[11:06:16.703]',-0.135
'[11:06:16.711]',-0.105
'[11:06:16.719]',-0.125
'[11:06:16.727]',-0.125
'[11:06:16.734]',-0.125
'[11:06:16.742]',-0.105
'[11:06:16.750]',-0.125
'[11:06:16.758]',-0.125
'[11:06:16.766]',-0.115
'[11:06:16.773]',-0.115
'[11:06:16.781]',-0.135
'[11:06:16.789]',-0.135
'[11:06:16.797]',-0.115
'[11:06:16.805]',-0.135
'[11:06:16.813]',-0.125
'[11:06:16.820]',-0.125
'[11:06:16.828]',-0.155
'[11:06:16.836]',-0.125
'[11:06:16.844]',-0.145
'[11:06:16.852]',-0.155
'[11:06:16.859]',-0.155
'[11:06:16.867]',-0.155
'[11:06:16.875]',-0.155
'[11:06:16.883]',-0.175
'[11:06:16.891]',-0.145
'[11:06:16.898]',-0.135
'[11:06:16.906]',-0.135
'[11:06:16.914]',-0.135
'[11:06:16.922]',-0.075
'[11:06:16.930]',-0.045
'[11:06:16.938]',-0.075
'[11:06:16.945]',-0.055
'[11:06:16.953]',-0.055
'[11:06:16.961]',-0.055
'[11:06:16.969]',-0.075
'[11:06:16.977]',-0.085
'[11:06:16.984]',-0.115
'[11:06:16.992]',-0.075
'[11:06:17.000]',-0.095
'[11:06:17.008]',-0.105
'[11:06:17.016]',-0.095
'[11:06:17.023]',-0.095
'[11:06:17.031]',-0.115
'[11:06:17.039]',-0.095
'[11:06:17.047]',-0.075
'[11:06:17.055]',-0.085
'[11:06:17.063]',-0.085
'[11:06:17.070]',-0.095
'[11:06:17.078]',-0.055
'[11:06:17.086]',-0.075
'[11:06:17.094]',-0.045
'[11:06:17.102]',-0.065
'[11:06:17.109]',-0.055
'[11:06:17.117]',-0.045
'[11:06:17.125]',-0.055
'[11:06:17.133]',-0.065
'[11:06:17.141]',-0.055
'[11:06:17.148]',-0.065
'[11:06:17.156]',-0.055
'[11:06:17.164]',-0.075
'[11:06:17.172]',-0.055
'[11:06:17.180]',-0.045
'[11:06:17.188]',-0.055
'[11:06:17.195]',-0.065
'[11:06:17.203]',-0.055
'[11:06:17.211]',-0.065
'[11:06:17.219]',-0.075
'[11:06:17.227]',-0.075
'[11:06:17.234]',-0.075
'[11:06:17.242]',-0.045
'[11:06:17.250]',-0.085
'[11:06:17.258]',-0.055
'[11:06:17.266]',-0.055
'[11:06:17.273]',-0.075
'[11:06:17.281]',-0.065
'[11:06:17.289]',-0.075
'[11:06:17.297]',-0.065
'[11:06:17.305]',-0.045
'[11:06:17.313]',-0.005
'[11:06:17.320]',-0.015
'[11:06:17.328]',0.015
'[11:06:17.336]',0.005
'[11:06:17.344]',0.025
'[11:06:17.352]',0.025
'[11:06:17.359]',0.035
'[11:06:17.367]',0.015
'[11:06:17.375]',-0.005
'[11:06:17.383]',-0.005
'[11:06:17.391]',-0.035
'[11:06:17.398]',-0.085
'[11:06:17.406]',-0.115
'[11:06:17.414]',-0.085
'[11:06:17.422]',-0.075
'[11:06:17.430]',-0.065
'[11:06:17.438]',-0.095
'[11:06:17.445]',-0.085
'[11:06:17.453]',-0.085
'[11:06:17.461]',-0.085
'[11:06:17.469]',-0.055
'[11:06:17.477]',-0.055
'[11:06:17.484]',-0.055
'[11:06:17.492]',0.015
'[11:06:17.500]',0.085
'[11:06:17.508]',0.385
'[11:06:17.516]',1055
'[11:06:17.523]',1325
'[11:06:17.531]',0.525
'[11:06:17.539]',-0.375
'[11:06:17.547]',-0.435
'[11:06:17.555]',-0.145
'[11:06:17.563]',-0.085
'[11:06:17.570]',-0.125
'[11:06:17.578]',-0.115
'[11:06:17.586]',-0.125
'[11:06:17.594]',-0.115
'[11:06:17.602]',-0.135
'[11:06:17.609]',-0.125
'[11:06:17.617]',-0.115
'[11:06:17.625]',-0.115
'[11:06:17.633]',-0.125
'[11:06:17.641]',-0.115
'[11:06:17.648]',-0.125
'[11:06:17.656]',-0.135
'[11:06:17.664]',-0.125
'[11:06:17.672]',-0.115
'[11:06:17.680]',-0.085
'[11:06:17.688]',-0.115
'[11:06:17.695]',-0.125
'[11:06:17.703]',-0.125
'[11:06:17.711]',-0.125
'[11:06:17.719]',-0.135
'[11:06:17.727]',-0.145
'[11:06:17.734]',-0.145
'[11:06:17.742]',-0.155
'[11:06:17.750]',-0.155
'[11:06:17.758]',-0.175
'[11:06:17.766]',-0.155
'[11:06:17.773]',-0.185
'[11:06:17.781]',-0.165
'[11:06:17.789]',-0.155
'[11:06:17.797]',-0.115
'[11:06:17.805]',-0.095
'[11:06:17.813]',-0.065
'[11:06:17.820]',-0.055
'[11:06:17.828]',-0.045
'[11:06:17.836]',-0.085
'[11:06:17.844]',-0.085
'[11:06:17.852]',-0.105
'[11:06:17.859]',-0.095
'[11:06:17.867]',-0.075
'[11:06:17.875]',-0.095
'[11:06:17.883]',-0.105
'[11:06:17.891]',-0.095
'[11:06:17.898]',-0.095
'[11:06:17.906]',-0.105
'[11:06:17.914]',-0.105
'[11:06:17.922]',-0.105
'[11:06:17.930]',-0.085
'[11:06:17.938]',-0.095
'[11:06:17.945]',-0.085
'[11:06:17.953]',-0.075
'[11:06:17.961]',-0.065
'[11:06:17.969]',-0.075
'[11:06:17.977]',-0.065
'[11:06:17.984]',-0.075
'[11:06:17.992]',-0.045
'[11:06:18.000]',-0.055
'[11:06:18.008]',-0.075
'[11:06:18.016]',-0.055
'[11:06:18.023]',-0.055
'[11:06:18.031]',-0.065
'[11:06:18.039]',-0.055
'[11:06:18.047]',-0.075
'[11:06:18.055]',-0.075
'[11:06:18.063]',-0.075
'[11:06:18.070]',-0.065
'[11:06:18.078]',-0.055
'[11:06:18.086]',-0.055
'[11:06:18.094]',-0.075
'[11:06:18.102]',-0.075
'[11:06:18.109]',-0.075
'[11:06:18.117]',-0.055
'[11:06:18.125]',-0.075
'[11:06:18.133]',-0.065
'[11:06:18.141]',-0.065
'[11:06:18.148]',-0.075
'[11:06:18.156]',-0.065
'[11:06:18.164]',-0.035
'[11:06:18.172]',-0.035
'[11:06:18.180]',-0.015
'[11:06:18.188]',-0.015
'[11:06:18.195]',0.015
'[11:06:18.203]',0.025
'[11:06:18.211]',0.025
'[11:06:18.219]',-0.005
'[11:06:18.227]',-0.025
'[11:06:18.234]',-0.035
'[11:06:18.242]',-0.035
'[11:06:18.250]',-0.065
'[11:06:18.258]',-0.105
'[11:06:18.266]',-0.105
'[11:06:18.273]',-0.105
'[11:06:18.281]',-0.105
'[11:06:18.289]',-0.105
'[11:06:18.297]',-0.095
'[11:06:18.305]',-0.085
'[11:06:18.313]',-0.085
'[11:06:18.320]',-0.075
'[11:06:18.328]',-0.035
'[11:06:18.336]',-0.065
'[11:06:18.344]',0.005
'[11:06:18.352]',0.055
'[11:06:18.359]',0.395
'[11:06:18.367]',1145
'[11:06:18.375]',1405
'[11:06:18.383]',0.605
'[11:06:18.391]',-0.365
'[11:06:18.398]',-0.485
'[11:06:18.406]',-0.155
'[11:06:18.414]',-0.085
'[11:06:18.422]',-0.085
'[11:06:18.430]',-0.095
'[11:06:18.438]',-0.105
'[11:06:18.445]',-0.115
'[11:06:18.453]',-0.115
'[11:06:18.461]',-0.125
'[11:06:18.469]',-0.125
'[11:06:18.477]',-0.115
'[11:06:18.484]',-0.115
'[11:06:18.492]',-0.105
'[11:06:18.500]',-0.125
'[11:06:18.508]',-0.135
'[11:06:18.516]',-0.105
'[11:06:18.523]',-0.115
'[11:06:18.531]',-0.135
'[11:06:18.539]',-0.135
'[11:06:18.547]',-0.105
'[11:06:18.555]',-0.115
'[11:06:18.563]',-0.125
'[11:06:18.570]',-0.145
'[11:06:18.578]',-0.135
'[11:06:18.586]',-0.135
'[11:06:18.594]',-0.145
'[11:06:18.602]',-0.165
'[11:06:18.609]',-0.165
'[11:06:18.617]',-0.155
'[11:06:18.625]',-0.155
'[11:06:18.633]',-0.145
'[11:06:18.641]',-0.115
'[11:06:18.648]',-0.095
'[11:06:18.656]',-0.075
'[11:06:18.664]',-0.055
'[11:06:18.672]',-0.055
'[11:06:18.680]',-0.035
'[11:06:18.688]',-0.065
'[11:06:18.695]',-0.055
'[11:06:18.703]',-0.075
'[11:06:18.711]',-0.085
'[11:06:18.719]',-0.085
'[11:06:18.727]',-0.065
'[11:06:18.734]',-0.075
'[11:06:18.742]',-0.065
'[11:06:18.750]',-0.075
'[11:06:18.758]',-0.075
'[11:06:18.766]',-0.075
'[11:06:18.773]',-0.085
'[11:06:18.781]',-0.085
'[11:06:18.789]',-0.065
'[11:06:18.797]',-0.075
'[11:06:18.805]',-0.065
'[11:06:18.813]',-0.035
'[11:06:18.820]',-0.075
'[11:06:18.828]',-0.045
'[11:06:18.836]',-0.045
'[11:06:18.844]',-0.045
'[11:06:18.852]',-0.055
'[11:06:18.859]',-0.055
'[11:06:18.867]',-0.035
'[11:06:18.875]',-0.065
'[11:06:18.883]',-0.075
'[11:06:18.891]',-0.055
'[11:06:18.898]',-0.065
'[11:06:18.906]',-0.055
'[11:06:18.914]',-0.085
'[11:06:18.922]',-0.085
'[11:06:18.930]',-0.045
'[11:06:18.938]',-0.065
'[11:06:18.945]',-0.055
'[11:06:18.953]',-0.065
'[11:06:18.961]',-0.065
'[11:06:18.969]',-0.085
'[11:06:18.977]',-0.085
'[11:06:18.984]',-0.085
'[11:06:18.992]',-0.055
'[11:06:19.000]',-0.075
'[11:06:19.008]',-0.045
'[11:06:19.016]',-0.035
'[11:06:19.023]',-0.035
'[11:06:19.031]',-0.015
'[11:06:19.039]',-0.015
'[11:06:19.047]',0.005
'[11:06:19.055]',0.015
'[11:06:19.063]',0.035
'[11:06:19.070]',-0.035
'[11:06:19.078]',-0.025
'[11:06:19.086]',-0.045
'[11:06:19.094]',-0.095
'[11:06:19.102]',-0.105
'[11:06:19.109]',-0.105
'[11:06:19.117]',-0.115
'[11:06:19.125]',-0.095
'[11:06:19.133]',-0.115
'[11:06:19.141]',-0.105
'[11:06:19.148]',-0.095
'[11:06:19.156]',-0.125
'[11:06:19.164]',-0.085
'[11:06:19.172]',-0.065
'[11:06:19.180]',-0.045
'[11:06:19.188]',-0.065
'[11:06:19.195]',-0.015
'[11:06:19.203]',0.175
'[11:06:19.211]',0.755
'[11:06:19.219]',1365
'[11:06:19.227]',1135
'[11:06:19.234]',0.145
'[11:06:19.242]',-0.575
'[11:06:19.250]',-0.335
'[11:06:19.258]',-0.145
'[11:06:19.266]',-0.105
'[11:06:19.273]',-0.125
'[11:06:19.281]',-0.155
'[11:06:19.289]',-0.145
'[11:06:19.297]',-0.155
'[11:06:19.305]',-0.135
'[11:06:19.313]',-0.155
'[11:06:19.320]',-0.175
'[11:06:19.328]',-0.125
'[11:06:19.336]',-0.145
'[11:06:19.344]',-0.155
'[11:06:19.352]',-0.155
'[11:06:19.359]',-0.155
'[11:06:19.367]',-0.145
'[11:06:19.375]',-0.145
'[11:06:19.383]',-0.165
'[11:06:19.391]',-0.135
'[11:06:19.398]',-0.145
'[11:06:19.406]',-0.155
'[11:06:19.414]',-0.165
'[11:06:19.422]',-0.165
'[11:06:19.430]',-0.135
'[11:06:19.438]',-0.175
'[11:06:19.445]',-0.155
'[11:06:19.453]',-0.175
'[11:06:19.461]',-0.185
'[11:06:19.469]',-0.185
'[11:06:19.477]',-0.165
'[11:06:19.484]',-0.165
'[11:06:19.492]',-0.135
'[11:06:19.500]',-0.115
'[11:06:19.508]',-0.105
'[11:06:19.516]',-0.085
'[11:06:19.523]',-0.065
'[11:06:19.531]',-0.075
'[11:06:19.539]',-0.085
'[11:06:19.547]',-0.095
'[11:06:19.555]',-0.095
'[11:06:19.563]',-0.085
'[11:06:19.570]',-0.105
'[11:06:19.578]',-0.115
'[11:06:19.586]',-0.105
'[11:06:19.594]',-0.105
'[11:06:19.602]',-0.115
'[11:06:19.609]',-0.115
'[11:06:19.617]',-0.105
'[11:06:19.625]',-0.105
'[11:06:19.633]',-0.095
'[11:06:19.641]',-0.085
'[11:06:19.648]',-0.095
'[11:06:19.656]',-0.085
'[11:06:19.664]',-0.085
'[11:06:19.672]',-0.085
'[11:06:19.680]',-0.055
'[11:06:19.688]',-0.075
'[11:06:19.695]',-0.065
'[11:06:19.703]',-0.095
'[11:06:19.711]',-0.065
'[11:06:19.719]',-0.065
'[11:06:19.727]',-0.085
'[11:06:19.734]',-0.075
'[11:06:19.742]',-0.075
'[11:06:19.750]',-0.075
'[11:06:19.758]',-0.085
'[11:06:19.766]',-0.075
'[11:06:19.773]',-0.085
'[11:06:19.781]',-0.085
'[11:06:19.789]',-0.075
'[11:06:19.797]',-0.075
'[11:06:19.805]',-0.075
'[11:06:19.813]',-0.085
'[11:06:19.820]',-0.085
'[11:06:19.828]',-0.085
'[11:06:19.836]',-0.075
'[11:06:19.844]',-0.075
'[11:06:19.852]',-0.085
'[11:06:19.859]',-0.055
'[11:06:19.867]',-0.035
'[11:06:19.875]',-0.035
'[11:06:19.883]',-0.035
'[11:06:19.891]',-0.015
'[11:06:19.898]',-0.005
'[11:06:19.906]',0.015
'[11:06:19.914]',0.005
'[11:06:19.922]',0.005
'[11:06:19.930]',-0.015
'[11:06:19.938]',-0.045
'[11:06:19.945]',-0.035
'[11:06:19.953]',-0.095
'[11:06:19.961]',-0.095
'[11:06:19.969]',-0.105
'[11:06:19.977]',-0.105
'[11:06:19.984]',-0.115
'[11:06:19.992]',-0.105
'[11:06:20.000]',-0.105
'[11:06:20.008]',-0.095
'[11:06:20.016]',-0.095
'[11:06:20.023]',-0.095
'[11:06:20.031]',-0.075
'[11:06:20.039]',-0.075
'[11:06:20.047]',-0.065
'[11:06:20.055]',-0.015
'[11:06:20.063]',0.075
'[11:06:20.070]',0.515
'[11:06:20.078]',1165
'[11:06:20.086]',1205
'[11:06:20.094]',0.265
'[11:06:20.102]',-0.495
'[11:06:20.109]',-0.395
'[11:06:20.117]',-0.155
'[11:06:20.125]',-0.105
'[11:06:20.133]',-0.125
'[11:06:20.141]',-0.135
'[11:06:20.148]',-0.145
'[11:06:20.156]',-0.155
'[11:06:20.164]',-0.155
'[11:06:20.172]',-0.155
'[11:06:20.180]',-0.135
'[11:06:20.188]',-0.155
'[11:06:20.195]',-0.145
'[11:06:20.203]',-0.135
'[11:06:20.211]',-0.165
'[11:06:20.219]',-0.155
'[11:06:20.227]',-0.135
'[11:06:20.234]',-0.145
'[11:06:20.242]',-0.135
'[11:06:20.250]',-0.145
'[11:06:20.258]',-0.135
'[11:06:20.266]',-0.135
'[11:06:20.273]',-0.145
'[11:06:20.281]',-0.155
'[11:06:20.289]',-0.175
'[11:06:20.297]',-0.155
'[11:06:20.305]',-0.155
'[11:06:20.313]',-0.165
'[11:06:20.320]',-0.185
'[11:06:20.328]',-0.175
'[11:06:20.336]',-0.185
'[11:06:20.344]',-0.185
'[11:06:20.352]',-0.175
'[11:06:20.359]',-0.145
'[11:06:20.367]',-0.095
'[11:06:20.375]',-0.085
'[11:06:20.383]',-0.085
'[11:06:20.391]',-0.075
'[11:06:20.398]',-0.095
'[11:06:20.406]',-0.095
'[11:06:20.414]',-0.095
'[11:06:20.422]',-0.105
'[11:06:20.430]',-0.095
'[11:06:20.438]',-0.115
'[11:06:20.445]',-0.105
'[11:06:20.453]',-0.115
'[11:06:20.461]',-0.095
'[11:06:20.469]',-0.115
'[11:06:20.477]',-0.105
'[11:06:20.484]',-0.095
'[11:06:20.492]',-0.095
'[11:06:20.500]',-0.085
'[11:06:20.508]',-0.105
'[11:06:20.516]',-0.085
'[11:06:20.523]',-0.095
'[11:06:20.531]',-0.085
'[11:06:20.539]',-0.085
'[11:06:20.547]',-0.065
'[11:06:20.555]',-0.075
'[11:06:20.563]',-0.065
'[11:06:20.570]',-0.085
'[11:06:20.578]',-0.055
'[11:06:20.586]',-0.095
'[11:06:20.594]',-0.075
'[11:06:20.602]',-0.065
'[11:06:20.609]',-0.075
'[11:06:20.617]',-0.075
'[11:06:20.625]',-0.065
'[11:06:20.633]',-0.095
'[11:06:20.641]',-0.075
'[11:06:20.648]',-0.085
'[11:06:20.656]',-0.085
'[11:06:20.664]',-0.075
'[11:06:20.672]',-0.085
'[11:06:20.680]',-0.065
'[11:06:20.688]',-0.075
'[11:06:20.695]',-0.095
'[11:06:20.703]',-0.075
'[11:06:20.711]',-0.045
'[11:06:20.719]',-0.025
'[11:06:20.727]',-0.015
'[11:06:20.734]',-0.025
'[11:06:20.742]',-0.005
'[11:06:20.750]',0.015
'[11:06:20.758]',0.025
'[11:06:20.766]',0.035
'[11:06:20.773]',-0.005
'[11:06:20.781]',-0.005
'[11:06:20.789]',-0.055
'[11:06:20.797]',-0.075
'[11:06:20.805]',-0.085
'[11:06:20.813]',-0.085
'[11:06:20.820]',-0.105
'[11:06:20.828]',-0.095
'[11:06:20.836]',-0.105
'[11:06:20.844]',-0.085
'[11:06:20.852]',-0.105
'[11:06:20.859]',-0.095
'[11:06:20.867]',-0.065
'[11:06:20.875]',-0.045
'[11:06:20.883]',-0.055
'[11:06:20.891]',-0.055
'[11:06:20.898]',-0.025
'[11:06:20.906]',0.075
'[11:06:20.914]',0.445
'[11:06:20.922]',1145
'[11:06:20.930]',1355
'[11:06:20.938]',0.565
'[11:06:20.945]',-0.385
'[11:06:20.953]',-0.415
'[11:06:20.961]',-0.155
'[11:06:20.969]',-0.105
'[11:06:20.977]',-0.115
'[11:06:20.984]',-0.135
'[11:06:20.992]',-0.125
'[11:06:21.000]',-0.135
'[11:06:21.008]',-0.145
'[11:06:21.016]',-0.145
'[11:06:21.023]',-0.145
'[11:06:21.031]',-0.125
'[11:06:21.039]',-0.135
'[11:06:21.047]',-0.145
'[11:06:21.055]',-0.145
'[11:06:21.063]',-0.125
'[11:06:21.070]',-0.135
'[11:06:21.078]',-0.125
'[11:06:21.086]',-0.155
'[11:06:21.094]',-0.135
'[11:06:21.102]',-0.135
'[11:06:21.109]',-0.135
'[11:06:21.117]',-0.155
'[11:06:21.125]',-0.155
'[11:06:21.133]',-0.155
'[11:06:21.141]',-0.145
'[11:06:21.148]',-0.175
'[11:06:21.156]',-0.175
'[11:06:21.164]',-0.195
'[11:06:21.172]',-0.185
'[11:06:21.180]',-0.175
'[11:06:21.188]',-0.185
'[11:06:21.195]',-0.155
'[11:06:21.203]',-0.125
'[11:06:21.211]',-0.105
'[11:06:21.219]',-0.085
'[11:06:21.227]',-0.085
'[11:06:21.234]',-0.085
'[11:06:21.242]',-0.075
'[11:06:21.250]',-0.095
'[11:06:21.258]',-0.105
'[11:06:21.266]',-0.105
'[11:06:21.273]',-0.095
'[11:06:21.281]',-0.085
'[11:06:21.289]',-0.105
'[11:06:21.297]',-0.105
'[11:06:21.305]',-0.105
'[11:06:21.313]',-0.095
'[11:06:21.320]',-0.105
'[11:06:21.328]',-0.085
'[11:06:21.336]',-0.095
'[11:06:21.344]',-0.095
'[11:06:21.352]',-0.075
'[11:06:21.359]',-0.075
'[11:06:21.367]',-0.065
'[11:06:21.375]',-0.075
'[11:06:21.383]',-0.075
'[11:06:21.391]',-0.065
'[11:06:21.398]',-0.065
'[11:06:21.406]',-0.075
'[11:06:21.414]',-0.095
'[11:06:21.422]',-0.065
'[11:06:21.430]',-0.035
'[11:06:21.438]',-0.065
'[11:06:21.445]',-0.085
'[11:06:21.453]',-0.085
'[11:06:21.461]',-0.055
'[11:06:21.469]',-0.075
'[11:06:21.477]',-0.095
'[11:06:21.484]',-0.085
'[11:06:21.492]',-0.065
'[11:06:21.500]',-0.065
'[11:06:21.508]',-0.085
'[11:06:21.516]',-0.055
'[11:06:21.523]',-0.085
'[11:06:21.531]',-0.085
'[11:06:21.539]',-0.075
'[11:06:21.547]',-0.055
'[11:06:21.555]',-0.065
'[11:06:21.563]',-0.065
'[11:06:21.570]',-0.065
'[11:06:21.578]',-0.045
'[11:06:21.586]',-0.015
'[11:06:21.594]',-0.025
'[11:06:21.602]',-0.025
'[11:06:21.609]',-0.005
'[11:06:21.617]',0.045
'[11:06:21.625]',0.015
'[11:06:21.633]',0.025
'[11:06:21.641]',-0.005
'[11:06:21.648]',-0.015
'[11:06:21.656]',-0.025
'[11:06:21.664]',-0.075
'[11:06:21.672]',-0.095
'[11:06:21.680]',-0.085
'[11:06:21.688]',-0.105
'[11:06:21.695]',-0.075
'[11:06:21.703]',-0.085
'[11:06:21.711]',-0.105
'[11:06:21.719]',-0.085
'[11:06:21.727]',-0.065
'[11:06:21.734]',-0.065
'[11:06:21.742]',-0.055
'[11:06:21.750]',-0.045
'[11:06:21.758]',-0.045
'[11:06:21.766]',0.005
'[11:06:21.773]',0.115
'[11:06:21.781]',0.565
'[11:06:21.789]',1245
'[11:06:21.797]',1195
'[11:06:21.805]',0.235
'[11:06:21.813]',-0.505
'[11:06:21.820]',-0.325
'[11:06:21.828]',-0.095
'[11:06:21.836]',-0.085
'[11:06:21.844]',-0.075
'[11:06:21.852]',-0.115
'[11:06:21.859]',-0.105
'[11:06:21.867]',-0.115
'[11:06:21.875]',-0.105
'[11:06:21.883]',-0.125
'[11:06:21.891]',-0.115
'[11:06:21.898]',-0.115
'[11:06:21.906]',-0.105
'[11:06:21.914]',-0.105
'[11:06:21.922]',-0.105
'[11:06:21.930]',-0.105
'[11:06:21.938]',-0.105
'[11:06:21.945]',-0.095
'[11:06:21.953]',-0.105
'[11:06:21.961]',-0.115
'[11:06:21.969]',-0.115
'[11:06:21.977]',-0.095
'[11:06:21.984]',-0.125
'[11:06:21.992]',-0.095
'[11:06:22.000]',-0.115
'[11:06:22.008]',-0.145
'[11:06:22.016]',-0.135
'[11:06:22.023]',-0.135
'[11:06:22.031]',-0.145
'[11:06:22.039]',-0.145
'[11:06:22.047]',-0.155
'[11:06:22.055]',-0.145
'[11:06:22.063]',-0.105
'[11:06:22.070]',-0.075
'[11:06:22.078]',-0.035
'[11:06:22.086]',-0.045
'[11:06:22.094]',-0.025
'[11:06:22.102]',-0.045
'[11:06:22.109]',-0.025
'[11:06:22.117]',-0.025
'[11:06:22.125]',-0.045
'[11:06:22.133]',-0.055
'[11:06:22.141]',-0.035
'[11:06:22.148]',-0.065
'[11:06:22.156]',-0.065
'[11:06:22.164]',-0.045
'[11:06:22.172]',-0.075
'[11:06:22.180]',-0.045
'[11:06:22.188]',-0.055
'[11:06:22.195]',-0.035
'[11:06:22.203]',-0.045
'[11:06:22.211]',-0.035
'[11:06:22.219]',-0.045
'[11:06:22.227]',-0.045
'[11:06:22.234]',-0.025
'[11:06:22.242]',-0.015
'[11:06:22.250]',-0.025
'[11:06:22.258]',-0.025
'[11:06:22.266]',-0.025
'[11:06:22.273]',-0.015
'[11:06:22.281]',-0.025
'[11:06:22.289]',-0.015
'[11:06:22.297]',-0.025
'[11:06:22.305]',-0.025
'[11:06:22.313]',-0.025
'[11:06:22.320]',-0.035
'[11:06:22.328]',-0.015
'[11:06:22.336]',-0.035
'[11:06:22.344]',-0.035
'[11:06:22.352]',-0.035
'[11:06:22.359]',-0.035
'[11:06:22.367]',-0.015
'[11:06:22.375]',-0.025
'[11:06:22.383]',-0.025
'[11:06:22.391]',-0.035
'[11:06:22.398]',-0.035
'[11:06:22.406]',-0.045
'[11:06:22.414]',-0.025
'[11:06:22.422]',-0.025
'[11:06:22.430]',-0.005
'[11:06:22.438]',0.015
'[11:06:22.445]',0.045
'[11:06:22.453]',0.035
'[11:06:22.461]',0.025
'[11:06:22.469]',0.035
'[11:06:22.477]',0.065
'[11:06:22.484]',0.065
'[11:06:22.492]',0.085
'[11:06:22.500]',0.035
'[11:06:22.508]',0.035
'[11:06:22.516]',0.015
'[11:06:22.523]',-0.025
'[11:06:22.531]',-0.025
'[11:06:22.539]',-0.055
'[11:06:22.547]',-0.045
'[11:06:22.555]',-0.035
'[11:06:22.563]',-0.025
'[11:06:22.570]',-0.045
'[11:06:22.578]',-0.025
'[11:06:22.586]',-0.035
'[11:06:22.594]',-0.025
'[11:06:22.602]',-0.005
'[11:06:22.609]',0.015
'[11:06:22.617]',0.025
'[11:06:22.625]',0.055
'[11:06:22.633]',0.185
'[11:06:22.641]',0.645
'[11:06:22.648]',1335
'[11:06:22.656]',1265
'[11:06:22.664]',0.375
'[11:06:22.672]',-0.455
'[11:06:22.680]',-0.305
'[11:06:22.688]',-0.075
'[11:06:22.695]',-0.045
'[11:06:22.703]',-0.055
'[11:06:22.711]',-0.065
'[11:06:22.719]',-0.075
'[11:06:22.727]',-0.075
'[11:06:22.734]',-0.055
'[11:06:22.742]',-0.065
'[11:06:22.750]',-0.055
'[11:06:22.758]',-0.065
'[11:06:22.766]',-0.055
'[11:06:22.773]',-0.075
'[11:06:22.781]',-0.065
'[11:06:22.789]',-0.075
'[11:06:22.797]',-0.055
'[11:06:22.805]',-0.055
'[11:06:22.813]',-0.065
'[11:06:22.820]',-0.075
'[11:06:22.828]',-0.055
'[11:06:22.836]',-0.075
'[11:06:22.844]',-0.085
'[11:06:22.852]',-0.085
'[11:06:22.859]',-0.085
'[11:06:22.867]',-0.085
'[11:06:22.875]',-0.115
'[11:06:22.883]',-0.115
'[11:06:22.891]',-0.115
'[11:06:22.898]',-0.125
'[11:06:22.906]',-0.125
'[11:06:22.914]',-0.105
'[11:06:22.922]',-0.095
'[11:06:22.930]',-0.045
'[11:06:22.938]',-0.025
'[11:06:22.945]',-0.005
'[11:06:22.953]',0.005
'[11:06:22.961]',-0.005
'[11:06:22.969]',-0.015
'[11:06:22.977]',-0.025
'[11:06:22.984]',-0.025
'[11:06:22.992]',-0.015
'[11:06:23.000]',-0.015
'[11:06:23.008]',-0.035
'[11:06:23.016]',-0.025
'[11:06:23.023]',-0.045
'[11:06:23.031]',-0.035
'[11:06:23.039]',-0.045
'[11:06:23.047]',-0.015
'[11:06:23.055]',-0.015
'[11:06:23.063]',-0.015
'[11:06:23.070]',-0.035
'[11:06:23.078]',0.015
'[11:06:23.086]',-0.005
'[11:06:23.094]',-0.005
'[11:06:23.102]',-0.005
'[11:06:23.109]',-0.005
'[11:06:23.117]',0.005
'[11:06:23.125]',0.015
'[11:06:23.133]',0.005
'[11:06:23.141]',-0.005
'[11:06:23.148]',-0.005
'[11:06:23.156]',-0.025
'[11:06:23.164]',-0.005
'[11:06:23.172]',-0.015
'[11:06:23.180]',0.005
'[11:06:23.188]',-0.025
'[11:06:23.195]',-0.005
'[11:06:23.203]',-0.015
'[11:06:23.211]',-0.005
'[11:06:23.219]',-0.015
'[11:06:23.227]',-0.005
'[11:06:23.234]',-0.015
'[11:06:23.242]',0.005
'[11:06:23.250]',-0.015
'[11:06:23.258]',-0.025
'[11:06:23.266]',-0.015
'[11:06:23.273]',0.005
'[11:06:23.281]',0.015
'[11:06:23.289]',0.025
'[11:06:23.297]',0.035
'[11:06:23.305]',0.045
'[11:06:23.313]',0.065
'[11:06:23.320]',0.075
'[11:06:23.328]',0.075
'[11:06:23.336]',0.065
'[11:06:23.344]',0.035
'[11:06:23.352]',0.045
'[11:06:23.359]',0.015
'[11:06:23.367]',-0.025
'[11:06:23.375]',-0.055
'[11:06:23.383]',-0.045
'[11:06:23.391]',-0.045
'[11:06:23.398]',-0.045
'[11:06:23.406]',-0.045
'[11:06:23.414]',-0.045
'[11:06:23.422]',-0.055
'[11:06:23.430]',-0.035
'[11:06:23.438]',-0.025
'[11:06:23.445]',-0.005
'[11:06:23.453]',0.005
'[11:06:23.461]',0.015
'[11:06:23.469]',0.035
'[11:06:23.477]',0.245
'[11:06:23.484]',0.885
'[11:06:23.492]',1455
'[11:06:23.500]',1015
'[11:06:23.508]',0.015
'[11:06:23.516]',-0.495
'[11:06:23.523]',-0.205
'[11:06:23.531]',-0.025
'[11:06:23.539]',-0.055
'[11:06:23.547]',-0.065
'[11:06:23.555]',-0.075
'[11:06:23.563]',-0.065
'[11:06:23.570]',-0.065
'[11:06:23.578]',-0.065
'[11:06:23.586]',-0.075
'[11:06:23.594]',-0.065
'[11:06:23.602]',-0.065
'[11:06:23.609]',-0.065
'[11:06:23.617]',-0.055
'[11:06:23.625]',-0.065
'[11:06:23.633]',-0.075
'[11:06:23.641]',-0.055
'[11:06:23.648]',-0.075
'[11:06:23.656]',-0.075
'[11:06:23.664]',-0.075
'[11:06:23.672]',-0.085
'[11:06:23.680]',-0.065
'[11:06:23.688]',-0.085
'[11:06:23.695]',-0.085
'[11:06:23.703]',-0.105
'[11:06:23.711]',-0.095
'[11:06:23.719]',-0.105
'[11:06:23.727]',-0.095
'[11:06:23.734]',-0.125
'[11:06:23.742]',-0.105
'[11:06:23.750]',-0.115
'[11:06:23.758]',-0.095
'[11:06:23.766]',-0.065
'[11:06:23.773]',-0.045
'[11:06:23.781]',-0.035
'[11:06:23.789]',-0.015
'[11:06:23.797]',-0.005
'[11:06:23.805]',0.005
'[11:06:23.813]',-0.025
'[11:06:23.820]',-0.045
'[11:06:23.828]',-0.035
'[11:06:23.836]',-0.035
'[11:06:23.844]',-0.035
'[11:06:23.852]',-0.045
'[11:06:23.859]',-0.045
'[11:06:23.867]',-0.045
'[11:06:23.875]',-0.035
'[11:06:23.883]',-0.045
'[11:06:23.891]',-0.045
'[11:06:23.898]',-0.015
'[11:06:23.906]',-0.045
'[11:06:23.914]',-0.025
'[11:06:23.922]',-0.045
'[11:06:23.930]',-0.015
'[11:06:23.938]',-0.025
'[11:06:23.945]',-0.025
'[11:06:23.953]',-0.025
'[11:06:23.961]',-0.005
'[11:06:23.969]',-0.025
'[11:06:23.977]',-0.025
'[11:06:23.984]',-0.015
'[11:06:23.992]',-0.005
'[11:06:24.000]',-0.025
'[11:06:24.008]',-0.035
'[11:06:24.016]',-0.015
'[11:06:24.023]',-0.035
'[11:06:24.031]',-0.015
'[11:06:24.039]',-0.065
'[11:06:24.047]',-0.025
'[11:06:24.055]',-0.025
'[11:06:24.063]',-0.025
'[11:06:24.070]',-0.045
'[11:06:24.078]',-0.045
'[11:06:24.086]',-0.035
'[11:06:24.094]',-0.035
'[11:06:24.102]',-0.035
'[11:06:24.109]',-0.035
'[11:06:24.117]',0.005
'[11:06:24.125]',0.015
'[11:06:24.133]',0.015
'[11:06:24.141]',0.025
'[11:06:24.148]',0.025
'[11:06:24.156]',0.045
'[11:06:24.164]',0.045
'[11:06:24.172]',0.045
'[11:06:24.180]',0.035
'[11:06:24.188]',0.005
'[11:06:24.195]',-0.015
'[11:06:24.203]',-0.055
'[11:06:24.211]',-0.075
'[11:06:24.219]',-0.085
'[11:06:24.227]',-0.095
'[11:06:24.234]',-0.075
'[11:06:24.242]',-0.055
'[11:06:24.250]',-0.085
'[11:06:24.258]',-0.085
'[11:06:24.266]',-0.055
'[11:06:24.273]',-0.055
'[11:06:24.281]',-0.045
'[11:06:24.289]',-0.055
'[11:06:24.297]',-0.025
'[11:06:24.305]',0.025
'[11:06:24.313]',0.215
'[11:06:24.320]',0.795
'[11:06:24.328]',1305
'[11:06:24.336]',0.855
'[11:06:24.344]',-0.095
'[11:06:24.352]',-0.545
'[11:06:24.359]',-0.255
'[11:06:24.367]',-0.085
'[11:06:24.375]',-0.085
'[11:06:24.383]',-0.105
'[11:06:24.391]',-0.115
'[11:06:24.398]',-0.105
'[11:06:24.406]',-0.115
'[11:06:24.414]',-0.125
'[11:06:24.422]',-0.125
'[11:06:24.430]',-0.105
'[11:06:24.438]',-0.125
'[11:06:24.445]',-0.115
'[11:06:24.453]',-0.125
'[11:06:24.461]',-0.115
'[11:06:24.469]',-0.125
'[11:06:24.477]',-0.125
'[11:06:24.484]',-0.125
'[11:06:24.492]',-0.115
'[11:06:24.500]',-0.115
'[11:06:24.508]',-0.125
'[11:06:24.516]',-0.125
'[11:06:24.523]',-0.125
'[11:06:24.531]',-0.135
'[11:06:24.539]',-0.155
'[11:06:24.547]',-0.135
'[11:06:24.555]',-0.145
'[11:06:24.563]',-0.155
'[11:06:24.570]',-0.185
'[11:06:24.578]',-0.165
'[11:06:24.586]',-0.175
'[11:06:24.594]',-0.155
'[11:06:24.602]',-0.135
'[11:06:24.609]',-0.095
'[11:06:24.617]',-0.065
'[11:06:24.625]',-0.045
'[11:06:24.633]',-0.055
'[11:06:24.641]',-0.055
'[11:06:24.648]',-0.075
'[11:06:24.656]',-0.065
'[11:06:24.664]',-0.075
'[11:06:24.672]',-0.095
'[11:06:24.680]',-0.075
'[11:06:24.688]',-0.095
'[11:06:24.695]',-0.075
'[11:06:24.703]',-0.085
'[11:06:24.711]',-0.075
'[11:06:24.719]',-0.085
'[11:06:24.727]',-0.075
'[11:06:24.734]',-0.075
'[11:06:24.742]',-0.065
'[11:06:24.750]',-0.065
'[11:06:24.758]',-0.065
'[11:06:24.766]',-0.055
'[11:06:24.773]',-0.045
'[11:06:24.781]',-0.055
'[11:06:24.789]',-0.075
'[11:06:24.797]',-0.055
'[11:06:24.805]',-0.055
'[11:06:24.813]',-0.055
'[11:06:24.820]',-0.035
'[11:06:24.828]',-0.045
'[11:06:24.836]',-0.065
'[11:06:24.844]',-0.065
'[11:06:24.852]',-0.045
'[11:06:24.859]',-0.055
'[11:06:24.867]',-0.055
'[11:06:24.875]',-0.055
'[11:06:24.883]',-0.065
'[11:06:24.891]',-0.065
'[11:06:24.898]',-0.075
'[11:06:24.906]',-0.075
'[11:06:24.914]',-0.075
'[11:06:24.922]',-0.055
'[11:06:24.930]',-0.055
'[11:06:24.938]',-0.025
'[11:06:24.945]',-0.015
'[11:06:24.953]',-0.005
'[11:06:24.961]',-0.025
'[11:06:24.969]',0.015
'[11:06:24.977]',0.035
'[11:06:24.984]',0.035
'[11:06:24.992]',0.055
'[11:06:25.000]',0.005
'[11:06:25.008]',-0.015
'[11:06:25.016]',-0.015
'[11:06:25.023]',-0.075
'[11:06:25.031]',-0.085
'[11:06:25.039]',-0.105
'[11:06:25.047]',-0.095
'[11:06:25.055]',-0.095
'[11:06:25.063]',-0.095
'[11:06:25.070]',-0.095
'[11:06:25.078]',-0.095
'[11:06:25.086]',-0.095
'[11:06:25.094]',-0.085
'[11:06:25.102]',-0.055
'[11:06:25.109]',-0.065
'[11:06:25.117]',-0.055
'[11:06:25.125]',-0.025
'[11:06:25.133]',0.035
'[11:06:25.141]',0.285
'[11:06:25.148]',1065
'[11:06:25.156]',1445
'[11:06:25.164]',0.715
'[11:06:25.172]',-0.415
'[11:06:25.180]',-0.465
'[11:06:25.188]',-0.175
'[11:06:25.195]',-0.105
'[11:06:25.203]',-0.105
'[11:06:25.211]',-0.135
'[11:06:25.219]',-0.145
'[11:06:25.227]',-0.135
'[11:06:25.234]',-0.135
'[11:06:25.242]',-0.155
'[11:06:25.250]',-0.145
'[11:06:25.258]',-0.125
'[11:06:25.266]',-0.125
'[11:06:25.273]',-0.135
'[11:06:25.281]',-0.135
'[11:06:25.289]',-0.115
'[11:06:25.297]',-0.155
'[11:06:25.305]',-0.135
'[11:06:25.313]',-0.135
'[11:06:25.320]',-0.145
'[11:06:25.328]',-0.125
'[11:06:25.336]',-0.135
'[11:06:25.344]',-0.125
'[11:06:25.352]',-0.135
'[11:06:25.359]',-0.155
'[11:06:25.367]',-0.155
'[11:06:25.375]',-0.155
'[11:06:25.383]',-0.185
'[11:06:25.391]',-0.185
'[11:06:25.398]',-0.185
'[11:06:25.406]',-0.195
'[11:06:25.414]',-0.155
'[11:06:25.422]',-0.135
'[11:06:25.430]',-0.095
'[11:06:25.438]',-0.075
'[11:06:25.445]',-0.055
'[11:06:25.453]',-0.045
'[11:06:25.461]',-0.055
'[11:06:25.469]',-0.075
'[11:06:25.477]',-0.085
'[11:06:25.484]',-0.085
'[11:06:25.492]',-0.075
'[11:06:25.500]',-0.085
'[11:06:25.508]',-0.085
'[11:06:25.516]',-0.085
'[11:06:25.523]',-0.095
'[11:06:25.531]',-0.085
'[11:06:25.539]',-0.095
'[11:06:25.547]',-0.085
'[11:06:25.555]',-0.075
'[11:06:25.563]',-0.055
'[11:06:25.570]',-0.075
'[11:06:25.578]',-0.055
'[11:06:25.586]',-0.065
'[11:06:25.594]',-0.045
'[11:06:25.602]',-0.045
'[11:06:25.609]',-0.065
'[11:06:25.617]',-0.045
'[11:06:25.625]',-0.045
'[11:06:25.633]',-0.045
'[11:06:25.641]',-0.045
'[11:06:25.648]',-0.055
'[11:06:25.656]',-0.065
'[11:06:25.664]',-0.055
'[11:06:25.672]',-0.045
'[11:06:25.680]',-0.055
'[11:06:25.688]',-0.055
'[11:06:25.695]',-0.035
'[11:06:25.703]',-0.065
'[11:06:25.711]',-0.065
'[11:06:25.719]',-0.065
'[11:06:25.727]',-0.075
'[11:06:25.734]',-0.075
'[11:06:25.742]',-0.055
'[11:06:25.750]',-0.065
'[11:06:25.758]',-0.045
'[11:06:25.766]',-0.005
'[11:06:25.773]',0.005
'[11:06:25.781]',-0.005
'[11:06:25.789]',-0.005
'[11:06:25.797]',0.025
'[11:06:25.805]',0.045
'[11:06:25.813]',0.055
'[11:06:25.820]',0.045
'[11:06:25.828]',-0.005
'[11:06:25.836]',-0.035
'[11:06:25.844]',-0.075
'[11:06:25.852]',-0.085
'[11:06:25.859]',-0.125
'[11:06:25.867]',-0.105
'[11:06:25.875]',-0.095
'[11:06:25.883]',-0.115
'[11:06:25.891]',-0.105
'[11:06:25.898]',-0.105
'[11:06:25.906]',-0.105
'[11:06:25.914]',-0.105
'[11:06:25.922]',-0.075
'[11:06:25.930]',-0.075
'[11:06:25.938]',-0.045
'[11:06:25.945]',-0.035
'[11:06:25.953]',0.015
'[11:06:25.961]',0.275
'[11:06:25.969]',0.975
'[11:06:25.977]',1365
'[11:06:25.984]',0.685
'[11:06:25.992]',-0.365
'[11:06:26.000]',-0.465
'[11:06:26.008]',-0.185
'[11:06:26.016]',-0.095
'[11:06:26.023]',-0.135
'[11:06:26.031]',-0.135
'[11:06:26.039]',-0.145
'[11:06:26.047]',-0.155
'[11:06:26.055]',-0.135
'[11:06:26.063]',-0.125
'[11:06:26.070]',-0.145
'[11:06:26.078]',-0.145
'[11:06:26.086]',-0.155
'[11:06:26.094]',-0.135
'[11:06:26.102]',-0.135
'[11:06:26.109]',-0.145
'[11:06:26.117]',-0.125
'[11:06:26.125]',-0.145
'[11:06:26.133]',-0.145
'[11:06:26.141]',-0.135
'[11:06:26.148]',-0.135
'[11:06:26.156]',-0.135
'[11:06:26.164]',-0.155
'[11:06:26.172]',-0.155
'[11:06:26.180]',-0.115
'[11:06:26.188]',-0.175
'[11:06:26.195]',-0.145
'[11:06:26.203]',-0.175
'[11:06:26.211]',-0.185
'[11:06:26.219]',-0.175
'[11:06:26.227]',-0.175
'[11:06:26.234]',-0.145
'[11:06:26.242]',-0.125
'[11:06:26.250]',-0.085
'[11:06:26.258]',-0.075
'[11:06:26.266]',-0.065
'[11:06:26.273]',-0.055
'[11:06:26.281]',-0.075
'[11:06:26.289]',-0.075
'[11:06:26.297]',-0.095
'[11:06:26.305]',-0.095
'[11:06:26.313]',-0.115
'[11:06:26.320]',-0.105
'[11:06:26.328]',-0.095
'[11:06:26.336]',-0.105
'[11:06:26.344]',-0.125
'[11:06:26.352]',-0.095
'[11:06:26.359]',-0.075
'[11:06:26.367]',-0.095
'[11:06:26.375]',-0.095
'[11:06:26.383]',-0.095
'[11:06:26.391]',-0.075
'[11:06:26.398]',-0.085
'[11:06:26.406]',-0.085
'[11:06:26.414]',-0.085
'[11:06:26.422]',-0.095
'[11:06:26.430]',-0.045
'[11:06:26.438]',-0.055
'[11:06:26.445]',-0.075
'[11:06:26.453]',-0.075
'[11:06:26.461]',-0.065
'[11:06:26.469]',-0.075
'[11:06:26.477]',-0.085
'[11:06:26.484]',-0.065
'[11:06:26.492]',-0.065
'[11:06:26.500]',-0.075
'[11:06:26.508]',-0.085
'[11:06:26.516]',-0.085
'[11:06:26.523]',-0.085
'[11:06:26.531]',-0.095
'[11:06:26.539]',-0.085
'[11:06:26.547]',-0.075
'[11:06:26.555]',-0.075
'[11:06:26.563]',-0.085
'[11:06:26.570]',-0.095
'[11:06:26.578]',-0.075
'[11:06:26.586]',-0.085
'[11:06:26.594]',-0.095
'[11:06:26.602]',-0.095
'[11:06:26.609]',-0.065
'[11:06:26.617]',-0.035
'[11:06:26.625]',-0.035
'[11:06:26.633]',-0.035
'[11:06:26.641]',-0.015
'[11:06:26.648]',-0.005
'[11:06:26.656]',0.025
'[11:06:26.664]',0.015
'[11:06:26.672]',-0.005
'[11:06:26.680]',-0.015
'[11:06:26.688]',-0.045
'[11:06:26.695]',-0.065
'[11:06:26.703]',-0.105
'[11:06:26.711]',-0.115
'[11:06:26.719]',-0.125
'[11:06:26.727]',-0.125
'[11:06:26.734]',-0.135
'[11:06:26.742]',-0.125
'[11:06:26.750]',-0.105
'[11:06:26.758]',-0.115
'[11:06:26.766]',-0.095
'[11:06:26.773]',-0.095
'[11:06:26.781]',-0.085
'[11:06:26.789]',-0.085
'[11:06:26.797]',-0.035
'[11:06:26.805]',0.005
'[11:06:26.813]',0.275
'[11:06:26.820]',0.945
'[11:06:26.828]',1345
'[11:06:26.836]',0.605
'[11:06:26.844]',-0.335
'[11:06:26.852]',-0.505
'[11:06:26.859]',-0.205
'[11:06:26.867]',-0.105
'[11:06:26.875]',-0.135
'[11:06:26.883]',-0.145
'[11:06:26.891]',-0.155
'[11:06:26.898]',-0.155
'[11:06:26.906]',-0.155
'[11:06:26.914]',-0.145
'[11:06:26.922]',-0.155
'[11:06:26.930]',-0.145
'[11:06:26.938]',-0.155
'[11:06:26.945]',-0.155
'[11:06:26.953]',-0.135
'[11:06:26.961]',-0.145
'[11:06:26.969]',-0.155
'[11:06:26.977]',-0.155
'[11:06:26.984]',-0.155
'[11:06:26.992]',-0.125
'[11:06:27.000]',-0.135
'[11:06:27.008]',-0.135
'[11:06:27.016]',-0.145
'[11:06:27.023]',-0.155
'[11:06:27.031]',-0.165
'[11:06:27.039]',-0.175
'[11:06:27.047]',-0.175
'[11:06:27.055]',-0.175
'[11:06:27.063]',-0.175
'[11:06:27.070]',-0.205
'[11:06:27.078]',-0.185
'[11:06:27.086]',-0.165
'[11:06:27.094]',-0.155
'[11:06:27.102]',-0.125
'[11:06:27.109]',-0.105
'[11:06:27.117]',-0.085
'[11:06:27.125]',-0.065
'[11:06:27.133]',-0.055
'[11:06:27.141]',-0.085
'[11:06:27.148]',-0.075
'[11:06:27.156]',-0.085
'[11:06:27.164]',-0.085
'[11:06:27.172]',-0.085
'[11:06:27.180]',-0.085
'[11:06:27.188]',-0.105
'[11:06:27.195]',-0.095
'[11:06:27.203]',-0.105
'[11:06:27.211]',-0.085
'[11:06:27.219]',-0.095
'[11:06:27.227]',-0.085
'[11:06:27.234]',-0.085
'[11:06:27.242]',-0.095
'[11:06:27.250]',-0.075
'[11:06:27.258]',-0.065
'[11:06:27.266]',-0.085
'[11:06:27.273]',-0.075
'[11:06:27.281]',-0.065
'[11:06:27.289]',-0.075
'[11:06:27.297]',-0.065
'[11:06:27.305]',-0.055
'[11:06:27.313]',-0.055
'[11:06:27.320]',-0.055
'[11:06:27.328]',-0.065
'[11:06:27.336]',-0.075
'[11:06:27.344]',-0.075
'[11:06:27.352]',-0.085
'[11:06:27.359]',-0.065
'[11:06:27.367]',-0.065
'[11:06:27.375]',-0.085
'[11:06:27.383]',-0.085
'[11:06:27.391]',-0.075
'[11:06:27.398]',-0.085
'[11:06:27.406]',-0.085
'[11:06:27.414]',-0.085
'[11:06:27.422]',-0.095
'[11:06:27.430]',-0.075
'[11:06:27.438]',-0.065
'[11:06:27.445]',-0.055
'[11:06:27.453]',-0.035
'[11:06:27.461]',-0.025
'[11:06:27.469]',-0.015
'[11:06:27.477]',-0.015
'[11:06:27.484]',-0.005
'[11:06:27.492]',0.025
'[11:06:27.500]',0.025
'[11:06:27.508]',-0.015
'[11:06:27.516]',-0.025
'[11:06:27.523]',-0.075
'[11:06:27.531]',-0.095
'[11:06:27.539]',-0.125
'[11:06:27.547]',-0.115
'[11:06:27.555]',-0.115
'[11:06:27.563]',-0.125
'[11:06:27.570]',-0.135
'[11:06:27.578]',-0.105
'[11:06:27.586]',-0.095
'[11:06:27.594]',-0.115
'[11:06:27.602]',-0.105
'[11:06:27.609]',-0.075
'[11:06:27.617]',-0.075
'[11:06:27.625]',-0.055
'[11:06:27.633]',-0.035
'[11:06:27.641]',0.115
'[11:06:27.648]',0.685
'[11:06:27.656]',1305
'[11:06:27.664]',1075
'[11:06:27.672]',0.075
'[11:06:27.680]',-0.575
'[11:06:27.688]',-0.335
'[11:06:27.695]',-0.115
'[11:06:27.703]',-0.115
'[11:06:27.711]',-0.125
'[11:06:27.719]',-0.145
'[11:06:27.727]',-0.145
'[11:06:27.734]',-0.155
'[11:06:27.742]',-0.145
'[11:06:27.750]',-0.145
'[11:06:27.758]',-0.145
'[11:06:27.766]',-0.145
'[11:06:27.773]',-0.115
'[11:06:27.781]',-0.145
'[11:06:27.789]',-0.145
'[11:06:27.797]',-0.125
'[11:06:27.805]',-0.145
'[11:06:27.813]',-0.125
'[11:06:27.820]',-0.145
'[11:06:27.828]',-0.125
'[11:06:27.836]',-0.135
'[11:06:27.844]',-0.135
'[11:06:27.852]',-0.155
'[11:06:27.859]',-0.145
'[11:06:27.867]',-0.155
'[11:06:27.875]',-0.165
'[11:06:27.883]',-0.165
'[11:06:27.891]',-0.185
'[11:06:27.898]',-0.185
'[11:06:27.906]',-0.205
'[11:06:27.914]',-0.185
'[11:06:27.922]',-0.175
'[11:06:27.930]',-0.145
'[11:06:27.938]',-0.115
'[11:06:27.945]',-0.085
'[11:06:27.953]',-0.075
'[11:06:27.961]',-0.055
'[11:06:27.969]',-0.075
'[11:06:27.977]',-0.085
'[11:06:27.984]',-0.095
'[11:06:27.992]',-0.075
'[11:06:28.000]',-0.075
'[11:06:28.008]',-0.085
'[11:06:28.016]',-0.085
'[11:06:28.023]',-0.095
'[11:06:28.031]',-0.085
'[11:06:28.039]',-0.095
'[11:06:28.047]',-0.095
'[11:06:28.055]',-0.085
'[11:06:28.063]',-0.075
'[11:06:28.070]',-0.085
'[11:06:28.078]',-0.055
'[11:06:28.086]',-0.055
'[11:06:28.094]',-0.075
'[11:06:28.102]',-0.075
'[11:06:28.109]',-0.055
'[11:06:28.117]',-0.035
'[11:06:28.125]',-0.055
'[11:06:28.133]',-0.065
'[11:06:28.141]',-0.045
'[11:06:28.148]',-0.065
'[11:06:28.156]',-0.085
'[11:06:28.164]',-0.065
'[11:06:28.172]',-0.075
'[11:06:28.180]',-0.055
'[11:06:28.188]',-0.065
'[11:06:28.195]',-0.065
'[11:06:28.203]',-0.085
'[11:06:28.211]',-0.065
'[11:06:28.219]',-0.085
'[11:06:28.227]',-0.075
'[11:06:28.234]',-0.085
'[11:06:28.242]',-0.055
'[11:06:28.250]',-0.065
'[11:06:28.258]',-0.075
'[11:06:28.266]',-0.075
'[11:06:28.273]',-0.065
'[11:06:28.281]',-0.035
'[11:06:28.289]',-0.025
'[11:06:28.297]',-0.005
'[11:06:28.305]',0.015
'[11:06:28.313]',0.015
'[11:06:28.320]',0.005
'[11:06:28.328]',0.035
'[11:06:28.336]',0.055
'[11:06:28.344]',0.015
'[11:06:28.352]',-0.015
'[11:06:28.359]',-0.025
'[11:06:28.367]',-0.065
'[11:06:28.375]',-0.115
'[11:06:28.383]',-0.105
'[11:06:28.391]',-0.105
'[11:06:28.398]',-0.115
'[11:06:28.406]',-0.105
'[11:06:28.414]',-0.105
'[11:06:28.422]',-0.095
'[11:06:28.430]',-0.095
'[11:06:28.438]',-0.085
'[11:06:28.445]',-0.065
'[11:06:28.453]',-0.065
'[11:06:28.461]',-0.055
'[11:06:28.469]',-0.025
'[11:06:28.477]',0.135
'[11:06:28.484]',0.685
'[11:06:28.492]',1305
'[11:06:28.500]',0.965
'[11:06:28.508]',0.045
'[11:06:28.516]',-0.555
'[11:06:28.523]',-0.285
'[11:06:28.531]',-0.125
'[11:06:28.539]',-0.095
'[11:06:28.547]',-0.115
'[11:06:28.555]',-0.125
'[11:06:28.563]',-0.135
'[11:06:28.570]',-0.125
'[11:06:28.578]',-0.135
'[11:06:28.586]',-0.125
'[11:06:28.594]',-0.125
'[11:06:28.602]',-0.135
'[11:06:28.609]',-0.115
'[11:06:28.617]',-0.135
'[11:06:28.625]',-0.115
'[11:06:28.633]',-0.125
'[11:06:28.641]',-0.115
'[11:06:28.648]',-0.115
'[11:06:28.656]',-0.135
'[11:06:28.664]',-0.125
'[11:06:28.672]',-0.105
'[11:06:28.680]',-0.125
'[11:06:28.688]',-0.115
'[11:06:28.695]',-0.125
'[11:06:28.703]',-0.145
'[11:06:28.711]',-0.135
'[11:06:28.719]',-0.155
'[11:06:28.727]',-0.145
'[11:06:28.734]',-0.145
'[11:06:28.742]',-0.145
'[11:06:28.750]',-0.175
'[11:06:28.758]',-0.125
'[11:06:28.766]',-0.105
'[11:06:28.773]',-0.065
'[11:06:28.781]',-0.055
'[11:06:28.789]',-0.035
'[11:06:28.797]',-0.035
'[11:06:28.805]',-0.025
'[11:06:28.813]',-0.035
'[11:06:28.820]',-0.055
'[11:06:28.828]',-0.045
'[11:06:28.836]',-0.045
'[11:06:28.844]',-0.045
'[11:06:28.852]',-0.055
'[11:06:28.859]',-0.045
'[11:06:28.867]',-0.045
'[11:06:28.875]',-0.035
'[11:06:28.883]',-0.045
'[11:06:28.891]',-0.045
'[11:06:28.898]',-0.035
'[11:06:28.906]',-0.025
'[11:06:28.914]',-0.035
'[11:06:28.922]',-0.015
'[11:06:28.930]',-0.015
'[11:06:28.938]',-0.035
'[11:06:28.945]',-0.015
'[11:06:28.953]',-0.015
'[11:06:28.961]',-0.015
'[11:06:28.969]',-0.015
'[11:06:28.977]',-0.025
'[11:06:28.984]',-0.015
'[11:06:28.992]',0.005
'[11:06:29.000]',-0.015
'[11:06:29.008]',-0.015
'[11:06:29.016]',-0.015
'[11:06:29.023]',-0.015
'[11:06:29.031]',-0.015
'[11:06:29.039]',-0.025
'[11:06:29.047]',-0.035
'[11:06:29.055]',-0.015
'[11:06:29.063]',-0.005
'[11:06:29.070]',-0.025
'[11:06:29.078]',-0.015
'[11:06:29.086]',-0.035
'[11:06:29.094]',-0.025
'[11:06:29.102]',-0.025
'[11:06:29.109]',-0.025
'[11:06:29.117]',-0.015
'[11:06:29.125]',-0.025
'[11:06:29.133]',-0.025
'[11:06:29.141]',-0.005
'[11:06:29.148]',0.025
'[11:06:29.156]',0.025
'[11:06:29.164]',0.045
'[11:06:29.172]',0.065
'[11:06:29.180]',0.055
'[11:06:29.188]',0.075
'[11:06:29.195]',0.075
'[11:06:29.203]',0.035
'[11:06:29.211]',0.035
'[11:06:29.219]',0.005
'[11:06:29.227]',-0.015
'[11:06:29.234]',-0.045
'[11:06:29.242]',-0.045
'[11:06:29.250]',-0.055
'[11:06:29.258]',-0.055
'[11:06:29.266]',-0.065
'[11:06:29.273]',-0.055
'[11:06:29.281]',-0.055
'[11:06:29.289]',-0.045
'[11:06:29.297]',-0.035
'[11:06:29.305]',-0.025
'[11:06:29.313]',-0.005
'[11:06:29.320]',-0.015
'[11:06:29.328]',0.025
'[11:06:29.336]',0.145
'[11:06:29.344]',0.575
'[11:06:29.352]',1265
'[11:06:29.359]',1335
'[11:06:29.367]',0.435
'[11:06:29.375]',-0.495
'[11:06:29.383]',-0.335
'[11:06:29.391]',-0.095
'[11:06:29.398]',-0.065
'[11:06:29.406]',-0.075
'[11:06:29.414]',-0.105
'[11:06:29.422]',-0.105
'[11:06:29.430]',-0.095
'[11:06:29.438]',-0.085
'[11:06:29.445]',-0.085
'[11:06:29.453]',-0.115
'[11:06:29.461]',-0.095
'[11:06:29.469]',-0.105
'[11:06:29.477]',-0.085
'[11:06:29.484]',-0.095
'[11:06:29.492]',-0.095
'[11:06:29.500]',-0.085
'[11:06:29.508]',-0.075
'[11:06:29.516]',-0.125
'[11:06:29.523]',-0.105
'[11:06:29.531]',-0.095
'[11:06:29.539]',-0.105
'[11:06:29.547]',-0.085
'[11:06:29.555]',-0.105
'[11:06:29.563]',-0.115
'[11:06:29.570]',-0.135
'[11:06:29.578]',-0.115
'[11:06:29.586]',-0.145
'[11:06:29.594]',-0.135
'[11:06:29.602]',-0.165
'[11:06:29.609]',-0.155
'[11:06:29.617]',-0.125
'[11:06:29.625]',-0.125
'[11:06:29.633]',-0.105
'[11:06:29.641]',-0.055
'[11:06:29.648]',-0.045
'[11:06:29.656]',-0.055
'[11:06:29.664]',-0.035
'[11:06:29.672]',-0.035
'[11:06:29.680]',-0.025
'[11:06:29.688]',-0.035
'[11:06:29.695]',-0.055
'[11:06:29.703]',-0.055
'[11:06:29.711]',-0.055
'[11:06:29.719]',-0.045
'[11:06:29.727]',-0.055
'[11:06:29.734]',-0.065
'[11:06:29.742]',-0.035
'[11:06:29.750]',-0.055
'[11:06:29.758]',-0.045
'[11:06:29.766]',-0.025
'[11:06:29.773]',-0.025
'[11:06:29.781]',-0.025
'[11:06:29.789]',-0.025
'[11:06:29.797]',-0.025
'[11:06:29.805]',-0.005
'[11:06:29.813]',-0.015
'[11:06:29.820]',-0.015
'[11:06:29.828]',0.005
'[11:06:29.836]',-0.005
'[11:06:29.844]',-0.005
'[11:06:29.852]',-0.015
'[11:06:29.859]',-0.015
'[11:06:29.867]',0.005
'[11:06:29.875]',-0.005
'[11:06:29.883]',-0.015
'[11:06:29.891]',-0.015
'[11:06:29.898]',-0.015
'[11:06:29.906]',-0.005
'[11:06:29.914]',-0.015
'[11:06:29.922]',-0.025
'[11:06:29.930]',-0.005
'[11:06:29.938]',-0.035
'[11:06:29.945]',-0.015
'[11:06:29.953]',-0.005
'[11:06:29.961]',-0.005
'[11:06:29.969]',-0.005
'[11:06:29.977]',0.005
'[11:06:29.984]',0.045
'[11:06:29.992]',0.065
'[11:06:30.000]',0.055
'[11:06:30.008]',0.055
'[11:06:30.016]',0.075
'[11:06:30.023]',0.085
'[11:06:30.031]',0.095
'[11:06:30.039]',0.075
'[11:06:30.047]',0.045
'[11:06:30.055]',0.025
'[11:06:30.063]',-0.005
'[11:06:30.070]',-0.045
'[11:06:30.078]',-0.055
'[11:06:30.086]',-0.055
'[11:06:30.094]',-0.035
'[11:06:30.102]',-0.045
'[11:06:30.109]',-0.035
'[11:06:30.117]',-0.035
'[11:06:30.125]',-0.045
'[11:06:30.133]',-0.025
'[11:06:30.141]',-0.025
'[11:06:30.148]',-0.005
'[11:06:30.156]',0.005
'[11:06:30.164]',0.035
'[11:06:30.172]',0.165
'[11:06:30.180]',0.645
'[11:06:30.188]',1325
'[11:06:30.195]',1205
'[11:06:30.203]',0.225
'[11:06:30.211]',-0.465
'[11:06:30.219]',-0.265
'[11:06:30.227]',-0.075
'[11:06:30.234]',-0.045
'[11:06:30.242]',-0.075
'[11:06:30.250]',-0.095
'[11:06:30.258]',-0.085
'[11:06:30.266]',-0.095
'[11:06:30.273]',-0.085
'[11:06:30.281]',-0.085
'[11:06:30.289]',-0.095
'[11:06:30.297]',-0.085
'[11:06:30.305]',-0.075
'[11:06:30.313]',-0.085
'[11:06:30.320]',-0.095
'[11:06:30.328]',-0.085
'[11:06:30.336]',-0.085
'[11:06:30.344]',-0.085
'[11:06:30.352]',-0.105
'[11:06:30.359]',-0.095
'[11:06:30.367]',-0.085
'[11:06:30.375]',-0.065
'[11:06:30.383]',-0.085
'[11:06:30.391]',-0.105
'[11:06:30.398]',-0.125
'[11:06:30.406]',-0.115
'[11:06:30.414]',-0.125
'[11:06:30.422]',-0.135
'[11:06:30.430]',-0.135
'[11:06:30.438]',-0.155
'[11:06:30.445]',-0.165
'[11:06:30.453]',-0.145
'[11:06:30.461]',-0.115
'[11:06:30.469]',-0.095
'[11:06:30.477]',-0.055
'[11:06:30.484]',-0.035
'[11:06:30.492]',-0.025
'[11:06:30.500]',-0.045
'[11:06:30.508]',-0.045
'[11:06:30.516]',-0.065
'[11:06:30.523]',-0.055
'[11:06:30.531]',-0.065
'[11:06:30.539]',-0.065
'[11:06:30.547]',-0.075
'[11:06:30.555]',-0.065
'[11:06:30.563]',-0.065
'[11:06:30.570]',-0.065
'[11:06:30.578]',-0.075
'[11:06:30.586]',-0.075
'[11:06:30.594]',-0.055
'[11:06:30.602]',-0.055
'[11:06:30.609]',-0.045
'[11:06:30.617]',-0.035
'[11:06:30.625]',-0.035
'[11:06:30.633]',-0.045
'[11:06:30.641]',-0.045
'[11:06:30.648]',-0.045
'[11:06:30.656]',-0.045
'[11:06:30.664]',-0.025
'[11:06:30.672]',-0.025
'[11:06:30.680]',-0.035
'[11:06:30.688]',-0.045
'[11:06:30.695]',-0.035
'[11:06:30.703]',-0.035
'[11:06:30.711]',-0.035
'[11:06:30.719]',-0.055
'[11:06:30.727]',-0.035
'[11:06:30.734]',-0.045
'[11:06:30.742]',-0.035
'[11:06:30.750]',-0.055
'[11:06:30.758]',-0.035
'[11:06:30.766]',-0.045
'[11:06:30.773]',-0.045
'[11:06:30.781]',-0.055
'[11:06:30.789]',-0.035
'[11:06:30.797]',-0.035
'[11:06:30.805]',-0.045
'[11:06:30.813]',-0.045
'[11:06:30.820]',-0.045
'[11:06:30.828]',-0.045
'[11:06:30.836]',-0.025
'[11:06:30.844]',-0.005
'[11:06:30.852]',0.005
'[11:06:30.859]',0.025
'[11:06:30.867]',0.025
'[11:06:30.875]',0.035
'[11:06:30.883]',0.045
'[11:06:30.891]',0.035
'[11:06:30.898]',0.045
'[11:06:30.906]',0.015
'[11:06:30.914]',0.005
'[11:06:30.922]',-0.015
'[11:06:30.930]',-0.055
'[11:06:30.938]',-0.065
'[11:06:30.945]',-0.075
'[11:06:30.953]',-0.085
'[11:06:30.961]',-0.075
'[11:06:30.969]',-0.075
'[11:06:30.977]',-0.045
'[11:06:30.984]',-0.045
'[11:06:30.992]',-0.055
'[11:06:31.000]',-0.055
'[11:06:31.008]',-0.015
'[11:06:31.016]',-0.025
'[11:06:31.023]',-0.015
'[11:06:31.031]',0.035
'[11:06:31.039]',0.225
'[11:06:31.047]',0.815
'[11:06:31.055]',1365
'[11:06:31.063]',1045
'[11:06:31.070]',0.065
'[11:06:31.078]',-0.495
'[11:06:31.086]',-0.255
'[11:06:31.094]',-0.065
'[11:06:31.102]',-0.065
'[11:06:31.109]',-0.075
'[11:06:31.117]',-0.085
'[11:06:31.125]',-0.095
'[11:06:31.133]',-0.095
'[11:06:31.141]',-0.095
'[11:06:31.148]',-0.095
'[11:06:31.156]',-0.085
'[11:06:31.164]',-0.075
'[11:06:31.172]',-0.075
'[11:06:31.180]',-0.085
'[11:06:31.188]',-0.085
'[11:06:31.195]',-0.075
'[11:06:31.203]',-0.095
'[11:06:31.211]',-0.095
'[11:06:31.219]',-0.085
'[11:06:31.227]',-0.095
'[11:06:31.234]',-0.075
'[11:06:31.242]',-0.075
'[11:06:31.250]',-0.085
'[11:06:31.258]',-0.095
'[11:06:31.266]',-0.095
'[11:06:31.273]',-0.115
'[11:06:31.281]',-0.115
'[11:06:31.289]',-0.125
'[11:06:31.297]',-0.105
'[11:06:31.305]',-0.125
'[11:06:31.313]',-0.125
'[11:06:31.320]',-0.125
'[11:06:31.328]',-0.085
'[11:06:31.336]',-0.065
'[11:06:31.344]',-0.035
'[11:06:31.352]',-0.025
'[11:06:31.359]',-0.015
'[11:06:31.367]',-0.015
'[11:06:31.375]',-0.015
'[11:06:31.383]',-0.015
'[11:06:31.391]',-0.025
'[11:06:31.398]',-0.035
'[11:06:31.406]',-0.045
'[11:06:31.414]',-0.055
'[11:06:31.422]',-0.035
'[11:06:31.430]',-0.025
'[11:06:31.438]',-0.045
'[11:06:31.445]',-0.045
'[11:06:31.453]',-0.025
'[11:06:31.461]',-0.025
'[11:06:31.469]',-0.035
'[11:06:31.477]',-0.045
'[11:06:31.484]',-0.015
'[11:06:31.492]',-0.015
'[11:06:31.500]',-0.015
'[11:06:31.508]',-0.025
'[11:06:31.516]',-0.005
'[11:06:31.523]',-0.025
'[11:06:31.531]',-0.015
'[11:06:31.539]',-0.015
'[11:06:31.547]',-0.015
'[11:06:31.555]',0.005
'[11:06:31.563]',-0.015
'[11:06:31.570]',-0.015
'[11:06:31.578]',-0.015
'[11:06:31.586]',-0.015
'[11:06:31.594]',-0.005
'[11:06:31.602]',-0.025
'[11:06:31.609]',-0.025
'[11:06:31.617]',-0.005
'[11:06:31.625]',-0.015
'[11:06:31.633]',-0.025
'[11:06:31.641]',-0.025
'[11:06:31.648]',-0.025
'[11:06:31.656]',-0.035
'[11:06:31.664]',-0.025
'[11:06:31.672]',-0.025
'[11:06:31.680]',-0.015
'[11:06:31.688]',-0.025
'[11:06:31.695]',-0.025
'[11:06:31.703]',-0.025
'[11:06:31.711]',-0.015
'[11:06:31.719]',-0.015
'[11:06:31.727]',-0.005
'[11:06:31.734]',-0.005
'[11:06:31.742]',0.035
'[11:06:31.750]',0.035
'[11:06:31.758]',0.035
'[11:06:31.766]',0.055
'[11:06:31.773]',0.065
'[11:06:31.781]',0.075
'[11:06:31.789]',0.065
'[11:06:31.797]',0.035
'[11:06:31.805]',0.025
'[11:06:31.813]',0.015
'[11:06:31.820]',-0.055
'[11:06:31.828]',-0.035
'[11:06:31.836]',-0.075
'[11:06:31.844]',-0.055
'[11:06:31.852]',-0.075
'[11:06:31.859]',-0.035
'[11:06:31.867]',-0.055
'[11:06:31.875]',-0.065
'[11:06:31.883]',-0.065
'[11:06:31.891]',-0.045
'[11:06:31.898]',-0.035
'[11:06:31.906]',-0.025
'[11:06:31.914]',-0.015
'[11:06:31.922]',0.025
'[11:06:31.930]',0.185
'[11:06:31.938]',0.705
'[11:06:31.945]',1325
'[11:06:31.953]',1115
'[11:06:31.961]',0.195
'[11:06:31.969]',-0.495
'[11:06:31.977]',-0.285
'[11:06:31.984]',-0.075
'[11:06:31.992]',-0.075
'[11:06:32.000]',-0.105
'[11:06:32.008]',-0.125
'[11:06:32.016]',-0.105
'[11:06:32.023]',-0.095
'[11:06:32.031]',-0.085
'[11:06:32.039]',-0.125
'[11:06:32.047]',-0.095
'[11:06:32.055]',-0.095
'[11:06:32.063]',-0.095
'[11:06:32.070]',-0.115
'[11:06:32.078]',-0.085
'[11:06:32.086]',-0.095
'[11:06:32.094]',-0.075
'[11:06:32.102]',-0.105
'[11:06:32.109]',-0.085
'[11:06:32.117]',-0.095
'[11:06:32.125]',-0.105
'[11:06:32.133]',-0.095
'[11:06:32.141]',-0.075
'[11:06:32.148]',-0.085
'[11:06:32.156]',-0.105
'[11:06:32.164]',-0.105
'[11:06:32.172]',-0.095
'[11:06:32.180]',-0.105
'[11:06:32.188]',-0.115
'[11:06:32.195]',-0.115
'[11:06:32.203]',-0.135
'[11:06:32.211]',-0.115
'[11:06:32.219]',-0.095
'[11:06:32.227]',-0.055
'[11:06:32.234]',-0.025
'[11:06:32.242]',-0.015
'[11:06:32.250]',-0.015
'[11:06:32.258]',-0.025
'[11:06:32.266]',-0.025
'[11:06:32.273]',-0.025
'[11:06:32.281]',-0.025
'[11:06:32.289]',-0.055
'[11:06:32.297]',-0.025
'[11:06:32.305]',-0.035
'[11:06:32.313]',-0.035
'[11:06:32.320]',-0.055
'[11:06:32.328]',-0.025
'[11:06:32.336]',-0.065
'[11:06:32.344]',-0.065
'[11:06:32.352]',-0.055
'[11:06:32.359]',-0.015
'[11:06:32.367]',-0.025
'[11:06:32.375]',-0.025
'[11:06:32.383]',-0.035
'[11:06:32.391]',-0.035
'[11:06:32.398]',-0.015
'[11:06:32.406]',-0.025
'[11:06:32.414]',-0.035
'[11:06:32.422]',-0.035
'[11:06:32.430]',-0.015
'[11:06:32.438]',-0.035
'[11:06:32.445]',-0.045
'[11:06:32.453]',-0.055
'[11:06:32.461]',-0.035
'[11:06:32.469]',-0.055
'[11:06:32.477]',-0.025
'[11:06:32.484]',-0.015
'[11:06:32.492]',-0.035
'[11:06:32.500]',-0.045
'[11:06:32.508]',-0.055
'[11:06:32.516]',-0.055
'[11:06:32.523]',-0.045
'[11:06:32.531]',-0.045
'[11:06:32.539]',-0.055
'[11:06:32.547]',-0.045
'[11:06:32.555]',-0.025
'[11:06:32.563]',-0.025
'[11:06:32.570]',-0.065
'[11:06:32.578]',-0.055
'[11:06:32.586]',-0.025
'[11:06:32.594]',0.015
'[11:06:32.602]',-0.005
'[11:06:32.609]',0.005
'[11:06:32.617]',0.015
'[11:06:32.625]',0.035
'[11:06:32.633]',0.025
'[11:06:32.641]',0.025
'[11:06:32.648]',0.005
'[11:06:32.656]',-0.005
'[11:06:32.664]',-0.015
'[11:06:32.672]',-0.055
'[11:06:32.680]',-0.085
'[11:06:32.688]',-0.105
'[11:06:32.695]',-0.095
'[11:06:32.703]',-0.115
'[11:06:32.711]',-0.085
'[11:06:32.719]',-0.095
'[11:06:32.727]',-0.105
'[11:06:32.734]',-0.095
'[11:06:32.742]',-0.075
'[11:06:32.750]',-0.075
'[11:06:32.758]',-0.055
'[11:06:32.766]',-0.075
'[11:06:32.773]',-0.015
'[11:06:32.781]',0.095
'[11:06:32.789]',0.595
'[11:06:32.797]',1265
'[11:06:32.805]',1165
'[11:06:32.813]',0.165
'[11:06:32.820]',-0.535
'[11:06:32.828]',-0.335
'[11:06:32.836]',-0.125
'[11:06:32.844]',-0.105
'[11:06:32.852]',-0.145
'[11:06:32.859]',-0.145
'[11:06:32.867]',-0.155
'[11:06:32.875]',-0.145
'[11:06:32.883]',-0.155
'[11:06:32.891]',-0.155
'[11:06:32.898]',-0.165
'[11:06:32.906]',-0.155
'[11:06:32.914]',-0.165
'[11:06:32.922]',-0.145
'[11:06:32.930]',-0.155
'[11:06:32.938]',-0.165
'[11:06:32.945]',-0.155
'[11:06:32.953]',-0.175
'[11:06:32.961]',-0.155
'[11:06:32.969]',-0.165
'[11:06:32.977]',-0.175
'[11:06:32.984]',-0.135
'[11:06:32.992]',-0.165
'[11:06:33.000]',-0.175
'[11:06:33.008]',-0.185
'[11:06:33.016]',-0.195
'[11:06:33.023]',-0.195
'[11:06:33.031]',-0.205
'[11:06:33.039]',-0.225
'[11:06:33.047]',-0.215
'[11:06:33.055]',-0.235
'[11:06:33.063]',-0.225
'[11:06:33.070]',-0.195
'[11:06:33.078]',-0.155
'[11:06:33.086]',-0.135
'[11:06:33.094]',-0.125
'[11:06:33.102]',-0.105
'[11:06:33.109]',-0.105
'[11:06:33.117]',-0.115
'[11:06:33.125]',-0.135
'[11:06:33.133]',-0.125
'[11:06:33.141]',-0.125
'[11:06:33.148]',-0.145
'[11:06:33.156]',-0.135
'[11:06:33.164]',-0.155
'[11:06:33.172]',-0.155
'[11:06:33.180]',-0.135
'[11:06:33.188]',-0.125
'[11:06:33.195]',-0.145
'[11:06:33.203]',-0.155
'[11:06:33.211]',-0.115
'[11:06:33.219]',-0.125
'[11:06:33.227]',-0.115
'[11:06:33.234]',-0.105
'[11:06:33.242]',-0.105
'[11:06:33.250]',-0.125
'[11:06:33.258]',-0.115
'[11:06:33.266]',-0.115
'[11:06:33.273]',-0.115
'[11:06:33.281]',-0.105
'[11:06:33.289]',-0.125
'[11:06:33.297]',-0.125
'[11:06:33.305]',-0.105
'[11:06:33.313]',-0.105
'[11:06:33.320]',-0.125
'[11:06:33.328]',-0.125
'[11:06:33.336]',-0.125
'[11:06:33.344]',-0.135
'[11:06:33.352]',-0.135
'[11:06:33.359]',-0.125
'[11:06:33.367]',-0.115
'[11:06:33.375]',-0.125
'[11:06:33.383]',-0.135
'[11:06:33.391]',-0.135
'[11:06:33.398]',-0.125
'[11:06:33.406]',-0.135
'[11:06:33.414]',-0.125
'[11:06:33.422]',-0.125
'[11:06:33.430]',-0.095
'[11:06:33.438]',-0.085
'[11:06:33.445]',-0.065
'[11:06:33.453]',-0.085
'[11:06:33.461]',-0.075
'[11:06:33.469]',-0.045
'[11:06:33.477]',-0.045
'[11:06:33.484]',-0.045
'[11:06:33.492]',-0.065
'[11:06:33.500]',-0.105
'[11:06:33.508]',-0.105
'[11:06:33.516]',-0.145
'[11:06:33.523]',-0.155
'[11:06:33.531]',-0.165
'[11:06:33.539]',-0.175
'[11:06:33.547]',-0.155
'[11:06:33.555]',-0.155
'[11:06:33.563]',-0.135
'[11:06:33.570]',-0.155
'[11:06:33.578]',-0.165
'[11:06:33.586]',-0.135
'[11:06:33.594]',-0.125
'[11:06:33.602]',-0.105
'[11:06:33.609]',-0.085
'[11:06:33.617]',-0.035
'[11:06:33.625]',0.295
'[11:06:33.633]',0.995
'[11:06:33.641]',1425
'[11:06:33.648]',0.735
'[11:06:33.656]',-0.305
'[11:06:33.664]',-0.625
'[11:06:33.672]',-0.305
'[11:06:33.680]',-0.135
'[11:06:33.688]',-0.165
'[11:06:33.695]',-0.175
'[11:06:33.703]',-0.175
'[11:06:33.711]',-0.175
'[11:06:33.719]',-0.185
'[11:06:33.727]',-0.195
'[11:06:33.734]',-0.185
'[11:06:33.742]',-0.185
'[11:06:33.750]',-0.175
'[11:06:33.758]',-0.195
'[11:06:33.766]',-0.155
'[11:06:33.773]',-0.175
'[11:06:33.781]',-0.175
'[11:06:33.789]',-0.185
'[11:06:33.797]',-0.195
'[11:06:33.805]',-0.175
'[11:06:33.813]',-0.175
'[11:06:33.820]',-0.185
'[11:06:33.828]',-0.185
'[11:06:33.836]',-0.185
'[11:06:33.844]',-0.195
'[11:06:33.852]',-0.215
'[11:06:33.859]',-0.215
'[11:06:33.867]',-0.215
'[11:06:33.875]',-0.225
'[11:06:33.883]',-0.235
'[11:06:33.891]',-0.245
'[11:06:33.898]',-0.235
'[11:06:33.906]',-0.225
'[11:06:33.914]',-0.195
'[11:06:33.922]',-0.165
'[11:06:33.930]',-0.125
'[11:06:33.938]',-0.115
'[11:06:33.945]',-0.105
'[11:06:33.953]',-0.115
'[11:06:33.961]',-0.115
'[11:06:33.969]',-0.125
'[11:06:33.977]',-0.145
'[11:06:33.984]',-0.135
'[11:06:33.992]',-0.105
'[11:06:34.000]',-0.125
'[11:06:34.008]',-0.145
'[11:06:34.016]',-0.125
'[11:06:34.023]',-0.135
'[11:06:34.031]',-0.125
'[11:06:34.039]',-0.135
'[11:06:34.047]',-0.125
'[11:06:34.055]',-0.105
'[11:06:34.063]',-0.095
'[11:06:34.070]',-0.115
'[11:06:34.078]',-0.095
'[11:06:34.086]',-0.095
'[11:06:34.094]',-0.095
'[11:06:34.102]',-0.105
'[11:06:34.109]',-0.105
'[11:06:34.117]',-0.095
'[11:06:34.125]',-0.085
'[11:06:34.133]',-0.105
'[11:06:34.141]',-0.105
'[11:06:34.148]',-0.105
'[11:06:34.156]',-0.095
'[11:06:34.164]',-0.095
'[11:06:34.172]',-0.115
'[11:06:34.180]',-0.085
'[11:06:34.188]',-0.095
'[11:06:34.195]',-0.095
'[11:06:34.203]',-0.105
'[11:06:34.211]',-0.095
'[11:06:34.219]',-0.115
'[11:06:34.227]',-0.095
'[11:06:34.234]',-0.075
'[11:06:34.242]',-0.055
'[11:06:34.250]',-0.055
'[11:06:34.258]',-0.035
'[11:06:34.266]',-0.045
'[11:06:34.273]',-0.005
'[11:06:34.281]',0.005
'[11:06:34.289]',0.005
'[11:06:34.297]',-0.005
'[11:06:34.305]',-0.035
'[11:06:34.313]',-0.045
'[11:06:34.320]',-0.085
'[11:06:34.328]',-0.125
'[11:06:34.336]',-0.145
'[11:06:34.344]',-0.135
'[11:06:34.352]',-0.135
'[11:06:34.359]',-0.115
'[11:06:34.367]',-0.135
'[11:06:34.375]',-0.125
'[11:06:34.383]',-0.115
'[11:06:34.391]',-0.115
'[11:06:34.398]',-0.095
'[11:06:34.406]',-0.085
'[11:06:34.414]',-0.075
'[11:06:34.422]',-0.035
'[11:06:34.430]',0.085
'[11:06:34.438]',0.485
'[11:06:34.445]',1215
'[11:06:34.453]',1325
'[11:06:34.461]',0.495
'[11:06:34.469]',-0.465
'[11:06:34.477]',-0.455
'[11:06:34.484]',-0.185
'[11:06:34.492]',-0.105
'[11:06:34.500]',-0.135
'[11:06:34.508]',-0.155
'[11:06:34.516]',-0.165
'[11:06:34.523]',-0.145
'[11:06:34.531]',-0.155
'[11:06:34.539]',-0.155
'[11:06:34.547]',-0.165
'[11:06:34.555]',-0.155
'[11:06:34.563]',-0.135
'[11:06:34.570]',-0.155
'[11:06:34.578]',-0.145
'[11:06:34.586]',-0.155
'[11:06:34.594]',-0.135
'[11:06:34.602]',-0.165
'[11:06:34.609]',-0.135
'[11:06:34.617]',-0.135
'[11:06:34.625]',-0.155
'[11:06:34.633]',-0.155
'[11:06:34.641]',-0.145
'[11:06:34.648]',-0.165
'[11:06:34.656]',-0.175
'[11:06:34.664]',-0.165
'[11:06:34.672]',-0.165
'[11:06:34.680]',-0.175
'[11:06:34.688]',-0.185
'[11:06:34.695]',-0.185
'[11:06:34.703]',-0.205
'[11:06:34.711]',-0.175
'[11:06:34.719]',-0.155
'[11:06:34.727]',-0.115
'[11:06:34.734]',-0.095
'[11:06:34.742]',-0.085
'[11:06:34.750]',-0.085
'[11:06:34.758]',-0.075
'[11:06:34.766]',-0.095
'[11:06:34.773]',-0.085
'[11:06:34.781]',-0.105
'[11:06:34.789]',-0.105
'[11:06:34.797]',-0.085
'[11:06:34.805]',-0.105
'[11:06:34.813]',-0.115
'[11:06:34.820]',-0.095
'[11:06:34.828]',-0.115
'[11:06:34.836]',-0.115
'[11:06:34.844]',-0.095
'[11:06:34.852]',-0.085
'[11:06:34.859]',-0.085
'[11:06:34.867]',-0.095
'[11:06:34.875]',-0.085
'[11:06:34.883]',-0.075
'[11:06:34.891]',-0.075
'[11:06:34.898]',-0.075
'[11:06:34.906]',-0.065
'[11:06:34.914]',-0.075
'[11:06:34.922]',-0.065
'[11:06:34.930]',-0.065
'[11:06:34.938]',-0.075
'[11:06:34.945]',-0.055
'[11:06:34.953]',-0.085
'[11:06:34.961]',-0.075
'[11:06:34.969]',-0.085
'[11:06:34.977]',-0.055
'[11:06:34.984]',-0.065
'[11:06:34.992]',-0.075
'[11:06:35.000]',-0.075
'[11:06:35.008]',-0.065
'[11:06:35.016]',-0.085
'[11:06:35.023]',-0.085
'[11:06:35.031]',-0.085
'[11:06:35.039]',-0.085
'[11:06:35.047]',-0.065
'[11:06:35.055]',-0.075
'[11:06:35.063]',-0.065
'[11:06:35.070]',-0.045
'[11:06:35.078]',-0.025
'[11:06:35.086]',-0.015
'[11:06:35.094]',-0.005
'[11:06:35.102]',-0.015
'[11:06:35.109]',0.015
'[11:06:35.117]',0.045
'[11:06:35.125]',0.045
'[11:06:35.133]',-0.005
'[11:06:35.141]',-0.035
'[11:06:35.148]',-0.045
'[11:06:35.156]',-0.075
'[11:06:35.164]',-0.095
'[11:06:35.172]',-0.115
'[11:06:35.180]',-0.105
'[11:06:35.188]',-0.105
'[11:06:35.195]',-0.125
'[11:06:35.203]',-0.105
'[11:06:35.211]',-0.125
'[11:06:35.219]',-0.115
'[11:06:35.227]',-0.095
'[11:06:35.234]',-0.075
'[11:06:35.242]',-0.055
'[11:06:35.250]',-0.055
'[11:06:35.258]',-0.035
'[11:06:35.266]',0.055
'[11:06:35.273]',0.335
'[11:06:35.281]',1025
'[11:06:35.289]',1385
'[11:06:35.297]',0.665
'[11:06:35.305]',-0.305
'[11:06:35.313]',-0.465
'[11:06:35.320]',-0.215
'[11:06:35.328]',-0.105
'[11:06:35.336]',-0.115
'[11:06:35.344]',-0.145
'[11:06:35.352]',-0.145
'[11:06:35.359]',-0.165
'[11:06:35.367]',-0.135
'[11:06:35.375]',-0.145
'[11:06:35.383]',-0.135
'[11:06:35.391]',-0.145
'[11:06:35.398]',-0.145
'[11:06:35.406]',-0.135
'[11:06:35.414]',-0.145
'[11:06:35.422]',-0.145
'[11:06:35.430]',-0.135
'[11:06:35.438]',-0.125
'[11:06:35.445]',-0.125
'[11:06:35.453]',-0.145
'[11:06:35.461]',-0.155
'[11:06:35.469]',-0.125
'[11:06:35.477]',-0.145
'[11:06:35.484]',-0.145
'[11:06:35.492]',-0.145
'[11:06:35.500]',-0.155
'[11:06:35.508]',-0.165
'[11:06:35.516]',-0.155
'[11:06:35.523]',-0.195
'[11:06:35.531]',-0.175
'[11:06:35.539]',-0.195
'[11:06:35.547]',-0.165
'[11:06:35.555]',-0.115
'[11:06:35.563]',-0.125
'[11:06:35.570]',-0.095
'[11:06:35.578]',-0.055
'[11:06:35.586]',-0.065
'[11:06:35.594]',-0.065
'[11:06:35.602]',-0.075
'[11:06:35.609]',-0.075
'[11:06:35.617]',-0.085
'[11:06:35.625]',-0.095
'[11:06:35.633]',-0.085
'[11:06:35.641]',-0.115
'[11:06:35.648]',-0.105
'[11:06:35.656]',-0.105
'[11:06:35.664]',-0.095
'[11:06:35.672]',-0.105
'[11:06:35.680]',-0.095
'[11:06:35.688]',-0.105
'[11:06:35.695]',-0.085
'[11:06:35.703]',-0.085
'[11:06:35.711]',-0.075
'[11:06:35.719]',-0.095
'[11:06:35.727]',-0.065
'[11:06:35.734]',-0.065
'[11:06:35.742]',-0.055
'[11:06:35.750]',-0.065
'[11:06:35.758]',-0.065
'[11:06:35.766]',-0.085
'[11:06:35.773]',-0.075
'[11:06:35.781]',-0.075
'[11:06:35.789]',-0.075
'[11:06:35.797]',-0.065
'[11:06:35.805]',-0.075
'[11:06:35.813]',-0.085
'[11:06:35.820]',-0.075
'[11:06:35.828]',-0.095
'[11:06:35.836]',-0.075
'[11:06:35.844]',-0.085
'[11:06:35.852]',-0.095
'[11:06:35.859]',-0.075
'[11:06:35.867]',-0.085
'[11:06:35.875]',-0.085
'[11:06:35.883]',-0.085
'[11:06:35.891]',-0.095
'[11:06:35.898]',-0.095
'[11:06:35.906]',-0.095
'[11:06:35.914]',-0.075
'[11:06:35.922]',-0.035
'[11:06:35.930]',-0.025
'[11:06:35.938]',-0.035
'[11:06:35.945]',-0.015
'[11:06:35.953]',-0.025
'[11:06:35.961]',0.015
'[11:06:35.969]',0.015
'[11:06:35.977]',-0.015
'[11:06:35.984]',-0.035
'[11:06:35.992]',-0.025
'[11:06:36.000]',-0.095
'[11:06:36.008]',-0.105
'[11:06:36.016]',-0.145
'[11:06:36.023]',-0.145
'[11:06:36.031]',-0.135
'[11:06:36.039]',-0.125
'[11:06:36.047]',-0.125
'[11:06:36.055]',-0.125
'[11:06:36.063]',-0.125
'[11:06:36.070]',-0.105
'[11:06:36.078]',-0.115
'[11:06:36.086]',-0.115
'[11:06:36.094]',-0.075
'[11:06:36.102]',-0.065
'[11:06:36.109]',0.005
'[11:06:36.117]',0.285
'[11:06:36.125]',0.945
'[11:06:36.133]',1375
'[11:06:36.141]',0.765
'[11:06:36.148]',-0.215
'[11:06:36.156]',-0.595
'[11:06:36.164]',-0.295
'[11:06:36.172]',-0.145
'[11:06:36.180]',-0.115
'[11:06:36.188]',-0.135
'[11:06:36.195]',-0.165
'[11:06:36.203]',-0.165
'[11:06:36.211]',-0.155
'[11:06:36.219]',-0.175
'[11:06:36.227]',-0.155
'[11:06:36.234]',-0.195
'[11:06:36.242]',-0.135
'[11:06:36.250]',-0.145
'[11:06:36.258]',-0.125
'[11:06:36.266]',-0.135
'[11:06:36.273]',-0.135
'[11:06:36.281]',-0.155
'[11:06:36.289]',-0.145
'[11:06:36.297]',-0.135
'[11:06:36.305]',-0.125
'[11:06:36.313]',-0.135
'[11:06:36.320]',-0.145
'[11:06:36.328]',-0.135
'[11:06:36.336]',-0.165
'[11:06:36.344]',-0.145
'[11:06:36.352]',-0.165
'[11:06:36.359]',-0.155
'[11:06:36.367]',-0.155
'[11:06:36.375]',-0.175
'[11:06:36.383]',-0.185
'[11:06:36.391]',-0.175
'[11:06:36.398]',-0.145
'[11:06:36.406]',-0.115
'[11:06:36.414]',-0.105
'[11:06:36.422]',-0.065
'[11:06:36.430]',-0.045
'[11:06:36.438]',-0.075
'[11:06:36.445]',-0.075
'[11:06:36.453]',-0.095
'[11:06:36.461]',-0.065
'[11:06:36.469]',-0.085
'[11:06:36.477]',-0.085
'[11:06:36.484]',-0.075
'[11:06:36.492]',-0.075
'[11:06:36.500]',-0.075
'[11:06:36.508]',-0.105
'[11:06:36.516]',-0.095
'[11:06:36.523]',-0.075
'[11:06:36.531]',-0.075
'[11:06:36.539]',-0.075
'[11:06:36.547]',-0.085
'[11:06:36.555]',-0.055
'[11:06:36.563]',-0.045
'[11:06:36.570]',-0.065
'[11:06:36.578]',-0.055
'[11:06:36.586]',-0.065
'[11:06:36.594]',-0.055
'[11:06:36.602]',-0.055
'[11:06:36.609]',-0.035
'[11:06:36.617]',-0.055
'[11:06:36.625]',-0.055
'[11:06:36.633]',-0.045
'[11:06:36.641]',-0.055
'[11:06:36.648]',-0.065
'[11:06:36.656]',-0.065
'[11:06:36.664]',-0.045
'[11:06:36.672]',-0.055
'[11:06:36.680]',-0.045
'[11:06:36.688]',-0.055
'[11:06:36.695]',-0.065
'[11:06:36.703]',-0.055
'[11:06:36.711]',-0.035
'[11:06:36.719]',-0.055
'[11:06:36.727]',-0.055
'[11:06:36.734]',-0.055
'[11:06:36.742]',-0.035
'[11:06:36.750]',-0.055
'[11:06:36.758]',-0.045
'[11:06:36.766]',-0.025
'[11:06:36.773]',0.015
'[11:06:36.781]',0.015
'[11:06:36.789]',0.025
'[11:06:36.797]',0.035
'[11:06:36.805]',0.055
'[11:06:36.813]',0.045
'[11:06:36.820]',0.045
'[11:06:36.828]',0.015
'[11:06:36.836]',0.005
'[11:06:36.844]',-0.015
'[11:06:36.852]',-0.075
'[11:06:36.859]',-0.055
'[11:06:36.867]',-0.075
'[11:06:36.875]',-0.075
'[11:06:36.883]',-0.075
'[11:06:36.891]',-0.085
'[11:06:36.898]',-0.075
'[11:06:36.906]',-0.055
'[11:06:36.914]',-0.065
'[11:06:36.922]',-0.045
'[11:06:36.930]',-0.035
'[11:06:36.938]',-0.035
'[11:06:36.945]',-0.015
'[11:06:36.953]',0.015
'[11:06:36.961]',0.205
'[11:06:36.969]',0.735
'[11:06:36.977]',1335
'[11:06:36.984]',1025
'[11:06:36.992]',0.095
'[11:06:37.000]',-0.475
'[11:06:37.008]',-0.255
'[11:06:37.016]',-0.085
'[11:06:37.023]',-0.075
'[11:06:37.031]',-0.095
'[11:06:37.039]',-0.105
'[11:06:37.047]',-0.085
'[11:06:37.055]',-0.095
'[11:06:37.063]',-0.105
'[11:06:37.070]',-0.095
'[11:06:37.078]',-0.105
'[11:06:37.086]',-0.105
'[11:06:37.094]',-0.085
'[11:06:37.102]',-0.085
'[11:06:37.109]',-0.075
'[11:06:37.117]',-0.105
'[11:06:37.125]',-0.095
'[11:06:37.133]',-0.095
'[11:06:37.141]',-0.095
'[11:06:37.148]',-0.095
'[11:06:37.156]',-0.095
'[11:06:37.164]',-0.085
'[11:06:37.172]',-0.095
'[11:06:37.180]',-0.095
'[11:06:37.188]',-0.105
'[11:06:37.195]',-0.105
'[11:06:37.203]',-0.125
'[11:06:37.211]',-0.125
'[11:06:37.219]',-0.135
'[11:06:37.227]',-0.135
'[11:06:37.234]',-0.115
'[11:06:37.242]',-0.095
'[11:06:37.250]',-0.085
'[11:06:37.258]',-0.075
'[11:06:37.266]',-0.045
'[11:06:37.273]',-0.015
'[11:06:37.281]',-0.025
'[11:06:37.289]',-0.045
'[11:06:37.297]',-0.025
'[11:06:37.305]',-0.025
'[11:06:37.313]',-0.045
'[11:06:37.320]',-0.065
'[11:06:37.328]',-0.065
'[11:06:37.336]',-0.045
'[11:06:37.344]',-0.045
'[11:06:37.352]',-0.055
'[11:06:37.359]',-0.045
'[11:06:37.367]',-0.045
'[11:06:37.375]',-0.055
'[11:06:37.383]',-0.045
'[11:06:37.391]',-0.045
'[11:06:37.398]',-0.055
'[11:06:37.406]',-0.045
'[11:06:37.414]',-0.025
'[11:06:37.422]',-0.015
'[11:06:37.430]',-0.025
'[11:06:37.438]',-0.025
'[11:06:37.445]',-0.045
'[11:06:37.453]',-0.025
'[11:06:37.461]',-0.005
'[11:06:37.469]',-0.015
'[11:06:37.477]',-0.015
'[11:06:37.484]',-0.025
'[11:06:37.492]',-0.025
'[11:06:37.500]',-0.025
'[11:06:37.508]',-0.025
'[11:06:37.516]',-0.035
'[11:06:37.523]',-0.015
'[11:06:37.531]',-0.035
'[11:06:37.539]',-0.025
'[11:06:37.547]',-0.025
'[11:06:37.555]',-0.015
'[11:06:37.563]',-0.035
'[11:06:37.570]',-0.015
'[11:06:37.578]',-0.025
'[11:06:37.586]',-0.015
'[11:06:37.594]',-0.015
'[11:06:37.602]',-0.025
'[11:06:37.609]',-0.005
'[11:06:37.617]',0.015
'[11:06:37.625]',0.025
'[11:06:37.633]',0.025
'[11:06:37.641]',0.035
'[11:06:37.648]',0.045
'[11:06:37.656]',0.075
'[11:06:37.664]',0.065
'[11:06:37.672]',0.085
'[11:06:37.680]',0.065
'[11:06:37.688]',0.025
'[11:06:37.695]',0.005
'[11:06:37.703]',-0.025
'[11:06:37.711]',-0.025
'[11:06:37.719]',-0.045
'[11:06:37.727]',-0.045
'[11:06:37.734]',-0.045
'[11:06:37.742]',-0.035
'[11:06:37.750]',-0.045
'[11:06:37.758]',-0.035
'[11:06:37.766]',-0.035
'[11:06:37.773]',-0.015
'[11:06:37.781]',-0.005
'[11:06:37.789]',0.005
'[11:06:37.797]',0.025
'[11:06:37.805]',0.055
'[11:06:37.813]',0.285
'[11:06:37.820]',0.955
'[11:06:37.828]',1495
'[11:06:37.836]',1085
'[11:06:37.844]',0.105
'[11:06:37.852]',-0.525
'[11:06:37.859]',-0.255
'[11:06:37.867]',-0.065
'[11:06:37.875]',-0.035
'[11:06:37.883]',-0.055
'[11:06:37.891]',-0.075
'[11:06:37.898]',-0.055
'[11:06:37.906]',-0.095
'[11:06:37.914]',-0.075
'[11:06:37.922]',-0.045
'[11:06:37.930]',-0.065
'[11:06:37.938]',-0.075
'[11:06:37.945]',-0.065
'[11:06:37.953]',-0.065
'[11:06:37.961]',-0.055
'[11:06:37.969]',-0.075
'[11:06:37.977]',-0.055
'[11:06:37.984]',-0.075
'[11:06:37.992]',-0.055
'[11:06:38.000]',-0.085
'[11:06:38.008]',-0.075
'[11:06:38.016]',-0.065
'[11:06:38.023]',-0.075
'[11:06:38.031]',-0.085
'[11:06:38.039]',-0.065
'[11:06:38.047]',-0.095
'[11:06:38.055]',-0.085
'[11:06:38.063]',-0.095
'[11:06:38.070]',-0.105
'[11:06:38.078]',-0.115
'[11:06:38.086]',-0.115
'[11:06:38.094]',-0.085
'[11:06:38.102]',-0.075
'[11:06:38.109]',-0.035
'[11:06:38.117]',-0.005
'[11:06:38.125]',-0.005
'[11:06:38.133]',0.005
'[11:06:38.141]',0.005
'[11:06:38.148]',-0.015
'[11:06:38.156]',-0.015
'[11:06:38.164]',-0.015
'[11:06:38.172]',-0.015
'[11:06:38.180]',-0.035
'[11:06:38.188]',-0.015
'[11:06:38.195]',-0.015
'[11:06:38.203]',-0.055
'[11:06:38.211]',-0.025
'[11:06:38.219]',-0.015
'[11:06:38.227]',-0.015
'[11:06:38.234]',-0.015
'[11:06:38.242]',-0.005
'[11:06:38.250]',-0.005
'[11:06:38.258]',0.005
'[11:06:38.266]',-0.005
'[11:06:38.273]',-0.015
'[11:06:38.281]',0.025
'[11:06:38.289]',0.015
'[11:06:38.297]',0.025
'[11:06:38.305]',0.025
'[11:06:38.313]',0.015
'[11:06:38.320]',0.025
'[11:06:38.328]',0.005
'[11:06:38.336]',0.015
'[11:06:38.344]',0.015
'[11:06:38.352]',0.005
'[11:06:38.359]',0.005
'[11:06:38.367]',0.005
'[11:06:38.375]',0.005
'[11:06:38.383]',0.005
'[11:06:38.391]',0.005
'[11:06:38.398]',0.015
'[11:06:38.406]',0.005
'[11:06:38.414]',0.005
'[11:06:38.422]',0.015
'[11:06:38.430]',0.015
'[11:06:38.438]',0.015
'[11:06:38.445]',0.005
'[11:06:38.453]',0.005
'[11:06:38.461]',0.025
'[11:06:38.469]',0.015
'[11:06:38.477]',0.055
'[11:06:38.484]',0.065
'[11:06:38.492]',0.085
'[11:06:38.500]',0.075
'[11:06:38.508]',0.095
'[11:06:38.516]',0.105
'[11:06:38.523]',0.115
'[11:06:38.531]',0.095
'[11:06:38.539]',0.025
'[11:06:38.547]',0.055
'[11:06:38.555]',0.045
'[11:06:38.563]',-0.005
'[11:06:38.570]',-0.035
'[11:06:38.578]',-0.025
'[11:06:38.586]',-0.035
'[11:06:38.594]',-0.025
'[11:06:38.602]',-0.035
'[11:06:38.609]',-0.025
'[11:06:38.617]',-0.015
'[11:06:38.625]',-0.015
'[11:06:38.633]',-0.015
'[11:06:38.641]',-0.005
'[11:06:38.648]',0.025
'[11:06:38.656]',0.025
'[11:06:38.664]',0.055
'[11:06:38.672]',0.195
'[11:06:38.680]',0.735
'[11:06:38.688]',1405
'[11:06:38.695]',1255
'[11:06:38.703]',0.345
'[11:06:38.711]',-0.485
'[11:06:38.719]',-0.285
'[11:06:38.727]',-0.045
'[11:06:38.734]',-0.035
'[11:06:38.742]',-0.035
'[11:06:38.750]',-0.065
'[11:06:38.758]',-0.045
'[11:06:38.766]',-0.055
'[11:06:38.773]',-0.045
'[11:06:38.781]',-0.045
'[11:06:38.789]',-0.065
'[11:06:38.797]',-0.065
'[11:06:38.805]',-0.045
'[11:06:38.813]',-0.025
'[11:06:38.820]',-0.055
'[11:06:38.828]',-0.055
'[11:06:38.836]',-0.055
'[11:06:38.844]',-0.035
'[11:06:38.852]',-0.065
'[11:06:38.859]',-0.035
'[11:06:38.867]',-0.035
'[11:06:38.875]',-0.055
'[11:06:38.883]',-0.065
'[11:06:38.891]',-0.055
'[11:06:38.898]',-0.045
'[11:06:38.906]',-0.065
'[11:06:38.914]',-0.075
'[11:06:38.922]',-0.075
'[11:06:38.930]',-0.085
'[11:06:38.938]',-0.115
'[11:06:38.945]',-0.075
'[11:06:38.953]',-0.075
'[11:06:38.961]',-0.055
'[11:06:38.969]',-0.035
'[11:06:38.977]',-0.025
'[11:06:38.984]',0.015
'[11:06:38.992]',0.025
'[11:06:39.000]',0.005
'[11:06:39.008]',-0.025
'[11:06:39.016]',-0.025
'[11:06:39.023]',-0.025
'[11:06:39.031]',-0.025
'[11:06:39.039]',-0.055
'[11:06:39.047]',-0.015
'[11:06:39.055]',-0.035
'[11:06:39.063]',-0.025
'[11:06:39.070]',-0.055
'[11:06:39.078]',-0.045
'[11:06:39.086]',-0.045
'[11:06:39.094]',-0.035
'[11:06:39.102]',-0.035
'[11:06:39.109]',-0.035
'[11:06:39.117]',-0.015
'[11:06:39.125]',-0.025
'[11:06:39.133]',-0.025
'[11:06:39.141]',-0.025
'[11:06:39.148]',-0.015
'[11:06:39.156]',-0.025
'[11:06:39.164]',-0.025
'[11:06:39.172]',-0.015
'[11:06:39.180]',-0.025
'[11:06:39.188]',-0.025
'[11:06:39.195]',-0.015
'[11:06:39.203]',-0.045
'[11:06:39.211]',-0.025
'[11:06:39.219]',-0.035
'[11:06:39.227]',-0.035
'[11:06:39.234]',-0.025
'[11:06:39.242]',-0.015
'[11:06:39.250]',-0.025
'[11:06:39.258]',-0.015
'[11:06:39.266]',-0.045
