'Time','ECG1'
'[09:34:00.000]',-0.325
'[09:34:00.008]',-0.395
'[09:34:00.016]',-0.255
'[09:34:00.023]',-0.335
'[09:34:00.031]',-0.375
'[09:34:00.039]',-0.335
'[09:34:00.047]',-0.285
'[09:34:00.055]',-0.275
'[09:34:00.063]',-0.245
'[09:34:00.070]',-0.215
'[09:34:00.078]',-0.215
'[09:34:00.086]',-0.155
'[09:34:00.094]',-0.075
'[09:34:00.102]',-0.055
'[09:34:00.109]',-0.005
'[09:34:00.117]',0.105
'[09:34:00.125]',0.115
'[09:34:00.133]',0.085
'[09:34:00.141]',0.115
'[09:34:00.148]',0.095
'[09:34:00.156]',0.065
'[09:34:00.164]',0.015
'[09:34:00.172]',-0.055
'[09:34:00.180]',-0.095
'[09:34:00.188]',-0.125
'[09:34:00.195]',-0.225
'[09:34:00.203]',-0.255
'[09:34:00.211]',-0.215
'[09:34:00.219]',-0.215
'[09:34:00.227]',-0.225
'[09:34:00.234]',-0.265
'[09:34:00.242]',-0.275
'[09:34:00.250]',-0.255
'[09:34:00.258]',-0.225
'[09:34:00.266]',-0.235
'[09:34:00.273]',-0.255
'[09:34:00.281]',-0.245
'[09:34:00.289]',-0.185
'[09:34:00.297]',-0.145
'[09:34:00.305]',-0.135
'[09:34:00.313]',-0.115
'[09:34:00.320]',-0.135
'[09:34:00.328]',-0.135
'[09:34:00.336]',-0.145
'[09:34:00.344]',-0.165
'[09:34:00.352]',-0.115
'[09:34:00.359]',-0.095
'[09:34:00.367]',-0.085
'[09:34:00.375]',-0.125
'[09:34:00.383]',-0.125
'[09:34:00.391]',-0.175
'[09:34:00.398]',-0.095
'[09:34:00.406]',-0.085
'[09:34:00.414]',-0.075
'[09:34:00.422]',-0.005
'[09:34:00.430]',0.025
'[09:34:00.438]',0.025
'[09:34:00.445]',-0.005
'[09:34:00.453]',-0.005
'[09:34:00.461]',0.025
'[09:34:00.469]',0.075
'[09:34:00.477]',0.035
'[09:34:00.484]',0.075
'[09:34:00.492]',-0.035
'[09:34:00.500]',-0.125
'[09:34:00.508]',-0.025
'[09:34:00.516]',-0.125
'[09:34:00.523]',-0.145
'[09:34:00.531]',-0.135
'[09:34:00.539]',-0.125
'[09:34:00.547]',-0.145
'[09:34:00.555]',-0.135
'[09:34:00.563]',-0.125
'[09:34:00.570]',-0.135
'[09:34:00.578]',-0.085
'[09:34:00.586]',-0.105
'[09:34:00.594]',-0.175
'[09:34:00.602]',0.385
'[09:34:00.609]',1325
'[09:34:00.617]',1935
'[09:34:00.625]',1455
'[09:34:00.633]',-0.075
'[09:34:00.641]',-0.505
'[09:34:00.648]',-0.305
'[09:34:00.656]',-0.145
'[09:34:00.664]',-0.115
'[09:34:00.672]',-0.135
'[09:34:00.680]',-0.125
'[09:34:00.688]',-0.175
'[09:34:00.695]',-0.135
'[09:34:00.703]',-0.075
'[09:34:00.711]',-0.105
'[09:34:00.719]',-0.135
'[09:34:00.727]',-0.105
'[09:34:00.734]',-0.095
'[09:34:00.742]',-0.055
'[09:34:00.750]',-0.035
'[09:34:00.758]',-0.005
'[09:34:00.766]',0.015
'[09:34:00.773]',0.005
'[09:34:00.781]',0.025
'[09:34:00.789]',0.055
'[09:34:00.797]',0.185
'[09:34:00.805]',0.145
'[09:34:00.813]',0.165
'[09:34:00.820]',0.295
'[09:34:00.828]',0.315
'[09:34:00.836]',0.315
'[09:34:00.844]',0.275
'[09:34:00.852]',0.295
'[09:34:00.859]',0.245
'[09:34:00.867]',0.165
'[09:34:00.875]',0.135
'[09:34:00.883]',0.065
'[09:34:00.891]',-0.005
'[09:34:00.898]',-0.095
'[09:34:00.906]',-0.135
'[09:34:00.914]',-0.075
'[09:34:00.922]',-0.055
'[09:34:00.930]',-0.125
'[09:34:00.938]',-0.105
'[09:34:00.945]',-0.105
'[09:34:00.953]',-0.105
'[09:34:00.961]',-0.125
'[09:34:00.969]',-0.125
'[09:34:00.977]',-0.135
'[09:34:00.984]',-0.105
'[09:34:00.992]',-0.105
'[09:34:01.000]',-0.115
'[09:34:01.008]',-0.125
'[09:34:01.016]',-0.115
'[09:34:01.023]',-0.055
'[09:34:01.031]',-0.075
'[09:34:01.039]',-0.055
'[09:34:01.047]',-0.085
'[09:34:01.055]',-0.055
'[09:34:01.063]',-0.035
'[09:34:01.070]',-0.055
'[09:34:01.078]',-0.105
'[09:34:01.086]',-0.105
'[09:34:01.094]',-0.055
'[09:34:01.102]',-0.055
'[09:34:01.109]',-0.075
'[09:34:01.117]',-0.075
'[09:34:01.125]',-0.075
'[09:34:01.133]',-0.075
'[09:34:01.141]',-0.075
'[09:34:01.148]',-0.105
'[09:34:01.156]',-0.105
'[09:34:01.164]',-0.125
'[09:34:01.172]',-0.125
'[09:34:01.180]',-0.015
'[09:34:01.188]',0.045
'[09:34:01.195]',0.085
'[09:34:01.203]',0.065
'[09:34:01.211]',-0.015
'[09:34:01.219]',0.045
'[09:34:01.227]',0.145
'[09:34:01.234]',0.095
'[09:34:01.242]',0.105
'[09:34:01.250]',-0.005
'[09:34:01.258]',-0.055
'[09:34:01.266]',-0.085
'[09:34:01.273]',-0.135
'[09:34:01.281]',-0.145
'[09:34:01.289]',-0.165
'[09:34:01.297]',-0.185
'[09:34:01.305]',-0.115
'[09:34:01.313]',-0.135
'[09:34:01.320]',-0.155
'[09:34:01.328]',-0.115
'[09:34:01.336]',-0.115
'[09:34:01.344]',-0.195
'[09:34:01.352]',-0.215
'[09:34:01.359]',0.465
'[09:34:01.367]',1495
'[09:34:01.375]',2075
'[09:34:01.383]',1475
'[09:34:01.391]',-0.035
'[09:34:01.398]',-0.515
'[09:34:01.406]',-0.355
'[09:34:01.414]',-0.205
'[09:34:01.422]',-0.165
'[09:34:01.430]',-0.205
'[09:34:01.438]',-0.175
'[09:34:01.445]',-0.155
'[09:34:01.453]',-0.145
'[09:34:01.461]',-0.145
'[09:34:01.469]',-0.125
'[09:34:01.477]',-0.105
'[09:34:01.484]',-0.095
'[09:34:01.492]',-0.095
'[09:34:01.500]',-0.075
'[09:34:01.508]',-0.025
'[09:34:01.516]',-0.035
'[09:34:01.523]',-0.055
'[09:34:01.531]',-0.055
'[09:34:01.539]',0.015
'[09:34:01.547]',0.035
'[09:34:01.555]',0.085
'[09:34:01.563]',0.135
'[09:34:01.570]',0.195
'[09:34:01.578]',0.215
'[09:34:01.586]',0.265
'[09:34:01.594]',0.315
'[09:34:01.602]',0.305
'[09:34:01.609]',0.285
'[09:34:01.617]',0.315
'[09:34:01.625]',0.245
'[09:34:01.633]',0.135
'[09:34:01.641]',0.055
'[09:34:01.648]',0.005
'[09:34:01.656]',-0.035
'[09:34:01.664]',-0.105
'[09:34:01.672]',-0.095
'[09:34:01.680]',-0.125
'[09:34:01.688]',-0.155
'[09:34:01.695]',-0.115
'[09:34:01.703]',-0.155
'[09:34:01.711]',-0.175
'[09:34:01.719]',-0.145
'[09:34:01.727]',-0.175
'[09:34:01.734]',-0.135
'[09:34:01.742]',-0.135
'[09:34:01.750]',-0.135
'[09:34:01.758]',-0.135
'[09:34:01.766]',-0.095
'[09:34:01.773]',-0.125
'[09:34:01.781]',-0.065
'[09:34:01.789]',-0.105
'[09:34:01.797]',-0.135
'[09:34:01.805]',-0.115
'[09:34:01.813]',-0.115
'[09:34:01.820]',-0.125
'[09:34:01.828]',-0.065
'[09:34:01.836]',-0.095
'[09:34:01.844]',-0.085
'[09:34:01.852]',-0.095
'[09:34:01.859]',-0.115
'[09:34:01.867]',-0.115
'[09:34:01.875]',-0.115
'[09:34:01.883]',-0.125
'[09:34:01.891]',-0.095
'[09:34:01.898]',-0.145
'[09:34:01.906]',-0.185
'[09:34:01.914]',-0.145
'[09:34:01.922]',-0.125
'[09:34:01.930]',-0.105
'[09:34:01.938]',-0.115
'[09:34:01.945]',-0.075
'[09:34:01.953]',-0.145
'[09:34:01.961]',-0.115
'[09:34:01.969]',-0.065
'[09:34:01.977]',-0.165
'[09:34:01.984]',-0.065
'[09:34:01.992]',0.005
'[09:34:02.000]',0.055
'[09:34:02.008]',0.015
'[09:34:02.016]',-0.025
'[09:34:02.023]',0.085
'[09:34:02.031]',0.085
'[09:34:02.039]',0.035
'[09:34:02.047]',0.035
'[09:34:02.055]',-0.015
'[09:34:02.063]',-0.015
'[09:34:02.070]',-0.175
'[09:34:02.078]',-0.165
'[09:34:02.086]',-0.205
'[09:34:02.094]',-0.215
'[09:34:02.102]',-0.245
'[09:34:02.109]',-0.185
'[09:34:02.117]',-0.145
'[09:34:02.125]',-0.165
'[09:34:02.133]',-0.145
'[09:34:02.141]',-0.135
'[09:34:02.148]',-0.295
'[09:34:02.156]',-0.265
'[09:34:02.164]',0.475
'[09:34:02.172]',1535
'[09:34:02.180]',2115
'[09:34:02.188]',1345
'[09:34:02.195]',-0.235
'[09:34:02.203]',-0.615
'[09:34:02.211]',-0.405
'[09:34:02.219]',-0.255
'[09:34:02.227]',-0.195
'[09:34:02.234]',-0.185
'[09:34:02.242]',-0.165
'[09:34:02.250]',-0.195
'[09:34:02.258]',-0.155
'[09:34:02.266]',-0.165
'[09:34:02.273]',-0.215
'[09:34:02.281]',-0.165
'[09:34:02.289]',-0.115
'[09:34:02.297]',-0.075
'[09:34:02.305]',-0.115
'[09:34:02.313]',-0.065
'[09:34:02.320]',-0.045
'[09:34:02.328]',-0.055
'[09:34:02.336]',-0.045
'[09:34:02.344]',-0.015
'[09:34:02.352]',0.015
'[09:34:02.359]',0.065
'[09:34:02.367]',0.155
'[09:34:02.375]',0.195
'[09:34:02.383]',0.235
'[09:34:02.391]',0.215
'[09:34:02.398]',0.255
'[09:34:02.406]',0.325
'[09:34:02.414]',0.335
'[09:34:02.422]',0.265
'[09:34:02.430]',0.205
'[09:34:02.438]',0.095
'[09:34:02.445]',-0.025
'[09:34:02.453]',0.035
'[09:34:02.461]',0.015
'[09:34:02.469]',-0.075
'[09:34:02.477]',-0.125
'[09:34:02.484]',-0.105
'[09:34:02.492]',-0.135
'[09:34:02.500]',-0.145
'[09:34:02.508]',-0.195
'[09:34:02.516]',-0.105
'[09:34:02.523]',-0.115
'[09:34:02.531]',-0.125
'[09:34:02.539]',-0.065
'[09:34:02.547]',-0.135
'[09:34:02.555]',-0.135
'[09:34:02.563]',-0.065
'[09:34:02.570]',-0.045
'[09:34:02.578]',-0.075
'[09:34:02.586]',-0.025
'[09:34:02.594]',-0.065
'[09:34:02.602]',-0.065
'[09:34:02.609]',-0.055
'[09:34:02.617]',-0.045
'[09:34:02.625]',-0.075
'[09:34:02.633]',-0.065
'[09:34:02.641]',-0.065
'[09:34:02.648]',-0.095
'[09:34:02.656]',-0.045
'[09:34:02.664]',-0.015
'[09:34:02.672]',-0.055
'[09:34:02.680]',-0.045
'[09:34:02.688]',-0.065
'[09:34:02.695]',-0.035
'[09:34:02.703]',-0.035
'[09:34:02.711]',-0.045
'[09:34:02.719]',-0.075
'[09:34:02.727]',-0.095
'[09:34:02.734]',-0.085
'[09:34:02.742]',-0.055
'[09:34:02.750]',-0.015
'[09:34:02.758]',-0.055
'[09:34:02.766]',-0.035
'[09:34:02.773]',-0.025
'[09:34:02.781]',-0.075
'[09:34:02.789]',-0.025
'[09:34:02.797]',0.075
'[09:34:02.805]',0.115
'[09:34:02.813]',0.105
'[09:34:02.820]',0.065
'[09:34:02.828]',0.055
'[09:34:02.836]',0.105
'[09:34:02.844]',0.095
'[09:34:02.852]',0.115
'[09:34:02.859]',0.145
'[09:34:02.867]',0.065
'[09:34:02.875]',0.015
'[09:34:02.883]',-0.005
'[09:34:02.891]',-0.045
'[09:34:02.898]',-0.095
'[09:34:02.906]',-0.145
'[09:34:02.914]',-0.105
'[09:34:02.922]',-0.075
'[09:34:02.930]',-0.075
'[09:34:02.938]',-0.045
'[09:34:02.945]',-0.105
'[09:34:02.953]',-0.025
'[09:34:02.961]',-0.105
'[09:34:02.969]',0.105
'[09:34:02.977]',0.955
'[09:34:02.984]',1725
'[09:34:02.992]',1755
'[09:34:03.000]',0.475
'[09:34:03.008]',-0.355
'[09:34:03.016]',-0.405
'[09:34:03.023]',-0.175
'[09:34:03.031]',-0.085
'[09:34:03.039]',-0.125
'[09:34:03.047]',-0.095
'[09:34:03.055]',-0.105
'[09:34:03.063]',-0.125
'[09:34:03.070]',-0.095
'[09:34:03.078]',-0.095
'[09:34:03.086]',-0.065
'[09:34:03.094]',-0.095
'[09:34:03.102]',-0.075
'[09:34:03.109]',-0.085
'[09:34:03.117]',-0.095
'[09:34:03.125]',-0.005
'[09:34:03.133]',0.025
'[09:34:03.141]',0.005
'[09:34:03.148]',-0.005
'[09:34:03.156]',-0.015
'[09:34:03.164]',0.055
'[09:34:03.172]',0.105
'[09:34:03.180]',0.195
'[09:34:03.188]',0.255
'[09:34:03.195]',0.265
'[09:34:03.203]',0.235
'[09:34:03.211]',0.215
'[09:34:03.219]',0.225
'[09:34:03.227]',0.305
'[09:34:03.234]',0.285
'[09:34:03.242]',0.185
'[09:34:03.250]',0.085
'[09:34:03.258]',-0.025
'[09:34:03.266]',-0.095
'[09:34:03.273]',-0.115
'[09:34:03.281]',-0.105
'[09:34:03.289]',-0.155
'[09:34:03.297]',-0.135
'[09:34:03.305]',-0.185
'[09:34:03.313]',-0.235
'[09:34:03.320]',-0.155
'[09:34:03.328]',-0.145
'[09:34:03.336]',-0.235
'[09:34:03.344]',-0.225
'[09:34:03.352]',-0.195
'[09:34:03.359]',-0.195
'[09:34:03.367]',-0.125
'[09:34:03.375]',-0.115
'[09:34:03.383]',-0.185
'[09:34:03.391]',-0.125
'[09:34:03.398]',-0.095
'[09:34:03.406]',-0.075
'[09:34:03.414]',-0.135
'[09:34:03.422]',-0.155
'[09:34:03.430]',-0.195
'[09:34:03.438]',-0.195
'[09:34:03.445]',-0.155
'[09:34:03.453]',-0.125
'[09:34:03.461]',-0.125
'[09:34:03.469]',-0.165
'[09:34:03.477]',-0.225
'[09:34:03.484]',-0.215
'[09:34:03.492]',-0.125
'[09:34:03.500]',-0.115
'[09:34:03.508]',-0.105
'[09:34:03.516]',-0.135
'[09:34:03.523]',-0.185
'[09:34:03.531]',-0.185
'[09:34:03.539]',-0.195
'[09:34:03.547]',-0.175
'[09:34:03.555]',-0.215
'[09:34:03.563]',-0.145
'[09:34:03.570]',-0.045
'[09:34:03.578]',-0.015
'[09:34:03.586]',0.005
'[09:34:03.594]',0.025
'[09:34:03.602]',0.015
'[09:34:03.609]',0.045
'[09:34:03.617]',-0.025
'[09:34:03.625]',0.065
'[09:34:03.633]',-0.025
'[09:34:03.641]',-0.135
'[09:34:03.648]',-0.155
'[09:34:03.656]',-0.195
'[09:34:03.664]',-0.175
'[09:34:03.672]',-0.225
'[09:34:03.680]',-0.215
'[09:34:03.688]',-0.205
'[09:34:03.695]',-0.205
'[09:34:03.703]',-0.185
'[09:34:03.711]',-0.195
'[09:34:03.719]',-0.175
'[09:34:03.727]',-0.255
'[09:34:03.734]',-0.285
'[09:34:03.742]',0.395
'[09:34:03.750]',1385
'[09:34:03.758]',2075
'[09:34:03.766]',1325
'[09:34:03.773]',-0.255
'[09:34:03.781]',-0.655
'[09:34:03.789]',-0.425
'[09:34:03.797]',-0.275
'[09:34:03.805]',-0.275
'[09:34:03.813]',-0.265
'[09:34:03.820]',-0.245
'[09:34:03.828]',-0.235
'[09:34:03.836]',-0.225
'[09:34:03.844]',-0.205
'[09:34:03.852]',-0.215
'[09:34:03.859]',-0.205
'[09:34:03.867]',-0.165
'[09:34:03.875]',-0.175
'[09:34:03.883]',-0.165
'[09:34:03.891]',-0.175
'[09:34:03.898]',-0.165
'[09:34:03.906]',-0.105
'[09:34:03.914]',-0.105
'[09:34:03.922]',-0.125
'[09:34:03.930]',-0.095
'[09:34:03.938]',-0.005
'[09:34:03.945]',0.005
'[09:34:03.953]',0.085
'[09:34:03.961]',0.145
'[09:34:03.969]',0.155
'[09:34:03.977]',0.155
'[09:34:03.984]',0.225
'[09:34:03.992]',0.215
'[09:34:04.000]',0.115
'[09:34:04.008]',0.035
'[09:34:04.016]',-0.055
'[09:34:04.023]',-0.075
'[09:34:04.031]',-0.115
'[09:34:04.039]',-0.175
'[09:34:04.047]',-0.235
'[09:34:04.055]',-0.275
'[09:34:04.063]',-0.295
'[09:34:04.070]',-0.345
'[09:34:04.078]',-0.355
'[09:34:04.086]',-0.325
'[09:34:04.094]',-0.345
'[09:34:04.102]',-0.345
'[09:34:04.109]',-0.365
'[09:34:04.117]',-0.255
'[09:34:04.125]',-0.275
'[09:34:04.133]',-0.315
'[09:34:04.141]',-0.335
'[09:34:04.148]',-0.265
'[09:34:04.156]',-0.265
'[09:34:04.164]',-0.305
'[09:34:04.172]',-0.285
'[09:34:04.180]',-0.275
'[09:34:04.188]',-0.355
'[09:34:04.195]',-0.275
'[09:34:04.203]',-0.245
'[09:34:04.211]',-0.265
'[09:34:04.219]',-0.345
'[09:34:04.227]',-0.305
'[09:34:04.234]',-0.315
'[09:34:04.242]',-0.345
'[09:34:04.250]',-0.295
'[09:34:04.258]',-0.305
'[09:34:04.266]',-0.325
'[09:34:04.273]',-0.325
'[09:34:04.281]',-0.305
'[09:34:04.289]',-0.205
'[09:34:04.297]',-0.125
'[09:34:04.305]',-0.185
'[09:34:04.313]',-0.155
'[09:34:04.320]',-0.215
'[09:34:04.328]',-0.165
'[09:34:04.336]',-0.105
'[09:34:04.344]',-0.125
'[09:34:04.352]',-0.115
'[09:34:04.359]',-0.125
'[09:34:04.367]',-0.195
'[09:34:04.375]',-0.295
'[09:34:04.383]',-0.305
'[09:34:04.391]',-0.265
'[09:34:04.398]',-0.235
'[09:34:04.406]',-0.225
'[09:34:04.414]',-0.235
'[09:34:04.422]',-0.255
'[09:34:04.430]',-0.175
'[09:34:04.438]',-0.195
'[09:34:04.445]',-0.175
'[09:34:04.453]',-0.295
'[09:34:04.461]',-0.305
'[09:34:04.469]',0.345
'[09:34:04.477]',1185
'[09:34:04.484]',1635
'[09:34:04.492]',1015
'[09:34:04.500]',-0.065
'[09:34:04.508]',-0.355
'[09:34:04.516]',-0.265
'[09:34:04.523]',-0.135
'[09:34:04.531]',-0.065
'[09:34:04.539]',-0.055
'[09:34:04.547]',-0.045
'[09:34:04.555]',-0.015
'[09:34:04.563]',0.015
'[09:34:04.570]',0.005
'[09:34:04.578]',0.045
'[09:34:04.586]',0.095
'[09:34:04.594]',0.075
'[09:34:04.602]',0.075
'[09:34:04.609]',0.065
'[09:34:04.617]',0.065
'[09:34:04.625]',0.135
'[09:34:04.633]',0.135
'[09:34:04.641]',0.145
'[09:34:04.648]',0.135
'[09:34:04.656]',0.195
'[09:34:04.664]',0.195
'[09:34:04.672]',0.275
'[09:34:04.680]',0.295
'[09:34:04.688]',0.305
'[09:34:04.695]',0.315
'[09:34:04.703]',0.345
'[09:34:04.711]',0.315
'[09:34:04.719]',0.305
'[09:34:04.727]',0.265
'[09:34:04.734]',0.275
'[09:34:04.742]',0.235
'[09:34:04.750]',0.195
'[09:34:04.758]',0.145
'[09:34:04.766]',0.105
'[09:34:04.773]',0.055
'[09:34:04.781]',-0.005
'[09:34:04.789]',-0.025
'[09:34:04.797]',-0.005
'[09:34:04.805]',-0.045
'[09:34:04.813]',-0.085
'[09:34:04.820]',-0.015
'[09:34:04.828]',-0.015
'[09:34:04.836]',-0.015
'[09:34:04.844]',-0.065
'[09:34:04.852]',-0.055
'[09:34:04.859]',-0.065
'[09:34:04.867]',0.015
'[09:34:04.875]',-0.015
'[09:34:04.883]',-0.065
'[09:34:04.891]',-0.075
'[09:34:04.898]',-0.055
'[09:34:04.906]',-0.075
'[09:34:04.914]',-0.065
'[09:34:04.922]',-0.075
'[09:34:04.930]',-0.065
'[09:34:04.938]',-0.095
'[09:34:04.945]',-0.115
'[09:34:04.953]',-0.075
'[09:34:04.961]',-0.085
'[09:34:04.969]',-0.075
'[09:34:04.977]',-0.115
'[09:34:04.984]',-0.165
'[09:34:04.992]',-0.145
'[09:34:05.000]',-0.045
'[09:34:05.008]',0.015
'[09:34:05.016]',0.025
'[09:34:05.023]',0.025
'[09:34:05.031]',0.025
'[09:34:05.039]',0.005
'[09:34:05.047]',0.035
'[09:34:05.055]',0.025
'[09:34:05.063]',0.035
'[09:34:05.070]',0.035
'[09:34:05.078]',-0.105
'[09:34:05.086]',-0.115
'[09:34:05.094]',-0.165
'[09:34:05.102]',-0.175
'[09:34:05.109]',-0.255
'[09:34:05.117]',-0.235
'[09:34:05.125]',-0.155
'[09:34:05.133]',-0.125
'[09:34:05.141]',-0.235
'[09:34:05.148]',-0.225
'[09:34:05.156]',-0.095
'[09:34:05.164]',-0.205
'[09:34:05.172]',-0.275
'[09:34:05.180]',0.465
'[09:34:05.188]',1525
'[09:34:05.195]',2185
'[09:34:05.203]',1255
'[09:34:05.211]',-0.205
'[09:34:05.219]',-0.555
'[09:34:05.227]',-0.425
'[09:34:05.234]',-0.245
'[09:34:05.242]',-0.155
'[09:34:05.250]',-0.215
'[09:34:05.258]',-0.185
'[09:34:05.266]',-0.155
'[09:34:05.273]',-0.155
'[09:34:05.281]',-0.135
'[09:34:05.289]',-0.145
'[09:34:05.297]',-0.105
'[09:34:05.305]',-0.115
'[09:34:05.313]',-0.115
'[09:34:05.320]',-0.035
'[09:34:05.328]',-0.025
'[09:34:05.336]',-0.015
'[09:34:05.344]',-0.035
'[09:34:05.352]',-0.005
'[09:34:05.359]',0.005
'[09:34:05.367]',0.095
'[09:34:05.375]',0.125
'[09:34:05.383]',0.165
'[09:34:05.391]',0.215
'[09:34:05.398]',0.305
'[09:34:05.406]',0.315
'[09:34:05.414]',0.365
'[09:34:05.422]',0.335
'[09:34:05.430]',0.305
'[09:34:05.438]',0.315
'[09:34:05.445]',0.295
'[09:34:05.453]',0.235
'[09:34:05.461]',0.155
'[09:34:05.469]',0.105
'[09:34:05.477]',0.105
'[09:34:05.484]',0.085
'[09:34:05.492]',0.095
'[09:34:05.500]',0.045
'[09:34:05.508]',0.045
'[09:34:05.516]',0.075
'[09:34:05.523]',0.075
'[09:34:05.531]',0.085
'[09:34:05.539]',0.095
'[09:34:05.547]',0.115
'[09:34:05.555]',0.135
'[09:34:05.563]',0.165
'[09:34:05.570]',0.175
'[09:34:05.578]',0.185
'[09:34:05.586]',0.205
'[09:34:05.594]',0.215
'[09:34:05.602]',0.205
'[09:34:05.609]',0.215
'[09:34:05.617]',0.215
'[09:34:05.625]',0.215
'[09:34:05.633]',0.235
'[09:34:05.641]',0.235
'[09:34:05.648]',0.235
'[09:34:05.656]',0.255
'[09:34:05.664]',0.245
'[09:34:05.672]',0.245
'[09:34:05.680]',0.255
'[09:34:05.688]',0.255
'[09:34:05.695]',0.285
'[09:34:05.703]',0.275
'[09:34:05.711]',0.285
'[09:34:05.719]',0.285
'[09:34:05.727]',0.265
'[09:34:05.734]',0.285
'[09:34:05.742]',0.295
'[09:34:05.750]',0.305
'[09:34:05.758]',0.285
'[09:34:05.766]',0.265
'[09:34:05.773]',0.245
'[09:34:05.781]',0.235
'[09:34:05.789]',0.225
'[09:34:05.797]',0.205
'[09:34:05.805]',0.205
'[09:34:05.813]',0.195
'[09:34:05.820]',0.205
'[09:34:05.828]',0.195
'[09:34:05.836]',0.185
'[09:34:05.844]',0.205
'[09:34:05.852]',0.195
'[09:34:05.859]',0.125
'[09:34:05.867]',0.185
'[09:34:05.875]',0.545
'[09:34:05.883]',0.945
'[09:34:05.891]',1015
'[09:34:05.898]',0.465
'[09:34:05.906]',0.025
'[09:34:05.914]',-0.055
'[09:34:05.922]',0.015
'[09:34:05.930]',0.065
'[09:34:05.938]',0.055
'[09:34:05.945]',0.025
'[09:34:05.953]',0.005
'[09:34:05.961]',0.015
'[09:34:05.969]',0.005
'[09:34:05.977]',-0.015
'[09:34:05.984]',-0.015
'[09:34:05.992]',0.005
'[09:34:06.000]',0.005
'[09:34:06.008]',-0.005
'[09:34:06.016]',-0.025
'[09:34:06.023]',-0.005
'[09:34:06.031]',-0.035
'[09:34:06.039]',-0.035
'[09:34:06.047]',0.005
'[09:34:06.055]',-0.005
'[09:34:06.063]',0.025
'[09:34:06.070]',0.085
'[09:34:06.078]',0.135
'[09:34:06.086]',0.185
'[09:34:06.094]',0.205
'[09:34:06.102]',0.195
'[09:34:06.109]',0.185
'[09:34:06.117]',0.205
'[09:34:06.125]',0.265
'[09:34:06.133]',0.225
'[09:34:06.141]',0.175
'[09:34:06.148]',0.055
'[09:34:06.156]',-0.045
'[09:34:06.164]',-0.105
'[09:34:06.172]',-0.075
'[09:34:06.180]',-0.155
'[09:34:06.188]',-0.195
'[09:34:06.195]',-0.225
'[09:34:06.203]',-0.215
'[09:34:06.211]',-0.185
'[09:34:06.219]',-0.225
'[09:34:06.227]',-0.215
'[09:34:06.234]',-0.195
'[09:34:06.242]',-0.205
'[09:34:06.250]',-0.195
'[09:34:06.258]',-0.175
'[09:34:06.266]',-0.195
'[09:34:06.273]',-0.185
'[09:34:06.281]',-0.195
'[09:34:06.289]',-0.195
'[09:34:06.297]',-0.185
'[09:34:06.305]',-0.175
'[09:34:06.313]',-0.155
'[09:34:06.320]',-0.195
'[09:34:06.328]',-0.195
'[09:34:06.336]',-0.215
'[09:34:06.344]',-0.195
'[09:34:06.352]',-0.205
'[09:34:06.359]',-0.195
'[09:34:06.367]',-0.225
'[09:34:06.375]',-0.095
'[09:34:06.383]',-0.155
'[09:34:06.391]',-0.085
'[09:34:06.398]',-0.075
'[09:34:06.406]',-0.175
'[09:34:06.414]',-0.005
'[09:34:06.422]',0.005
'[09:34:06.430]',-0.025
'[09:34:06.438]',-0.025
'[09:34:06.445]',-0.105
'[09:34:06.453]',-0.215
'[09:34:06.461]',-0.265
'[09:34:06.469]',-0.255
'[09:34:06.477]',-0.285
'[09:34:06.484]',-0.265
'[09:34:06.492]',-0.225
'[09:34:06.500]',-0.245
'[09:34:06.508]',-0.225
'[09:34:06.516]',-0.295
'[09:34:06.523]',-0.245
'[09:34:06.531]',-0.225
'[09:34:06.539]',-0.285
'[09:34:06.547]',-0.365
'[09:34:06.555]',0.245
'[09:34:06.563]',1295
'[09:34:06.570]',1855
'[09:34:06.578]',1205
'[09:34:06.586]',-0.115
'[09:34:06.594]',-0.565
'[09:34:06.602]',-0.395
'[09:34:06.609]',-0.335
'[09:34:06.617]',-0.255
'[09:34:06.625]',-0.235
'[09:34:06.633]',-0.275
'[09:34:06.641]',-0.235
'[09:34:06.648]',-0.225
'[09:34:06.656]',-0.215
'[09:34:06.664]',-0.185
'[09:34:06.672]',-0.185
'[09:34:06.680]',-0.195
'[09:34:06.688]',-0.145
'[09:34:06.695]',-0.165
'[09:34:06.703]',-0.135
'[09:34:06.711]',-0.125
'[09:34:06.719]',-0.145
'[09:34:06.727]',-0.135
'[09:34:06.734]',-0.055
'[09:34:06.742]',-0.025
'[09:34:06.750]',0.005
'[09:34:06.758]',0.025
'[09:34:06.766]',0.095
'[09:34:06.773]',0.145
'[09:34:06.781]',0.155
'[09:34:06.789]',0.125
'[09:34:06.797]',0.215
'[09:34:06.805]',0.185
'[09:34:06.813]',0.135
'[09:34:06.820]',0.105
'[09:34:06.828]',0.045
'[09:34:06.836]',-0.055
'[09:34:06.844]',-0.065
'[09:34:06.852]',-0.115
'[09:34:06.859]',-0.115
'[09:34:06.867]',-0.145
'[09:34:06.875]',-0.195
'[09:34:06.883]',-0.165
'[09:34:06.891]',-0.135
'[09:34:06.898]',-0.165
'[09:34:06.906]',-0.195
'[09:34:06.914]',-0.185
'[09:34:06.922]',-0.155
'[09:34:06.930]',-0.175
'[09:34:06.938]',-0.175
'[09:34:06.945]',-0.155
'[09:34:06.953]',-0.125
'[09:34:06.961]',-0.125
'[09:34:06.969]',-0.125
'[09:34:06.977]',-0.145
'[09:34:06.984]',-0.155
'[09:34:06.992]',-0.175
'[09:34:07.000]',-0.145
'[09:34:07.008]',-0.135
'[09:34:07.016]',-0.145
'[09:34:07.023]',-0.165
'[09:34:07.031]',-0.195
'[09:34:07.039]',-0.225
'[09:34:07.047]',-0.235
'[09:34:07.055]',-0.165
'[09:34:07.063]',-0.125
'[09:34:07.070]',-0.135
'[09:34:07.078]',-0.075
'[09:34:07.086]',-0.115
'[09:34:07.094]',-0.155
'[09:34:07.102]',-0.025
'[09:34:07.109]',-0.035
'[09:34:07.117]',-0.075
'[09:34:07.125]',-0.135
'[09:34:07.133]',-0.175
'[09:34:07.141]',-0.275
'[09:34:07.148]',-0.305
'[09:34:07.156]',-0.325
'[09:34:07.164]',-0.315
'[09:34:07.172]',-0.315
'[09:34:07.180]',-0.325
'[09:34:07.188]',-0.245
'[09:34:07.195]',-0.295
'[09:34:07.203]',-0.365
'[09:34:07.211]',-0.305
'[09:34:07.219]',-0.285
'[09:34:07.227]',-0.475
'[09:34:07.234]',-0.065
'[09:34:07.242]',1065
'[09:34:07.250]',2005
'[09:34:07.258]',1735
'[09:34:07.266]',0.075
'[09:34:07.273]',-0.705
'[09:34:07.281]',-0.615
'[09:34:07.289]',-0.445
'[09:34:07.297]',-0.285
'[09:34:07.305]',-0.295
'[09:34:07.313]',-0.345
'[09:34:07.320]',-0.365
'[09:34:07.328]',-0.305
'[09:34:07.336]',-0.255
'[09:34:07.344]',-0.265
'[09:34:07.352]',-0.275
'[09:34:07.359]',-0.245
'[09:34:07.367]',-0.215
'[09:34:07.375]',-0.175
'[09:34:07.383]',-0.215
'[09:34:07.391]',-0.135
'[09:34:07.398]',-0.195
'[09:34:07.406]',-0.165
'[09:34:07.414]',-0.195
'[09:34:07.422]',-0.125
'[09:34:07.430]',-0.045
'[09:34:07.438]',-0.015
'[09:34:07.445]',0.055
'[09:34:07.453]',0.085
'[09:34:07.461]',0.145
'[09:34:07.469]',0.165
'[09:34:07.477]',0.175
'[09:34:07.484]',0.185
'[09:34:07.492]',0.115
'[09:34:07.500]',0.145
'[09:34:07.508]',0.025
'[09:34:07.516]',-0.025
'[09:34:07.523]',-0.125
'[09:34:07.531]',-0.135
'[09:34:07.539]',-0.195
'[09:34:07.547]',-0.225
'[09:34:07.555]',-0.225
'[09:34:07.563]',-0.205
'[09:34:07.570]',-0.245
'[09:34:07.578]',-0.295
'[09:34:07.586]',-0.205
'[09:34:07.594]',-0.215
'[09:34:07.602]',-0.235
'[09:34:07.609]',-0.235
'[09:34:07.617]',-0.195
'[09:34:07.625]',-0.245
'[09:34:07.633]',-0.215
'[09:34:07.641]',-0.175
'[09:34:07.648]',-0.225
'[09:34:07.656]',-0.215
'[09:34:07.664]',-0.165
'[09:34:07.672]',-0.155
'[09:34:07.680]',-0.185
'[09:34:07.688]',-0.195
'[09:34:07.695]',-0.245
'[09:34:07.703]',-0.205
'[09:34:07.711]',-0.245
'[09:34:07.719]',-0.205
'[09:34:07.727]',-0.245
'[09:34:07.734]',-0.245
'[09:34:07.742]',-0.185
'[09:34:07.750]',-0.145
'[09:34:07.758]',-0.105
'[09:34:07.766]',-0.065
'[09:34:07.773]',-0.085
'[09:34:07.781]',-0.095
'[09:34:07.789]',-0.095
'[09:34:07.797]',-0.005
'[09:34:07.805]',-0.035
'[09:34:07.813]',-0.115
'[09:34:07.820]',-0.215
'[09:34:07.828]',-0.245
'[09:34:07.836]',-0.285
'[09:34:07.844]',-0.275
'[09:34:07.852]',-0.345
'[09:34:07.859]',-0.325
'[09:34:07.867]',-0.255
'[09:34:07.875]',-0.255
'[09:34:07.883]',-0.335
'[09:34:07.891]',-0.245
'[09:34:07.898]',-0.195
'[09:34:07.906]',-0.315
'[09:34:07.914]',-0.475
'[09:34:07.922]',-0.105
'[09:34:07.930]',0.975
'[09:34:07.938]',1945
'[09:34:07.945]',1815
'[09:34:07.953]',0.235
'[09:34:07.961]',-0.605
'[09:34:07.969]',-0.525
'[09:34:07.977]',-0.375
'[09:34:07.984]',-0.345
'[09:34:07.992]',-0.295
'[09:34:08.000]',-0.255
'[09:34:08.008]',-0.295
'[09:34:08.016]',-0.275
'[09:34:08.023]',-0.245
'[09:34:08.031]',-0.255
'[09:34:08.039]',-0.235
'[09:34:08.047]',-0.205
'[09:34:08.055]',-0.175
'[09:34:08.063]',-0.165
'[09:34:08.070]',-0.175
'[09:34:08.078]',-0.175
'[09:34:08.086]',-0.155
'[09:34:08.094]',-0.115
'[09:34:08.102]',-0.075
'[09:34:08.109]',-0.095
'[09:34:08.117]',-0.085
'[09:34:08.125]',0.025
'[09:34:08.133]',0.085
'[09:34:08.141]',0.085
'[09:34:08.148]',0.135
'[09:34:08.156]',0.145
'[09:34:08.164]',0.155
'[09:34:08.172]',0.195
'[09:34:08.180]',0.135
'[09:34:08.188]',0.135
'[09:34:08.195]',0.045
'[09:34:08.203]',-0.015
'[09:34:08.211]',-0.085
'[09:34:08.219]',-0.125
'[09:34:08.227]',-0.135
'[09:34:08.234]',-0.195
'[09:34:08.242]',-0.215
'[09:34:08.250]',-0.275
'[09:34:08.258]',-0.255
'[09:34:08.266]',-0.215
'[09:34:08.273]',-0.235
'[09:34:08.281]',-0.255
'[09:34:08.289]',-0.245
'[09:34:08.297]',-0.275
'[09:34:08.305]',-0.255
'[09:34:08.313]',-0.165
'[09:34:08.320]',-0.195
'[09:34:08.328]',-0.225
'[09:34:08.336]',-0.235
'[09:34:08.344]',-0.195
'[09:34:08.352]',-0.205
'[09:34:08.359]',-0.225
'[09:34:08.367]',-0.185
'[09:34:08.375]',-0.245
'[09:34:08.383]',-0.275
'[09:34:08.391]',-0.235
'[09:34:08.398]',-0.235
'[09:34:08.406]',-0.225
'[09:34:08.414]',-0.265
'[09:34:08.422]',-0.215
'[09:34:08.430]',-0.175
'[09:34:08.438]',-0.175
'[09:34:08.445]',-0.175
'[09:34:08.453]',-0.195
'[09:34:08.461]',-0.135
'[09:34:08.469]',-0.075
'[09:34:08.477]',-0.045
'[09:34:08.484]',-0.085
'[09:34:08.492]',-0.215
'[09:34:08.500]',-0.255
'[09:34:08.508]',-0.305
'[09:34:08.516]',-0.345
'[09:34:08.523]',-0.375
'[09:34:08.531]',-0.345
'[09:34:08.539]',-0.325
'[09:34:08.547]',-0.355
'[09:34:08.555]',-0.335
'[09:34:08.563]',-0.295
'[09:34:08.570]',-0.295
'[09:34:08.578]',-0.295
'[09:34:08.586]',-0.415
'[09:34:08.594]',-0.495
'[09:34:08.602]',-0.105
'[09:34:08.609]',0.935
'[09:34:08.617]',1885
'[09:34:08.625]',1725
'[09:34:08.633]',0.135
'[09:34:08.641]',-0.725
'[09:34:08.648]',-0.675
'[09:34:08.656]',-0.385
'[09:34:08.664]',-0.335
'[09:34:08.672]',-0.395
'[09:34:08.680]',-0.325
'[09:34:08.688]',-0.285
'[09:34:08.695]',-0.345
'[09:34:08.703]',-0.285
'[09:34:08.711]',-0.315
'[09:34:08.719]',-0.315
'[09:34:08.727]',-0.315
'[09:34:08.734]',-0.255
'[09:34:08.742]',-0.225
'[09:34:08.750]',-0.205
'[09:34:08.758]',-0.195
'[09:34:08.766]',-0.195
'[09:34:08.773]',-0.175
'[09:34:08.781]',-0.145
'[09:34:08.789]',-0.155
'[09:34:08.797]',-0.095
'[09:34:08.805]',0.085
'[09:34:08.813]',0.005
'[09:34:08.820]',0.015
'[09:34:08.828]',0.085
'[09:34:08.836]',0.115
'[09:34:08.844]',0.135
'[09:34:08.852]',0.155
'[09:34:08.859]',0.175
'[09:34:08.867]',0.135
'[09:34:08.875]',0.035
'[09:34:08.883]',-0.015
'[09:34:08.891]',-0.065
'[09:34:08.898]',-0.115
'[09:34:08.906]',-0.145
'[09:34:08.914]',-0.175
'[09:34:08.922]',-0.195
'[09:34:08.930]',-0.185
'[09:34:08.938]',-0.155
'[09:34:08.945]',-0.195
'[09:34:08.953]',-0.225
'[09:34:08.961]',-0.125
'[09:34:08.969]',-0.195
'[09:34:08.977]',-0.165
'[09:34:08.984]',-0.135
'[09:34:08.992]',-0.165
'[09:34:09.000]',-0.135
'[09:34:09.008]',-0.115
'[09:34:09.016]',-0.115
'[09:34:09.023]',-0.135
'[09:34:09.031]',-0.115
'[09:34:09.039]',-0.105
'[09:34:09.047]',-0.085
'[09:34:09.055]',-0.135
'[09:34:09.063]',-0.145
'[09:34:09.070]',-0.135
'[09:34:09.078]',-0.115
'[09:34:09.086]',-0.135
'[09:34:09.094]',-0.165
'[09:34:09.102]',-0.165
'[09:34:09.109]',-0.115
'[09:34:09.117]',-0.065
'[09:34:09.125]',-0.035
'[09:34:09.133]',-0.035
'[09:34:09.141]',-0.045
'[09:34:09.148]',-0.065
'[09:34:09.156]',-0.055
'[09:34:09.164]',0.005
'[09:34:09.172]',0.035
'[09:34:09.180]',-0.135
'[09:34:09.188]',-0.215
'[09:34:09.195]',-0.215
'[09:34:09.203]',-0.245
'[09:34:09.211]',-0.235
'[09:34:09.219]',-0.245
'[09:34:09.227]',-0.265
'[09:34:09.234]',-0.185
'[09:34:09.242]',-0.235
'[09:34:09.250]',-0.205
'[09:34:09.258]',-0.215
'[09:34:09.266]',-0.275
'[09:34:09.273]',-0.395
'[09:34:09.281]',-0.005
'[09:34:09.289]',1035
'[09:34:09.297]',1905
'[09:34:09.305]',1725
'[09:34:09.313]',0.285
'[09:34:09.320]',-0.525
'[09:34:09.328]',-0.495
'[09:34:09.336]',-0.335
'[09:34:09.344]',-0.265
'[09:34:09.352]',-0.235
'[09:34:09.359]',-0.275
'[09:34:09.367]',-0.255
'[09:34:09.375]',-0.195
'[09:34:09.383]',-0.185
'[09:34:09.391]',-0.175
'[09:34:09.398]',-0.195
'[09:34:09.406]',-0.175
'[09:34:09.414]',-0.175
'[09:34:09.422]',-0.145
'[09:34:09.430]',-0.145
'[09:34:09.438]',-0.075
'[09:34:09.445]',-0.075
'[09:34:09.453]',-0.085
'[09:34:09.461]',-0.055
'[09:34:09.469]',-0.005
'[09:34:09.477]',-0.025
'[09:34:09.484]',0.035
'[09:34:09.492]',0.065
'[09:34:09.500]',0.125
'[09:34:09.508]',0.155
'[09:34:09.516]',0.185
'[09:34:09.523]',0.225
'[09:34:09.531]',0.225
'[09:34:09.539]',0.195
'[09:34:09.547]',0.175
'[09:34:09.555]',0.155
'[09:34:09.563]',0.085
'[09:34:09.570]',0.005
'[09:34:09.578]',-0.065
'[09:34:09.586]',-0.105
'[09:34:09.594]',-0.125
'[09:34:09.602]',-0.145
'[09:34:09.609]',-0.175
'[09:34:09.617]',-0.135
'[09:34:09.625]',-0.145
'[09:34:09.633]',-0.165
'[09:34:09.641]',-0.155
'[09:34:09.648]',-0.065
'[09:34:09.656]',-0.175
'[09:34:09.664]',-0.135
'[09:34:09.672]',-0.095
'[09:34:09.680]',-0.135
'[09:34:09.688]',-0.135
'[09:34:09.695]',-0.085
'[09:34:09.703]',-0.125
'[09:34:09.711]',-0.075
'[09:34:09.719]',-0.065
'[09:34:09.727]',-0.075
'[09:34:09.734]',-0.125
'[09:34:09.742]',-0.135
'[09:34:09.750]',-0.115
'[09:34:09.758]',-0.125
'[09:34:09.766]',-0.115
'[09:34:09.773]',-0.125
'[09:34:09.781]',-0.105
'[09:34:09.789]',-0.025
'[09:34:09.797]',-0.085
'[09:34:09.805]',-0.045
'[09:34:09.813]',0.005
'[09:34:09.820]',-0.025
'[09:34:09.828]',0.025
'[09:34:09.836]',0.075
'[09:34:09.844]',0.085
'[09:34:09.852]',0.065
'[09:34:09.859]',-0.035
'[09:34:09.867]',-0.125
'[09:34:09.875]',-0.145
'[09:34:09.883]',-0.195
'[09:34:09.891]',-0.205
'[09:34:09.898]',-0.185
'[09:34:09.906]',-0.225
'[09:34:09.914]',-0.225
'[09:34:09.922]',-0.185
'[09:34:09.930]',-0.145
'[09:34:09.938]',-0.175
'[09:34:09.945]',-0.155
'[09:34:09.953]',-0.185
'[09:34:09.961]',-0.215
'[09:34:09.969]',0.605
'[09:34:09.977]',1705
'[09:34:09.984]',2115
'[09:34:09.992]',0.875
'[09:34:10.000]',-0.355
'[09:34:10.008]',-0.565
'[09:34:10.016]',-0.325
'[09:34:10.023]',-0.235
'[09:34:10.031]',-0.185
'[09:34:10.039]',-0.185
'[09:34:10.047]',-0.185
'[09:34:10.055]',-0.195
'[09:34:10.063]',-0.155
'[09:34:10.070]',-0.145
'[09:34:10.078]',-0.155
'[09:34:10.086]',-0.195
'[09:34:10.094]',-0.135
'[09:34:10.102]',-0.125
'[09:34:10.109]',-0.085
'[09:34:10.117]',-0.075
'[09:34:10.125]',-0.075
'[09:34:10.133]',-0.065
'[09:34:10.141]',-0.005
'[09:34:10.148]',-0.035
'[09:34:10.156]',0.025
'[09:34:10.164]',0.075
'[09:34:10.172]',0.115
'[09:34:10.180]',0.175
'[09:34:10.188]',0.165
'[09:34:10.195]',0.165
'[09:34:10.203]',0.235
'[09:34:10.211]',0.265
'[09:34:10.219]',0.225
'[09:34:10.227]',0.235
'[09:34:10.234]',0.195
'[09:34:10.242]',0.095
'[09:34:10.250]',0.085
'[09:34:10.258]',0.025
'[09:34:10.266]',-0.065
'[09:34:10.273]',-0.105
'[09:34:10.281]',-0.135
'[09:34:10.289]',-0.135
'[09:34:10.297]',-0.175
'[09:34:10.305]',-0.125
'[09:34:10.313]',-0.095
'[09:34:10.320]',-0.145
'[09:34:10.328]',-0.115
'[09:34:10.336]',-0.125
'[09:34:10.344]',-0.055
'[09:34:10.352]',-0.025
'[09:34:10.359]',-0.095
'[09:34:10.367]',-0.065
'[09:34:10.375]',-0.065
'[09:34:10.383]',-0.095
'[09:34:10.391]',-0.055
'[09:34:10.398]',-0.095
'[09:34:10.406]',-0.065
'[09:34:10.414]',-0.045
'[09:34:10.422]',-0.095
'[09:34:10.430]',-0.095
'[09:34:10.438]',-0.025
'[09:34:10.445]',-0.055
'[09:34:10.453]',-0.065
'[09:34:10.461]',-0.085
'[09:34:10.469]',-0.075
'[09:34:10.477]',0.005
'[09:34:10.484]',0.045
'[09:34:10.492]',0.025
'[09:34:10.500]',0.045
'[09:34:10.508]',-0.025
'[09:34:10.516]',0.045
'[09:34:10.523]',0.125
'[09:34:10.531]',0.125
'[09:34:10.539]',0.095
'[09:34:10.547]',0.005
'[09:34:10.555]',-0.065
'[09:34:10.563]',-0.105
'[09:34:10.570]',-0.125
'[09:34:10.578]',-0.135
'[09:34:10.586]',-0.195
'[09:34:10.594]',-0.085
'[09:34:10.602]',-0.155
'[09:34:10.609]',-0.175
'[09:34:10.617]',-0.155
'[09:34:10.625]',-0.115
'[09:34:10.633]',-0.125
'[09:34:10.641]',-0.235
'[09:34:10.648]',-0.205
'[09:34:10.656]',0.705
'[09:34:10.664]',1735
'[09:34:10.672]',2105
'[09:34:10.680]',0.825
'[09:34:10.688]',-0.365
'[09:34:10.695]',-0.485
'[09:34:10.703]',-0.305
'[09:34:10.711]',-0.205
'[09:34:10.719]',-0.225
'[09:34:10.727]',-0.185
'[09:34:10.734]',-0.145
'[09:34:10.742]',-0.155
'[09:34:10.750]',-0.165
'[09:34:10.758]',-0.125
'[09:34:10.766]',-0.135
'[09:34:10.773]',-0.115
'[09:34:10.781]',-0.115
'[09:34:10.789]',-0.065
'[09:34:10.797]',-0.105
'[09:34:10.805]',-0.055
'[09:34:10.813]',-0.055
'[09:34:10.820]',-0.035
'[09:34:10.828]',-0.025
'[09:34:10.836]',-0.005
'[09:34:10.844]',0.055
'[09:34:10.852]',0.125
'[09:34:10.859]',0.175
'[09:34:10.867]',0.135
'[09:34:10.875]',0.215
'[09:34:10.883]',0.255
'[09:34:10.891]',0.235
'[09:34:10.898]',0.255
'[09:34:10.906]',0.285
'[09:34:10.914]',0.185
'[09:34:10.922]',0.145
'[09:34:10.930]',0.055
'[09:34:10.938]',0.055
'[09:34:10.945]',-0.045
'[09:34:10.953]',-0.095
'[09:34:10.961]',-0.105
'[09:34:10.969]',-0.115
'[09:34:10.977]',-0.115
'[09:34:10.984]',-0.105
'[09:34:10.992]',-0.105
'[09:34:11.000]',-0.095
'[09:34:11.008]',-0.115
'[09:34:11.016]',-0.125
'[09:34:11.023]',-0.115
'[09:34:11.031]',-0.125
'[09:34:11.039]',-0.075
'[09:34:11.047]',-0.115
'[09:34:11.055]',-0.065
'[09:34:11.063]',-0.035
'[09:34:11.070]',-0.085
'[09:34:11.078]',-0.085
'[09:34:11.086]',-0.085
'[09:34:11.094]',-0.085
'[09:34:11.102]',-0.085
'[09:34:11.109]',-0.085
'[09:34:11.117]',-0.105
'[09:34:11.125]',-0.105
'[09:34:11.133]',-0.105
'[09:34:11.141]',-0.085
'[09:34:11.148]',-0.035
'[09:34:11.156]',-0.005
'[09:34:11.164]',-0.005
'[09:34:11.172]',0.015
'[09:34:11.180]',0.005
'[09:34:11.188]',0.025
'[09:34:11.195]',0.035
'[09:34:11.203]',0.045
'[09:34:11.211]',0.095
'[09:34:11.219]',-0.005
'[09:34:11.227]',-0.065
'[09:34:11.234]',-0.125
'[09:34:11.242]',-0.115
'[09:34:11.250]',-0.175
'[09:34:11.258]',-0.185
'[09:34:11.266]',-0.205
'[09:34:11.273]',-0.195
'[09:34:11.281]',-0.135
'[09:34:11.289]',-0.135
'[09:34:11.297]',-0.165
'[09:34:11.305]',-0.125
'[09:34:11.313]',-0.215
'[09:34:11.320]',-0.355
'[09:34:11.328]',0.175
'[09:34:11.336]',1275
'[09:34:11.344]',2095
'[09:34:11.352]',1665
'[09:34:11.359]',0.055
'[09:34:11.367]',-0.535
'[09:34:11.375]',-0.355
'[09:34:11.383]',-0.215
'[09:34:11.391]',-0.195
'[09:34:11.398]',-0.175
'[09:34:11.406]',-0.165
'[09:34:11.414]',-0.165
'[09:34:11.422]',-0.155
'[09:34:11.430]',-0.175
'[09:34:11.438]',-0.125
'[09:34:11.445]',-0.145
'[09:34:11.453]',-0.105
'[09:34:11.461]',-0.075
'[09:34:11.469]',-0.075
'[09:34:11.477]',-0.095
'[09:34:11.484]',-0.075
'[09:34:11.492]',-0.035
'[09:34:11.500]',0.035
'[09:34:11.508]',0.015
'[09:34:11.516]',-0.025
'[09:34:11.523]',0.015
'[09:34:11.531]',0.135
'[09:34:11.539]',0.175
'[09:34:11.547]',0.245
'[09:34:11.555]',0.265
'[09:34:11.563]',0.215
'[09:34:11.570]',0.245
'[09:34:11.578]',0.285
'[09:34:11.586]',0.245
'[09:34:11.594]',0.205
'[09:34:11.602]',0.095
'[09:34:11.609]',0.065
'[09:34:11.617]',0.015
'[09:34:11.625]',-0.055
'[09:34:11.633]',-0.115
'[09:34:11.641]',-0.095
'[09:34:11.648]',-0.085
'[09:34:11.656]',-0.115
'[09:34:11.664]',-0.135
'[09:34:11.672]',-0.155
'[09:34:11.680]',-0.175
'[09:34:11.688]',-0.105
'[09:34:11.695]',-0.065
'[09:34:11.703]',-0.055
'[09:34:11.711]',-0.135
'[09:34:11.719]',-0.065
'[09:34:11.727]',-0.095
'[09:34:11.734]',-0.075
'[09:34:11.742]',-0.055
'[09:34:11.750]',-0.085
'[09:34:11.758]',-0.085
'[09:34:11.766]',-0.105
'[09:34:11.773]',-0.095
'[09:34:11.781]',-0.035
'[09:34:11.789]',-0.055
'[09:34:11.797]',-0.085
'[09:34:11.805]',-0.105
'[09:34:11.813]',-0.145
'[09:34:11.820]',-0.095
'[09:34:11.828]',0.035
'[09:34:11.836]',-0.005
'[09:34:11.844]',0.005
'[09:34:11.852]',-0.035
'[09:34:11.859]',-0.005
'[09:34:11.867]',0.075
'[09:34:11.875]',0.085
'[09:34:11.883]',0.055
'[09:34:11.891]',0.015
'[09:34:11.898]',-0.025
'[09:34:11.906]',-0.115
'[09:34:11.914]',-0.155
'[09:34:11.922]',-0.135
'[09:34:11.930]',-0.245
'[09:34:11.938]',-0.165
'[09:34:11.945]',-0.165
'[09:34:11.953]',-0.185
'[09:34:11.961]',-0.175
'[09:34:11.969]',-0.135
'[09:34:11.977]',-0.155
'[09:34:11.984]',-0.175
'[09:34:11.992]',-0.295
'[09:34:12.000]',0.105
'[09:34:12.008]',1085
'[09:34:12.016]',1925
'[09:34:12.023]',1865
'[09:34:12.031]',0.385
'[09:34:12.039]',-0.475
'[09:34:12.047]',-0.425
'[09:34:12.055]',-0.215
'[09:34:12.063]',-0.175
'[09:34:12.070]',-0.185
'[09:34:12.078]',-0.175
'[09:34:12.086]',-0.145
'[09:34:12.094]',-0.135
'[09:34:12.102]',-0.105
'[09:34:12.109]',-0.115
'[09:34:12.117]',-0.115
'[09:34:12.125]',-0.115
'[09:34:12.133]',-0.095
'[09:34:12.141]',-0.075
'[09:34:12.148]',-0.055
'[09:34:12.156]',-0.045
'[09:34:12.164]',-0.035
'[09:34:12.172]',-0.025
'[09:34:12.180]',-0.035
'[09:34:12.188]',0.055
'[09:34:12.195]',0.065
'[09:34:12.203]',0.085
'[09:34:12.211]',0.155
'[09:34:12.219]',0.175
'[09:34:12.227]',0.205
'[09:34:12.234]',0.225
'[09:34:12.242]',0.225
'[09:34:12.250]',0.215
'[09:34:12.258]',0.205
'[09:34:12.266]',0.155
'[09:34:12.273]',0.065
'[09:34:12.281]',0.015
'[09:34:12.289]',-0.045
'[09:34:12.297]',-0.085
'[09:34:12.305]',-0.115
'[09:34:12.313]',-0.175
'[09:34:12.320]',-0.175
'[09:34:12.328]',-0.155
'[09:34:12.336]',-0.185
'[09:34:12.344]',-0.155
'[09:34:12.352]',-0.175
'[09:34:12.359]',-0.175
'[09:34:12.367]',-0.135
'[09:34:12.375]',-0.165
'[09:34:12.383]',-0.185
'[09:34:12.391]',-0.145
'[09:34:12.398]',-0.155
'[09:34:12.406]',-0.125
'[09:34:12.414]',-0.175
'[09:34:12.422]',-0.175
'[09:34:12.430]',-0.135
'[09:34:12.438]',-0.145
'[09:34:12.445]',-0.215
'[09:34:12.453]',-0.205
'[09:34:12.461]',-0.125
'[09:34:12.469]',-0.115
'[09:34:12.477]',-0.225
'[09:34:12.484]',-0.235
'[09:34:12.492]',-0.125
'[09:34:12.500]',-0.095
'[09:34:12.508]',-0.115
'[09:34:12.516]',-0.135
'[09:34:12.523]',-0.135
'[09:34:12.531]',-0.075
'[09:34:12.539]',-0.085
'[09:34:12.547]',-0.075
'[09:34:12.555]',-0.105
'[09:34:12.563]',-0.205
'[09:34:12.570]',-0.275
'[09:34:12.578]',-0.295
'[09:34:12.586]',-0.355
'[09:34:12.594]',-0.355
'[09:34:12.602]',-0.345
'[09:34:12.609]',-0.335
'[09:34:12.617]',-0.335
'[09:34:12.625]',-0.325
'[09:34:12.633]',-0.325
'[09:34:12.641]',-0.295
'[09:34:12.648]',-0.315
'[09:34:12.656]',-0.505
'[09:34:12.664]',-0.125
'[09:34:12.672]',1005
'[09:34:12.680]',1855
'[09:34:12.688]',1475
'[09:34:12.695]',-0.105
'[09:34:12.703]',-0.685
'[09:34:12.711]',-0.645
'[09:34:12.719]',-0.465
'[09:34:12.727]',-0.365
'[09:34:12.734]',-0.355
'[09:34:12.742]',-0.365
'[09:34:12.750]',-0.375
'[09:34:12.758]',-0.375
'[09:34:12.766]',-0.315
'[09:34:12.773]',-0.305
'[09:34:12.781]',-0.285
'[09:34:12.789]',-0.265
'[09:34:12.797]',-0.305
'[09:34:12.805]',-0.285
'[09:34:12.813]',-0.255
'[09:34:12.820]',-0.255
'[09:34:12.828]',-0.235
'[09:34:12.836]',-0.215
'[09:34:12.844]',-0.195
'[09:34:12.852]',-0.225
'[09:34:12.859]',-0.135
'[09:34:12.867]',-0.075
'[09:34:12.875]',-0.045
'[09:34:12.883]',-0.045
'[09:34:12.891]',-0.005
'[09:34:12.898]',0.015
'[09:34:12.906]',-0.025
'[09:34:12.914]',-0.005
'[09:34:12.922]',-0.015
'[09:34:12.930]',-0.055
'[09:34:12.938]',-0.115
'[09:34:12.945]',-0.205
'[09:34:12.953]',-0.235
'[09:34:12.961]',-0.305
'[09:34:12.969]',-0.305
'[09:34:12.977]',-0.305
'[09:34:12.984]',-0.375
'[09:34:12.992]',-0.415
'[09:34:13.000]',-0.395
'[09:34:13.008]',-0.445
'[09:34:13.016]',-0.385
'[09:34:13.023]',-0.365
'[09:34:13.031]',-0.365
'[09:34:13.039]',-0.355
'[09:34:13.047]',-0.355
'[09:34:13.055]',-0.345
'[09:34:13.063]',-0.335
'[09:34:13.070]',-0.335
'[09:34:13.078]',-0.355
'[09:34:13.086]',-0.305
'[09:34:13.094]',-0.315
'[09:34:13.102]',-0.315
'[09:34:13.109]',-0.345
'[09:34:13.117]',-0.305
'[09:34:13.125]',-0.255
'[09:34:13.133]',-0.255
'[09:34:13.141]',-0.245
'[09:34:13.148]',-0.215
'[09:34:13.156]',-0.215
'[09:34:13.164]',-0.245
'[09:34:13.172]',-0.195
'[09:34:13.180]',-0.095
'[09:34:13.188]',-0.135
'[09:34:13.195]',-0.265
'[09:34:13.203]',-0.305
'[09:34:13.211]',-0.365
'[09:34:13.219]',-0.395
'[09:34:13.227]',-0.405
'[09:34:13.234]',-0.385
'[09:34:13.242]',-0.395
'[09:34:13.250]',-0.385
'[09:34:13.258]',-0.375
'[09:34:13.266]',-0.325
'[09:34:13.273]',-0.385
'[09:34:13.281]',-0.375
'[09:34:13.289]',-0.365
'[09:34:13.297]',-0.555
'[09:34:13.305]',-0.065
'[09:34:13.313]',1025
'[09:34:13.320]',1855
'[09:34:13.328]',1495
'[09:34:13.336]',-0.045
'[09:34:13.344]',-0.655
'[09:34:13.352]',-0.655
'[09:34:13.359]',-0.475
'[09:34:13.367]',-0.425
'[09:34:13.375]',-0.355
'[09:34:13.383]',-0.375
'[09:34:13.391]',-0.385
'[09:34:13.398]',-0.355
'[09:34:13.406]',-0.325
'[09:34:13.414]',-0.325
'[09:34:13.422]',-0.315
'[09:34:13.430]',-0.315
'[09:34:13.438]',-0.295
'[09:34:13.445]',-0.255
'[09:34:13.453]',-0.265
'[09:34:13.461]',-0.235
'[09:34:13.469]',-0.265
'[09:34:13.477]',-0.255
'[09:34:13.484]',-0.205
'[09:34:13.492]',-0.135
'[09:34:13.500]',-0.135
'[09:34:13.508]',-0.135
'[09:34:13.516]',-0.025
'[09:34:13.523]',0.045
'[09:34:13.531]',0.055
'[09:34:13.539]',0.055
'[09:34:13.547]',0.065
'[09:34:13.555]',0.045
'[09:34:13.563]',0.065
'[09:34:13.570]',0.005
'[09:34:13.578]',-0.075
'[09:34:13.586]',-0.155
'[09:34:13.594]',-0.205
'[09:34:13.602]',-0.235
'[09:34:13.609]',-0.335
'[09:34:13.617]',-0.345
'[09:34:13.625]',-0.235
'[09:34:13.633]',-0.255
'[09:34:13.641]',-0.265
'[09:34:13.648]',-0.285
'[09:34:13.656]',-0.235
'[09:34:13.664]',-0.295
'[09:34:13.672]',-0.315
'[09:34:13.680]',-0.255
'[09:34:13.688]',-0.275
'[09:34:13.695]',-0.255
'[09:34:13.703]',-0.255
'[09:34:13.711]',-0.255
'[09:34:13.719]',-0.195
'[09:34:13.727]',-0.205
'[09:34:13.734]',-0.215
'[09:34:13.742]',-0.165
'[09:34:13.750]',-0.155
'[09:34:13.758]',-0.145
'[09:34:13.766]',-0.015
'[09:34:13.773]',-0.115
'[09:34:13.781]',-0.125
'[09:34:13.789]',-0.095
'[09:34:13.797]',-0.095
'[09:34:13.805]',-0.105
'[09:34:13.813]',-0.035
'[09:34:13.820]',-0.005
'[09:34:13.828]',-0.075
'[09:34:13.836]',-0.175
'[09:34:13.844]',-0.255
'[09:34:13.852]',-0.235
'[09:34:13.859]',-0.225
'[09:34:13.867]',-0.275
'[09:34:13.875]',-0.235
'[09:34:13.883]',-0.285
'[09:34:13.891]',-0.285
'[09:34:13.898]',-0.305
'[09:34:13.906]',-0.265
'[09:34:13.914]',-0.205
'[09:34:13.922]',-0.215
'[09:34:13.930]',-0.425
'[09:34:13.938]',-0.115
'[09:34:13.945]',1005
'[09:34:13.953]',2005
'[09:34:13.961]',2125
'[09:34:13.969]',0.405
'[09:34:13.977]',-0.585
'[09:34:13.984]',-0.555
'[09:34:13.992]',-0.305
'[09:34:14.000]',-0.265
'[09:34:14.008]',-0.245
'[09:34:14.016]',-0.235
'[09:34:14.023]',-0.215
'[09:34:14.031]',-0.205
'[09:34:14.039]',-0.195
'[09:34:14.047]',-0.195
'[09:34:14.055]',-0.235
'[09:34:14.063]',-0.175
'[09:34:14.070]',-0.115
'[09:34:14.078]',-0.125
'[09:34:14.086]',-0.085
'[09:34:14.094]',-0.085
'[09:34:14.102]',-0.065
'[09:34:14.109]',-0.085
'[09:34:14.117]',-0.075
'[09:34:14.125]',-0.035
'[09:34:14.133]',0.005
'[09:34:14.141]',0.065
'[09:34:14.148]',0.115
'[09:34:14.156]',0.185
'[09:34:14.164]',0.225
'[09:34:14.172]',0.225
'[09:34:14.180]',0.255
'[09:34:14.188]',0.255
'[09:34:14.195]',0.225
'[09:34:14.203]',0.135
'[09:34:14.211]',0.145
'[09:34:14.219]',0.065
'[09:34:14.227]',-0.015
'[09:34:14.234]',-0.045
'[09:34:14.242]',-0.035
'[09:34:14.250]',-0.045
'[09:34:14.258]',-0.075
'[09:34:14.266]',-0.055
'[09:34:14.273]',-0.055
'[09:34:14.281]',-0.045
'[09:34:14.289]',-0.025
'[09:34:14.297]',-0.035
'[09:34:14.305]',-0.055
'[09:34:14.313]',0.005
'[09:34:14.320]',0.025
'[09:34:14.328]',0.025
'[09:34:14.336]',0.025
'[09:34:14.344]',0.065
'[09:34:14.352]',0.065
'[09:34:14.359]',0.085
'[09:34:14.367]',0.095
'[09:34:14.375]',0.105
'[09:34:14.383]',0.115
'[09:34:14.391]',0.145
'[09:34:14.398]',0.135
'[09:34:14.406]',0.145
'[09:34:14.414]',0.175
'[09:34:14.422]',0.205
'[09:34:14.430]',0.235
'[09:34:14.438]',0.215
'[09:34:14.445]',0.215
'[09:34:14.453]',0.245
'[09:34:14.461]',0.265
'[09:34:14.469]',0.245
'[09:34:14.477]',0.255
'[09:34:14.484]',0.235
'[09:34:14.492]',0.165
'[09:34:14.500]',0.185
'[09:34:14.508]',0.175
'[09:34:14.516]',0.175
'[09:34:14.523]',0.185
'[09:34:14.531]',0.185
'[09:34:14.539]',0.175
'[09:34:14.547]',0.185
'[09:34:14.555]',0.185
'[09:34:14.563]',0.195
'[09:34:14.570]',0.215
'[09:34:14.578]',0.155
'[09:34:14.586]',0.165
'[09:34:14.594]',0.525
'[09:34:14.602]',0.905
'[09:34:14.609]',1045
'[09:34:14.617]',0.625
'[09:34:14.625]',0.105
'[09:34:14.633]',0.055
'[09:34:14.641]',0.135
'[09:34:14.648]',0.135
'[09:34:14.656]',0.145
'[09:34:14.664]',0.155
'[09:34:14.672]',0.145
'[09:34:14.680]',0.135
'[09:34:14.688]',0.145
'[09:34:14.695]',0.135
'[09:34:14.703]',0.145
'[09:34:14.711]',0.125
'[09:34:14.719]',0.115
'[09:34:14.727]',0.155
'[09:34:14.734]',0.135
'[09:34:14.742]',0.115
'[09:34:14.750]',0.115
'[09:34:14.758]',0.115
'[09:34:14.766]',0.105
'[09:34:14.773]',0.135
'[09:34:14.781]',0.155
'[09:34:14.789]',0.155
'[09:34:14.797]',0.155
'[09:34:14.805]',0.185
'[09:34:14.813]',0.205
'[09:34:14.820]',0.225
'[09:34:14.828]',0.235
'[09:34:14.836]',0.235
'[09:34:14.844]',0.255
'[09:34:14.852]',0.185
'[09:34:14.859]',0.145
'[09:34:14.867]',0.085
'[09:34:14.875]',0.035
'[09:34:14.883]',-0.005
'[09:34:14.891]',-0.075
'[09:34:14.898]',-0.105
'[09:34:14.906]',-0.115
'[09:34:14.914]',-0.165
'[09:34:14.922]',-0.155
'[09:34:14.930]',-0.175
'[09:34:14.938]',-0.185
'[09:34:14.945]',-0.195
'[09:34:14.953]',-0.185
'[09:34:14.961]',-0.185
'[09:34:14.969]',-0.195
'[09:34:14.977]',-0.205
'[09:34:14.984]',-0.195
'[09:34:14.992]',-0.185
'[09:34:15.000]',-0.165
'[09:34:15.008]',-0.175
'[09:34:15.016]',-0.225
'[09:34:15.023]',-0.175
'[09:34:15.031]',-0.175
'[09:34:15.039]',-0.215
'[09:34:15.047]',-0.175
'[09:34:15.055]',-0.145
'[09:34:15.063]',-0.165
'[09:34:15.070]',-0.195
'[09:34:15.078]',-0.165
'[09:34:15.086]',-0.185
'[09:34:15.094]',-0.185
'[09:34:15.102]',-0.155
'[09:34:15.109]',-0.065
'[09:34:15.117]',-0.075
'[09:34:15.125]',-0.085
'[09:34:15.133]',-0.155
'[09:34:15.141]',-0.105
'[09:34:15.148]',-0.075
'[09:34:15.156]',-0.095
'[09:34:15.164]',-0.055
'[09:34:15.172]',-0.075
'[09:34:15.180]',-0.175
'[09:34:15.188]',-0.205
'[09:34:15.195]',-0.265
'[09:34:15.203]',-0.335
'[09:34:15.211]',-0.305
'[09:34:15.219]',-0.295
'[09:34:15.227]',-0.305
'[09:34:15.234]',-0.285
'[09:34:15.242]',-0.315
'[09:34:15.250]',-0.295
'[09:34:15.258]',-0.265
'[09:34:15.266]',-0.275
'[09:34:15.273]',-0.395
'[09:34:15.281]',-0.095
'[09:34:15.289]',1015
'[09:34:15.297]',1845
'[09:34:15.305]',1935
'[09:34:15.313]',0.335
'[09:34:15.320]',-0.565
'[09:34:15.328]',-0.565
'[09:34:15.336]',-0.355
'[09:34:15.344]',-0.295
'[09:34:15.352]',-0.305
'[09:34:15.359]',-0.295
'[09:34:15.367]',-0.305
'[09:34:15.375]',-0.265
'[09:34:15.383]',-0.245
'[09:34:15.391]',-0.235
'[09:34:15.398]',-0.255
'[09:34:15.406]',-0.245
'[09:34:15.414]',-0.245
'[09:34:15.422]',-0.225
'[09:34:15.430]',-0.175
'[09:34:15.438]',-0.185
'[09:34:15.445]',-0.175
'[09:34:15.453]',-0.155
'[09:34:15.461]',-0.125
'[09:34:15.469]',-0.125
'[09:34:15.477]',-0.085
'[09:34:15.484]',-0.025
'[09:34:15.492]',0.015
'[09:34:15.500]',0.035
'[09:34:15.508]',0.105
'[09:34:15.516]',0.135
'[09:34:15.523]',0.115
'[09:34:15.531]',0.145
'[09:34:15.539]',0.135
'[09:34:15.547]',0.085
'[09:34:15.555]',-0.015
'[09:34:15.563]',-0.015
'[09:34:15.570]',-0.145
'[09:34:15.578]',-0.205
'[09:34:15.586]',-0.235
'[09:34:15.594]',-0.275
'[09:34:15.602]',-0.275
'[09:34:15.609]',-0.315
'[09:34:15.617]',-0.305
'[09:34:15.625]',-0.285
'[09:34:15.633]',-0.285
'[09:34:15.641]',-0.265
'[09:34:15.648]',-0.295
'[09:34:15.656]',-0.285
'[09:34:15.664]',-0.295
'[09:34:15.672]',-0.315
'[09:34:15.680]',-0.295
'[09:34:15.688]',-0.295
'[09:34:15.695]',-0.265
'[09:34:15.703]',-0.275
'[09:34:15.711]',-0.285
'[09:34:15.719]',-0.265
'[09:34:15.727]',-0.245
'[09:34:15.734]',-0.235
'[09:34:15.742]',-0.245
'[09:34:15.750]',-0.195
'[09:34:15.758]',-0.255
'[09:34:15.766]',-0.275
'[09:34:15.773]',-0.265
'[09:34:15.781]',-0.275
'[09:34:15.789]',-0.255
'[09:34:15.797]',-0.235
'[09:34:15.805]',-0.255
'[09:34:15.813]',-0.285
'[09:34:15.820]',-0.315
'[09:34:15.828]',-0.275
'[09:34:15.836]',-0.275
'[09:34:15.844]',-0.255
'[09:34:15.852]',-0.235
'[09:34:15.859]',-0.295
'[09:34:15.867]',-0.245
'[09:34:15.875]',-0.305
'[09:34:15.883]',-0.205
'[09:34:15.891]',-0.125
'[09:34:15.898]',-0.115
'[09:34:15.906]',-0.165
'[09:34:15.914]',-0.195
'[09:34:15.922]',-0.145
'[09:34:15.930]',-0.115
'[09:34:15.938]',-0.135
'[09:34:15.945]',-0.095
'[09:34:15.953]',-0.155
'[09:34:15.961]',-0.185
'[09:34:15.969]',-0.275
'[09:34:15.977]',-0.295
'[09:34:15.984]',-0.345
'[09:34:15.992]',-0.365
'[09:34:16.000]',-0.345
'[09:34:16.008]',-0.335
'[09:34:16.016]',-0.315
'[09:34:16.023]',-0.325
'[09:34:16.031]',-0.285
'[09:34:16.039]',-0.275
'[09:34:16.047]',-0.355
'[09:34:16.055]',-0.425
'[09:34:16.063]',0.165
'[09:34:16.070]',1405
'[09:34:16.078]',2055
'[09:34:16.086]',1695
'[09:34:16.094]',-0.175
'[09:34:16.102]',-0.775
'[09:34:16.109]',-0.535
'[09:34:16.117]',-0.325
'[09:34:16.125]',-0.345
'[09:34:16.133]',-0.385
'[09:34:16.141]',-0.305
'[09:34:16.148]',-0.335
'[09:34:16.156]',-0.315
'[09:34:16.164]',-0.315
'[09:34:16.172]',-0.305
'[09:34:16.180]',-0.255
'[09:34:16.188]',-0.255
'[09:34:16.195]',-0.285
'[09:34:16.203]',-0.295
'[09:34:16.211]',-0.235
'[09:34:16.219]',-0.215
'[09:34:16.227]',-0.195
'[09:34:16.234]',-0.165
'[09:34:16.242]',-0.155
'[09:34:16.250]',-0.105
'[09:34:16.258]',-0.095
'[09:34:16.266]',-0.055
'[09:34:16.273]',0.005
'[09:34:16.281]',0.085
'[09:34:16.289]',0.095
'[09:34:16.297]',0.135
'[09:34:16.305]',0.205
'[09:34:16.313]',0.205
'[09:34:16.320]',0.165
'[09:34:16.328]',0.165
'[09:34:16.336]',0.105
'[09:34:16.344]',0.025
'[09:34:16.352]',-0.085
'[09:34:16.359]',-0.115
'[09:34:16.367]',-0.135
'[09:34:16.375]',-0.165
'[09:34:16.383]',-0.205
'[09:34:16.391]',-0.215
'[09:34:16.398]',-0.225
'[09:34:16.406]',-0.225
'[09:34:16.414]',-0.225
'[09:34:16.422]',-0.245
'[09:34:16.430]',-0.195
'[09:34:16.438]',-0.205
'[09:34:16.445]',-0.205
'[09:34:16.453]',-0.175
'[09:34:16.461]',-0.165
'[09:34:16.469]',-0.185
'[09:34:16.477]',-0.175
'[09:34:16.484]',-0.185
'[09:34:16.492]',-0.185
'[09:34:16.500]',-0.175
'[09:34:16.508]',-0.175
'[09:34:16.516]',-0.145
'[09:34:16.523]',-0.095
'[09:34:16.531]',-0.145
'[09:34:16.539]',-0.105
'[09:34:16.547]',-0.105
'[09:34:16.555]',-0.165
'[09:34:16.563]',-0.135
'[09:34:16.570]',-0.145
'[09:34:16.578]',-0.095
'[09:34:16.586]',-0.145
'[09:34:16.594]',-0.145
'[09:34:16.602]',-0.145
'[09:34:16.609]',-0.185
'[09:34:16.617]',-0.175
'[09:34:16.625]',-0.165
'[09:34:16.633]',-0.145
'[09:34:16.641]',-0.125
'[09:34:16.648]',-0.135
'[09:34:16.656]',-0.145
'[09:34:16.664]',-0.095
'[09:34:16.672]',-0.035
'[09:34:16.680]',-0.025
'[09:34:16.688]',-0.015
'[09:34:16.695]',-0.035
'[09:34:16.703]',-0.065
'[09:34:16.711]',0.005
'[09:34:16.719]',0.025
'[09:34:16.727]',0.035
'[09:34:16.734]',-0.005
'[09:34:16.742]',-0.065
'[09:34:16.750]',-0.115
'[09:34:16.758]',-0.145
'[09:34:16.766]',-0.175
'[09:34:16.773]',-0.205
'[09:34:16.781]',-0.185
'[09:34:16.789]',-0.195
'[09:34:16.797]',-0.195
'[09:34:16.805]',-0.155
'[09:34:16.813]',-0.165
'[09:34:16.820]',-0.145
'[09:34:16.828]',-0.175
'[09:34:16.836]',-0.305
'[09:34:16.844]',0.045
'[09:34:16.852]',1025
'[09:34:16.859]',1785
'[09:34:16.867]',1835
'[09:34:16.875]',0.545
'[09:34:16.883]',-0.335
'[09:34:16.891]',-0.375
'[09:34:16.898]',-0.225
'[09:34:16.906]',-0.145
'[09:34:16.914]',-0.185
'[09:34:16.922]',-0.205
'[09:34:16.930]',-0.175
'[09:34:16.938]',-0.145
'[09:34:16.945]',-0.135
'[09:34:16.953]',-0.125
'[09:34:16.961]',-0.125
'[09:34:16.969]',-0.125
'[09:34:16.977]',-0.095
'[09:34:16.984]',-0.075
'[09:34:16.992]',-0.075
'[09:34:17.000]',-0.075
'[09:34:17.008]',-0.075
'[09:34:17.016]',-0.025
'[09:34:17.023]',0.005
'[09:34:17.031]',0.015
'[09:34:17.039]',0.045
'[09:34:17.047]',0.085
'[09:34:17.055]',0.125
'[09:34:17.063]',0.185
'[09:34:17.070]',0.225
'[09:34:17.078]',0.265
'[09:34:17.086]',0.265
'[09:34:17.094]',0.275
'[09:34:17.102]',0.285
'[09:34:17.109]',0.265
'[09:34:17.117]',0.235
'[09:34:17.125]',0.155
'[09:34:17.133]',0.105
'[09:34:17.141]',0.095
'[09:34:17.148]',0.035
'[09:34:17.156]',0.025
'[09:34:17.164]',-0.025
'[09:34:17.172]',-0.035
'[09:34:17.180]',-0.005
'[09:34:17.188]',-0.005
'[09:34:17.195]',-0.015
'[09:34:17.203]',0.015
'[09:34:17.211]',-0.005
'[09:34:17.219]',0.005
'[09:34:17.227]',0.015
'[09:34:17.234]',0.045
'[09:34:17.242]',0.065
'[09:34:17.250]',0.075
'[09:34:17.258]',0.105
'[09:34:17.266]',0.095
'[09:34:17.273]',0.085
'[09:34:17.281]',0.125
'[09:34:17.289]',0.115
'[09:34:17.297]',0.125
'[09:34:17.305]',0.125
'[09:34:17.313]',0.115
'[09:34:17.320]',0.125
'[09:34:17.328]',0.115
'[09:34:17.336]',0.135
'[09:34:17.344]',0.145
'[09:34:17.352]',0.135
'[09:34:17.359]',0.135
'[09:34:17.367]',0.155
'[09:34:17.375]',0.135
'[09:34:17.383]',0.105
'[09:34:17.391]',0.135
'[09:34:17.398]',0.135
'[09:34:17.406]',0.125
'[09:34:17.414]',0.125
'[09:34:17.422]',0.135
'[09:34:17.430]',0.135
'[09:34:17.438]',0.135
'[09:34:17.445]',0.125
'[09:34:17.453]',0.105
'[09:34:17.461]',0.145
'[09:34:17.469]',0.175
'[09:34:17.477]',0.195
'[09:34:17.484]',0.195
'[09:34:17.492]',0.165
'[09:34:17.500]',0.145
'[09:34:17.508]',0.165
'[09:34:17.516]',0.165
'[09:34:17.523]',0.165
'[09:34:17.531]',0.175
'[09:34:17.539]',0.095
'[09:34:17.547]',0.045
'[09:34:17.555]',0.045
'[09:34:17.563]',0.035
'[09:34:17.570]',0.005
'[09:34:17.578]',0.005
'[09:34:17.586]',-0.025
'[09:34:17.594]',0.005
'[09:34:17.602]',-0.025
'[09:34:17.609]',-0.025
'[09:34:17.617]',-0.005
'[09:34:17.625]',-0.075
'[09:34:17.633]',-0.125
'[09:34:17.641]',0.385
'[09:34:17.648]',1255
'[09:34:17.656]',1745
'[09:34:17.664]',1045
'[09:34:17.672]',-0.125
'[09:34:17.680]',-0.325
'[09:34:17.688]',-0.175
'[09:34:17.695]',-0.105
'[09:34:17.703]',-0.075
'[09:34:17.711]',-0.095
'[09:34:17.719]',-0.095
'[09:34:17.727]',-0.085
'[09:34:17.734]',-0.105
'[09:34:17.742]',-0.125
'[09:34:17.750]',-0.055
'[09:34:17.758]',-0.075
'[09:34:17.766]',-0.065
'[09:34:17.773]',-0.055
'[09:34:17.781]',-0.075
'[09:34:17.789]',-0.075
'[09:34:17.797]',-0.055
'[09:34:17.805]',-0.015
'[09:34:17.813]',0.005
'[09:34:17.820]',-0.015
'[09:34:17.828]',0.035
'[09:34:17.836]',0.095
'[09:34:17.844]',0.115
'[09:34:17.852]',0.145
'[09:34:17.859]',0.235
'[09:34:17.867]',0.255
'[09:34:17.875]',0.255
'[09:34:17.883]',0.225
'[09:34:17.891]',0.205
'[09:34:17.898]',0.225
'[09:34:17.906]',0.185
'[09:34:17.914]',0.135
'[09:34:17.922]',0.085
'[09:34:17.930]',0.005
'[09:34:17.938]',-0.065
'[09:34:17.945]',-0.105
'[09:34:17.953]',-0.105
'[09:34:17.961]',-0.115
'[09:34:17.969]',-0.185
'[09:34:17.977]',-0.175
'[09:34:17.984]',-0.215
'[09:34:17.992]',-0.155
'[09:34:18.000]',-0.175
'[09:34:18.008]',-0.165
'[09:34:18.016]',-0.165
'[09:34:18.023]',-0.145
'[09:34:18.031]',-0.135
'[09:34:18.039]',-0.155
'[09:34:18.047]',-0.105
'[09:34:18.055]',-0.095
'[09:34:18.063]',-0.105
'[09:34:18.070]',-0.085
'[09:34:18.078]',-0.125
'[09:34:18.086]',-0.145
'[09:34:18.094]',-0.135
'[09:34:18.102]',-0.135
'[09:34:18.109]',-0.135
'[09:34:18.117]',-0.135
'[09:34:18.125]',-0.095
'[09:34:18.133]',-0.115
'[09:34:18.141]',-0.145
'[09:34:18.148]',-0.145
'[09:34:18.156]',-0.125
'[09:34:18.164]',-0.115
'[09:34:18.172]',-0.155
'[09:34:18.180]',-0.165
'[09:34:18.188]',-0.145
'[09:34:18.195]',-0.165
'[09:34:18.203]',-0.155
'[09:34:18.211]',-0.175
'[09:34:18.219]',-0.145
'[09:34:18.227]',-0.005
'[09:34:18.234]',-0.005
'[09:34:18.242]',-0.015
'[09:34:18.250]',-0.005
'[09:34:18.258]',-0.015
'[09:34:18.266]',0.005
'[09:34:18.273]',0.045
'[09:34:18.281]',0.035
'[09:34:18.289]',-0.045
'[09:34:18.297]',-0.095
'[09:34:18.305]',-0.115
'[09:34:18.313]',-0.155
'[09:34:18.320]',-0.195
'[09:34:18.328]',-0.235
'[09:34:18.336]',-0.215
'[09:34:18.344]',-0.235
'[09:34:18.352]',-0.235
'[09:34:18.359]',-0.175
'[09:34:18.367]',-0.175
'[09:34:18.375]',-0.145
'[09:34:18.383]',-0.215
'[09:34:18.391]',-0.425
'[09:34:18.398]',0.205
'[09:34:18.406]',1265
'[09:34:18.414]',1985
'[09:34:18.422]',1465
'[09:34:18.430]',-0.165
'[09:34:18.438]',-0.605
'[09:34:18.445]',-0.395
'[09:34:18.453]',-0.255
'[09:34:18.461]',-0.265
'[09:34:18.469]',-0.255
'[09:34:18.477]',-0.215
'[09:34:18.484]',-0.205
'[09:34:18.492]',-0.225
'[09:34:18.500]',-0.225
'[09:34:18.508]',-0.185
'[09:34:18.516]',-0.155
'[09:34:18.523]',-0.205
'[09:34:18.531]',-0.205
'[09:34:18.539]',-0.165
'[09:34:18.547]',-0.155
'[09:34:18.555]',-0.125
'[09:34:18.563]',-0.135
'[09:34:18.570]',-0.105
'[09:34:18.578]',-0.065
'[09:34:18.586]',-0.055
'[09:34:18.594]',0.025
'[09:34:18.602]',0.055
'[09:34:18.609]',0.085
'[09:34:18.617]',0.145
'[09:34:18.625]',0.185
'[09:34:18.633]',0.155
'[09:34:18.641]',0.225
'[09:34:18.648]',0.155
'[09:34:18.656]',0.175
'[09:34:18.664]',0.135
'[09:34:18.672]',0.125
'[09:34:18.680]',0.035
'[09:34:18.688]',0.005
'[09:34:18.695]',-0.075
'[09:34:18.703]',-0.115
'[09:34:18.711]',-0.145
'[09:34:18.719]',-0.135
'[09:34:18.727]',-0.155
'[09:34:18.734]',-0.255
'[09:34:18.742]',-0.215
'[09:34:18.750]',-0.205
'[09:34:18.758]',-0.185
'[09:34:18.766]',-0.195
'[09:34:18.773]',-0.185
'[09:34:18.781]',-0.175
'[09:34:18.789]',-0.155
'[09:34:18.797]',-0.145
'[09:34:18.805]',-0.115
'[09:34:18.813]',-0.125
'[09:34:18.820]',-0.135
'[09:34:18.828]',-0.125
'[09:34:18.836]',-0.115
'[09:34:18.844]',-0.115
'[09:34:18.852]',-0.235
'[09:34:18.859]',-0.215
'[09:34:18.867]',-0.125
'[09:34:18.875]',-0.115
'[09:34:18.883]',-0.165
'[09:34:18.891]',-0.175
'[09:34:18.898]',-0.135
'[09:34:18.906]',-0.135
'[09:34:18.914]',-0.165
'[09:34:18.922]',-0.165
'[09:34:18.930]',-0.145
'[09:34:18.938]',-0.155
'[09:34:18.945]',-0.135
'[09:34:18.953]',-0.065
'[09:34:18.961]',-0.085
'[09:34:18.969]',-0.025
'[09:34:18.977]',-0.055
'[09:34:18.984]',-0.135
'[09:34:18.992]',-0.035
'[09:34:19.000]',0.045
'[09:34:19.008]',0.055
'[09:34:19.016]',0.025
'[09:34:19.023]',-0.095
'[09:34:19.031]',-0.115
'[09:34:19.039]',-0.155
'[09:34:19.047]',-0.205
'[09:34:19.055]',-0.255
'[09:34:19.063]',-0.225
'[09:34:19.070]',-0.215
'[09:34:19.078]',-0.165
'[09:34:19.086]',-0.195
'[09:34:19.094]',-0.225
'[09:34:19.102]',-0.225
'[09:34:19.109]',-0.225
'[09:34:19.117]',-0.385
'[09:34:19.125]',0.085
'[09:34:19.133]',1195
'[09:34:19.141]',1975
'[09:34:19.148]',1505
'[09:34:19.156]',0.035
'[09:34:19.164]',-0.595
'[09:34:19.172]',-0.465
'[09:34:19.180]',-0.285
'[09:34:19.188]',-0.235
'[09:34:19.195]',-0.245
'[09:34:19.203]',-0.245
'[09:34:19.211]',-0.255
'[09:34:19.219]',-0.265
'[09:34:19.227]',-0.275
'[09:34:19.234]',-0.215
'[09:34:19.242]',-0.155
'[09:34:19.250]',-0.195
'[09:34:19.258]',-0.235
'[09:34:19.266]',-0.125
'[09:34:19.273]',-0.125
'[09:34:19.281]',-0.205
'[09:34:19.289]',-0.125
'[09:34:19.297]',-0.075
'[09:34:19.305]',-0.065
'[09:34:19.313]',-0.035
'[09:34:19.320]',-0.025
'[09:34:19.328]',-0.045
'[09:34:19.336]',0.055
'[09:34:19.344]',0.085
'[09:34:19.352]',0.125
'[09:34:19.359]',0.195
'[09:34:19.367]',0.195
'[09:34:19.375]',0.155
'[09:34:19.383]',0.175
'[09:34:19.391]',0.145
'[09:34:19.398]',0.115
'[09:34:19.406]',0.055
'[09:34:19.414]',-0.015
'[09:34:19.422]',-0.055
'[09:34:19.430]',-0.115
'[09:34:19.438]',-0.185
'[09:34:19.445]',-0.125
'[09:34:19.453]',-0.165
'[09:34:19.461]',-0.185
'[09:34:19.469]',-0.215
'[09:34:19.477]',-0.305
'[09:34:19.484]',-0.225
'[09:34:19.492]',-0.125
'[09:34:19.500]',-0.095
'[09:34:19.508]',-0.135
'[09:34:19.516]',-0.185
'[09:34:19.523]',-0.195
'[09:34:19.531]',-0.145
'[09:34:19.539]',-0.095
'[09:34:19.547]',-0.085
'[09:34:19.555]',-0.125
'[09:34:19.563]',-0.145
'[09:34:19.570]',-0.105
'[09:34:19.578]',-0.115
'[09:34:19.586]',-0.095
'[09:34:19.594]',-0.125
'[09:34:19.602]',-0.145
'[09:34:19.609]',-0.125
'[09:34:19.617]',-0.135
'[09:34:19.625]',-0.095
'[09:34:19.633]',-0.125
'[09:34:19.641]',-0.135
'[09:34:19.648]',-0.145
'[09:34:19.656]',-0.015
'[09:34:19.664]',0.005
'[09:34:19.672]',0.035
'[09:34:19.680]',0.015
'[09:34:19.688]',-0.015
'[09:34:19.695]',-0.015
'[09:34:19.703]',0.085
'[09:34:19.711]',0.085
'[09:34:19.719]',0.025
'[09:34:19.727]',-0.005
'[09:34:19.734]',-0.085
'[09:34:19.742]',-0.205
'[09:34:19.750]',-0.165
'[09:34:19.758]',-0.155
'[09:34:19.766]',-0.155
'[09:34:19.773]',-0.165
'[09:34:19.781]',-0.195
'[09:34:19.789]',-0.235
'[09:34:19.797]',-0.155
'[09:34:19.805]',-0.145
'[09:34:19.813]',-0.195
'[09:34:19.820]',-0.385
'[09:34:19.828]',0.135
'[09:34:19.836]',1145
'[09:34:19.844]',1985
'[09:34:19.852]',1655
'[09:34:19.859]',0.125
'[09:34:19.867]',-0.515
'[09:34:19.875]',-0.395
'[09:34:19.883]',-0.255
'[09:34:19.891]',-0.225
'[09:34:19.898]',-0.225
'[09:34:19.906]',-0.165
'[09:34:19.914]',-0.185
'[09:34:19.922]',-0.185
'[09:34:19.930]',-0.215
'[09:34:19.938]',-0.175
'[09:34:19.945]',-0.175
'[09:34:19.953]',-0.175
'[09:34:19.961]',-0.205
'[09:34:19.969]',-0.075
'[09:34:19.977]',-0.135
'[09:34:19.984]',-0.175
'[09:34:19.992]',-0.105
'[09:34:20.000]',-0.005
'[09:34:20.008]',-0.035
'[09:34:20.016]',-0.225
'[09:34:20.023]',0.065
'[09:34:20.031]',0.155
'[09:34:20.039]',0.115
'[09:34:20.047]',0.095
'[09:34:20.055]',0.105
'[09:34:20.063]',0.135
'[09:34:20.070]',0.145
'[09:34:20.078]',0.155
'[09:34:20.086]',0.145
'[09:34:20.094]',0.115
'[09:34:20.102]',0.075
'[09:34:20.109]',0.005
'[09:34:20.117]',-0.055
'[09:34:20.125]',-0.105
'[09:34:20.133]',-0.145
'[09:34:20.141]',-0.205
'[09:34:20.148]',-0.165
'[09:34:20.156]',-0.185
'[09:34:20.164]',-0.215
'[09:34:20.172]',-0.195
'[09:34:20.180]',-0.185
'[09:34:20.188]',-0.245
'[09:34:20.195]',-0.175
'[09:34:20.203]',-0.135
'[09:34:20.211]',-0.135
'[09:34:20.219]',-0.175
'[09:34:20.227]',-0.145
'[09:34:20.234]',-0.135
'[09:34:20.242]',-0.135
'[09:34:20.250]',-0.165
'[09:34:20.258]',-0.185
'[09:34:20.266]',-0.205
'[09:34:20.273]',-0.215
'[09:34:20.281]',-0.155
'[09:34:20.289]',-0.195
'[09:34:20.297]',-0.185
'[09:34:20.305]',-0.195
'[09:34:20.313]',-0.215
'[09:34:20.320]',-0.165
'[09:34:20.328]',-0.115
'[09:34:20.336]',-0.115
'[09:34:20.344]',-0.125
'[09:34:20.352]',-0.145
'[09:34:20.359]',-0.125
'[09:34:20.367]',-0.115
'[09:34:20.375]',-0.075
'[09:34:20.383]',-0.075
'[09:34:20.391]',-0.145
'[09:34:20.398]',-0.225
'[09:34:20.406]',-0.255
'[09:34:20.414]',-0.305
'[09:34:20.422]',-0.395
'[09:34:20.430]',-0.325
'[09:34:20.438]',-0.315
'[09:34:20.445]',-0.325
'[09:34:20.453]',-0.355
'[09:34:20.461]',-0.315
'[09:34:20.469]',-0.295
'[09:34:20.477]',-0.275
'[09:34:20.484]',-0.395
'[09:34:20.492]',-0.345
'[09:34:20.500]',0.385
'[09:34:20.508]',1355
'[09:34:20.516]',1795
'[09:34:20.523]',0.745
'[09:34:20.531]',-0.375
'[09:34:20.539]',-0.575
'[09:34:20.547]',-0.435
'[09:34:20.555]',-0.325
'[09:34:20.563]',-0.345
'[09:34:20.570]',-0.305
'[09:34:20.578]',-0.245
'[09:34:20.586]',-0.275
'[09:34:20.594]',-0.275
'[09:34:20.602]',-0.205
'[09:34:20.609]',-0.215
'[09:34:20.617]',-0.175
'[09:34:20.625]',-0.145
'[09:34:20.633]',-0.165
'[09:34:20.641]',-0.145
'[09:34:20.648]',-0.115
'[09:34:20.656]',-0.155
'[09:34:20.664]',-0.045
'[09:34:20.672]',-0.025
'[09:34:20.680]',-0.045
'[09:34:20.688]',-0.005
'[09:34:20.695]',0.015
'[09:34:20.703]',0.045
'[09:34:20.711]',0.095
'[09:34:20.719]',0.115
'[09:34:20.727]',0.145
'[09:34:20.734]',0.155
'[09:34:20.742]',0.125
'[09:34:20.750]',0.155
'[09:34:20.758]',0.135
'[09:34:20.766]',0.105
'[09:34:20.773]',0.085
'[09:34:20.781]',-0.005
'[09:34:20.789]',-0.045
'[09:34:20.797]',-0.025
'[09:34:20.805]',-0.045
'[09:34:20.813]',-0.055
'[09:34:20.820]',-0.095
'[09:34:20.828]',-0.095
'[09:34:20.836]',-0.095
'[09:34:20.844]',-0.115
'[09:34:20.852]',-0.115
'[09:34:20.859]',-0.125
'[09:34:20.867]',-0.105
'[09:34:20.875]',-0.075
'[09:34:20.883]',-0.075
'[09:34:20.891]',-0.145
'[09:34:20.898]',-0.085
'[09:34:20.906]',-0.075
'[09:34:20.914]',-0.105
'[09:34:20.922]',-0.095
'[09:34:20.930]',-0.135
'[09:34:20.938]',-0.115
'[09:34:20.945]',-0.105
'[09:34:20.953]',-0.145
'[09:34:20.961]',-0.145
'[09:34:20.969]',-0.035
'[09:34:20.977]',0.005
'[09:34:20.984]',-0.045
'[09:34:20.992]',-0.105
'[09:34:21.000]',-0.075
'[09:34:21.008]',-0.015
'[09:34:21.016]',-0.005
'[09:34:21.023]',0.005
'[09:34:21.031]',-0.035
'[09:34:21.039]',-0.115
'[09:34:21.047]',-0.165
'[09:34:21.055]',-0.215
'[09:34:21.063]',-0.285
'[09:34:21.070]',-0.245
'[09:34:21.078]',-0.215
'[09:34:21.086]',-0.255
'[09:34:21.094]',-0.235
'[09:34:21.102]',-0.235
'[09:34:21.109]',-0.235
'[09:34:21.117]',-0.205
'[09:34:21.125]',-0.265
'[09:34:21.133]',-0.435
'[09:34:21.141]',0.175
'[09:34:21.148]',1255
'[09:34:21.156]',1975
'[09:34:21.164]',1425
'[09:34:21.172]',-0.095
'[09:34:21.180]',-0.545
'[09:34:21.188]',-0.435
'[09:34:21.195]',-0.305
'[09:34:21.203]',-0.255
'[09:34:21.211]',-0.355
'[09:34:21.219]',-0.265
'[09:34:21.227]',-0.215
'[09:34:21.234]',-0.195
'[09:34:21.242]',-0.255
'[09:34:21.250]',-0.265
'[09:34:21.258]',-0.195
'[09:34:21.266]',-0.225
'[09:34:21.273]',-0.215
'[09:34:21.281]',-0.165
'[09:34:21.289]',-0.175
'[09:34:21.297]',-0.165
'[09:34:21.305]',-0.145
'[09:34:21.313]',-0.175
'[09:34:21.320]',-0.115
'[09:34:21.328]',-0.055
'[09:34:21.336]',-0.015
'[09:34:21.344]',-0.025
'[09:34:21.352]',0.015
'[09:34:21.359]',0.105
'[09:34:21.367]',0.135
'[09:34:21.375]',0.105
'[09:34:21.383]',0.125
'[09:34:21.391]',0.155
'[09:34:21.398]',0.065
'[09:34:21.406]',0.055
'[09:34:21.414]',0.035
'[09:34:21.422]',0.055
'[09:34:21.430]',-0.075
'[09:34:21.438]',-0.135
'[09:34:21.445]',-0.145
'[09:34:21.453]',-0.195
'[09:34:21.461]',-0.185
'[09:34:21.469]',-0.175
'[09:34:21.477]',-0.225
'[09:34:21.484]',-0.185
'[09:34:21.492]',-0.175
'[09:34:21.500]',-0.165
'[09:34:21.508]',-0.155
'[09:34:21.516]',-0.135
'[09:34:21.523]',-0.105
'[09:34:21.531]',-0.115
'[09:34:21.539]',-0.105
'[09:34:21.547]',-0.085
'[09:34:21.555]',-0.095
'[09:34:21.563]',-0.105
'[09:34:21.570]',-0.095
'[09:34:21.578]',-0.055
'[09:34:21.586]',-0.075
'[09:34:21.594]',-0.025
'[09:34:21.602]',0.035
'[09:34:21.609]',0.025
'[09:34:21.617]',0.005
'[09:34:21.625]',0.015
'[09:34:21.633]',0.015
'[09:34:21.641]',0.075
'[09:34:21.648]',0.095
'[09:34:21.656]',0.055
'[09:34:21.664]',0.035
'[09:34:21.672]',-0.065
'[09:34:21.680]',-0.105
'[09:34:21.688]',-0.145
'[09:34:21.695]',-0.165
'[09:34:21.703]',-0.165
'[09:34:21.711]',-0.115
'[09:34:21.719]',-0.125
'[09:34:21.727]',-0.145
'[09:34:21.734]',-0.095
'[09:34:21.742]',-0.095
'[09:34:21.750]',-0.145
'[09:34:21.758]',-0.135
'[09:34:21.766]',-0.195
'[09:34:21.773]',0.255
'[09:34:21.781]',1075
'[09:34:21.789]',1585
'[09:34:21.797]',1325
'[09:34:21.805]',0.295
'[09:34:21.813]',-0.125
'[09:34:21.820]',-0.085
'[09:34:21.828]',0.025
'[09:34:21.836]',0.055
'[09:34:21.844]',0.105
'[09:34:21.852]',0.135
'[09:34:21.859]',0.145
'[09:34:21.867]',0.165
'[09:34:21.875]',0.185
'[09:34:21.883]',0.205
'[09:34:21.891]',0.225
'[09:34:21.898]',0.245
'[09:34:21.906]',0.255
'[09:34:21.914]',0.275
'[09:34:21.922]',0.265
'[09:34:21.930]',0.295
'[09:34:21.938]',0.305
'[09:34:21.945]',0.305
'[09:34:21.953]',0.305
'[09:34:21.961]',0.335
'[09:34:21.969]',0.345
'[09:34:21.977]',0.345
'[09:34:21.984]',0.355
'[09:34:21.992]',0.355
'[09:34:22.000]',0.375
'[09:34:22.008]',0.365
'[09:34:22.016]',0.365
'[09:34:22.023]',0.375
'[09:34:22.031]',0.385
'[09:34:22.039]',0.375
'[09:34:22.047]',0.365
'[09:34:22.055]',0.355
'[09:34:22.063]',0.365
'[09:34:22.070]',0.365
'[09:34:22.078]',0.355
'[09:34:22.086]',0.355
'[09:34:22.094]',0.355
'[09:34:22.102]',0.345
'[09:34:22.109]',0.355
'[09:34:22.117]',0.355
'[09:34:22.125]',0.365
'[09:34:22.133]',0.355
'[09:34:22.141]',0.355
'[09:34:22.148]',0.355
'[09:34:22.156]',0.355
'[09:34:22.164]',0.365
'[09:34:22.172]',0.355
'[09:34:22.180]',0.355
'[09:34:22.188]',0.355
'[09:34:22.195]',0.355
'[09:34:22.203]',0.355
'[09:34:22.211]',0.355
'[09:34:22.219]',0.355
'[09:34:22.227]',0.355
'[09:34:22.234]',0.355
'[09:34:22.242]',0.345
'[09:34:22.250]',0.345
'[09:34:22.258]',0.355
'[09:34:22.266]',0.345
'[09:34:22.273]',0.335
'[09:34:22.281]',0.335
'[09:34:22.289]',0.325
'[09:34:22.297]',0.325
'[09:34:22.305]',0.315
'[09:34:22.313]',0.305
'[09:34:22.320]',0.295
'[09:34:22.328]',0.295
'[09:34:22.336]',0.285
'[09:34:22.344]',0.295
'[09:34:22.352]',0.295
'[09:34:22.359]',0.285
'[09:34:22.367]',0.315
'[09:34:22.375]',0.245
'[09:34:22.383]',0.235
'[09:34:22.391]',0.365
'[09:34:22.398]',0.565
'[09:34:22.406]',0.685
'[09:34:22.414]',0.505
'[09:34:22.422]',0.245
'[09:34:22.430]',0.165
'[09:34:22.438]',0.205
'[09:34:22.445]',0.225
'[09:34:22.453]',0.215
'[09:34:22.461]',0.195
'[09:34:22.469]',0.185
'[09:34:22.477]',0.165
'[09:34:22.484]',0.185
'[09:34:22.492]',0.165
'[09:34:22.500]',0.185
'[09:34:22.508]',0.165
'[09:34:22.516]',0.145
'[09:34:22.523]',0.145
'[09:34:22.531]',0.145
'[09:34:22.539]',0.145
'[09:34:22.547]',0.085
'[09:34:22.555]',0.115
'[09:34:22.563]',0.135
'[09:34:22.570]',0.125
'[09:34:22.578]',0.115
'[09:34:22.586]',0.165
'[09:34:22.594]',0.165
'[09:34:22.602]',0.175
'[09:34:22.609]',0.185
'[09:34:22.617]',0.185
'[09:34:22.625]',0.145
'[09:34:22.633]',0.175
'[09:34:22.641]',0.215
'[09:34:22.648]',0.145
'[09:34:22.656]',0.185
'[09:34:22.664]',0.105
'[09:34:22.672]',0.005
'[09:34:22.680]',-0.035
'[09:34:22.688]',0.055
'[09:34:22.695]',-0.065
'[09:34:22.703]',-0.095
'[09:34:22.711]',-0.145
'[09:34:22.719]',-0.105
'[09:34:22.727]',-0.095
'[09:34:22.734]',-0.105
'[09:34:22.742]',-0.085
'[09:34:22.750]',-0.135
'[09:34:22.758]',-0.155
'[09:34:22.766]',-0.125
'[09:34:22.773]',-0.095
'[09:34:22.781]',-0.095
'[09:34:22.789]',-0.125
'[09:34:22.797]',-0.145
'[09:34:22.805]',-0.225
'[09:34:22.813]',-0.085
'[09:34:22.820]',-0.055
'[09:34:22.828]',-0.065
'[09:34:22.836]',-0.075
'[09:34:22.844]',-0.025
'[09:34:22.852]',-0.055
'[09:34:22.859]',-0.085
'[09:34:22.867]',-0.075
'[09:34:22.875]',-0.055
'[09:34:22.883]',-0.055
'[09:34:22.891]',-0.055
'[09:34:22.898]',-0.125
'[09:34:22.906]',-0.215
'[09:34:22.914]',-0.225
'[09:34:22.922]',-0.265
'[09:34:22.930]',-0.285
'[09:34:22.938]',-0.325
'[09:34:22.945]',-0.335
'[09:34:22.953]',-0.325
'[09:34:22.961]',-0.245
'[09:34:22.969]',-0.225
'[09:34:22.977]',-0.255
'[09:34:22.984]',-0.305
'[09:34:22.992]',-0.475
'[09:34:23.000]',0.005
'[09:34:23.008]',1035
'[09:34:23.016]',1795
'[09:34:23.023]',1395
'[09:34:23.031]',0.035
'[09:34:23.039]',-0.485
'[09:34:23.047]',-0.395
'[09:34:23.055]',-0.305
'[09:34:23.063]',-0.295
'[09:34:23.070]',-0.265
'[09:34:23.078]',-0.265
'[09:34:23.086]',-0.265
'[09:34:23.094]',-0.235
'[09:34:23.102]',-0.235
'[09:34:23.109]',-0.205
'[09:34:23.117]',-0.225
'[09:34:23.125]',-0.265
'[09:34:23.133]',-0.205
'[09:34:23.141]',-0.175
'[09:34:23.148]',-0.175
'[09:34:23.156]',-0.205
'[09:34:23.164]',-0.185
'[09:34:23.172]',-0.145
'[09:34:23.180]',-0.155
'[09:34:23.188]',-0.115
'[09:34:23.195]',-0.135
'[09:34:23.203]',-0.095
'[09:34:23.211]',-0.055
'[09:34:23.219]',-0.025
'[09:34:23.227]',-0.005
'[09:34:23.234]',-0.025
'[09:34:23.242]',-0.015
'[09:34:23.250]',0.005
'[09:34:23.258]',-0.005
'[09:34:23.266]',-0.055
'[09:34:23.273]',-0.125
'[09:34:23.281]',-0.155
'[09:34:23.289]',-0.165
'[09:34:23.297]',-0.225
'[09:34:23.305]',-0.265
'[09:34:23.313]',-0.285
'[09:34:23.320]',-0.325
'[09:34:23.328]',-0.355
'[09:34:23.336]',-0.365
'[09:34:23.344]',-0.295
'[09:34:23.352]',-0.305
'[09:34:23.359]',-0.305
'[09:34:23.367]',-0.305
'[09:34:23.375]',-0.305
'[09:34:23.383]',-0.315
'[09:34:23.391]',-0.295
'[09:34:23.398]',-0.315
'[09:34:23.406]',-0.265
'[09:34:23.414]',-0.265
'[09:34:23.422]',-0.275
'[09:34:23.430]',-0.225
'[09:34:23.438]',-0.185
'[09:34:23.445]',-0.195
'[09:34:23.453]',-0.195
'[09:34:23.461]',-0.165
'[09:34:23.469]',-0.175
'[09:34:23.477]',-0.165
'[09:34:23.484]',-0.165
'[09:34:23.492]',-0.155
'[09:34:23.500]',-0.205
'[09:34:23.508]',-0.255
'[09:34:23.516]',-0.325
'[09:34:23.523]',-0.345
'[09:34:23.531]',-0.365
'[09:34:23.539]',-0.435
'[09:34:23.547]',-0.355
'[09:34:23.555]',-0.355
'[09:34:23.563]',-0.365
'[09:34:23.570]',-0.355
'[09:34:23.578]',-0.375
'[09:34:23.586]',-0.355
'[09:34:23.594]',-0.455
'[09:34:23.602]',-0.515
'[09:34:23.609]',0.135
'[09:34:23.617]',1105
'[09:34:23.625]',1545
'[09:34:23.633]',0.705
'[09:34:23.641]',-0.355
'[09:34:23.648]',-0.605
'[09:34:23.656]',-0.505
'[09:34:23.664]',-0.465
'[09:34:23.672]',-0.405
'[09:34:23.680]',-0.425
'[09:34:23.688]',-0.425
'[09:34:23.695]',-0.395
'[09:34:23.703]',-0.405
'[09:34:23.711]',-0.465
'[09:34:23.719]',-0.435
'[09:34:23.727]',-0.405
'[09:34:23.734]',-0.415
'[09:34:23.742]',-0.425
'[09:34:23.750]',-0.425
'[09:34:23.758]',-0.405
'[09:34:23.766]',-0.425
'[09:34:23.773]',-0.385
'[09:34:23.781]',-0.395
'[09:34:23.789]',-0.365
'[09:34:23.797]',-0.355
'[09:34:23.805]',-0.315
'[09:34:23.813]',-0.275
'[09:34:23.820]',-0.225
'[09:34:23.828]',-0.225
'[09:34:23.836]',-0.235
'[09:34:23.844]',-0.205
'[09:34:23.852]',-0.195
'[09:34:23.859]',-0.185
'[09:34:23.867]',-0.215
'[09:34:23.875]',-0.275
'[09:34:23.883]',-0.295
'[09:34:23.891]',-0.375
'[09:34:23.898]',-0.465
'[09:34:23.906]',-0.445
'[09:34:23.914]',-0.445
'[09:34:23.922]',-0.455
'[09:34:23.930]',-0.475
'[09:34:23.938]',-0.485
'[09:34:23.945]',-0.505
'[09:34:23.953]',-0.475
'[09:34:23.961]',-0.475
'[09:34:23.969]',-0.475
'[09:34:23.977]',-0.435
'[09:34:23.984]',-0.405
'[09:34:23.992]',-0.435
'[09:34:24.000]',-0.355
'[09:34:24.008]',-0.405
'[09:34:24.016]',-0.385
'[09:34:24.023]',-0.365
'[09:34:24.031]',-0.315
'[09:34:24.039]',-0.275
'[09:34:24.047]',-0.255
'[09:34:24.055]',-0.265
'[09:34:24.063]',-0.355
'[09:34:24.070]',-0.255
'[09:34:24.078]',-0.235
'[09:34:24.086]',-0.215
'[09:34:24.094]',-0.195
'[09:34:24.102]',-0.375
'[09:34:24.109]',-0.355
'[09:34:24.117]',-0.395
'[09:34:24.125]',-0.475
'[09:34:24.133]',-0.475
'[09:34:24.141]',-0.445
'[09:34:24.148]',-0.455
'[09:34:24.156]',-0.465
'[09:34:24.164]',-0.435
'[09:34:24.172]',-0.435
'[09:34:24.180]',-0.445
'[09:34:24.188]',-0.415
'[09:34:24.195]',-0.555
'[09:34:24.203]',-0.635
'[09:34:24.211]',0.295
'[09:34:24.219]',1505
'[09:34:24.227]',1995
'[09:34:24.234]',0.765
'[09:34:24.242]',-0.605
'[09:34:24.250]',-0.725
'[09:34:24.258]',-0.485
'[09:34:24.266]',-0.375
'[09:34:24.273]',-0.405
'[09:34:24.281]',-0.435
'[09:34:24.289]',-0.395
'[09:34:24.297]',-0.365
'[09:34:24.305]',-0.355
'[09:34:24.313]',-0.375
'[09:34:24.320]',-0.335
'[09:34:24.328]',-0.345
'[09:34:24.336]',-0.305
'[09:34:24.344]',-0.325
'[09:34:24.352]',-0.265
'[09:34:24.359]',-0.295
'[09:34:24.367]',-0.215
'[09:34:24.375]',-0.225
'[09:34:24.383]',-0.215
'[09:34:24.391]',-0.225
'[09:34:24.398]',-0.165
'[09:34:24.406]',-0.095
'[09:34:24.414]',-0.095
'[09:34:24.422]',-0.065
'[09:34:24.430]',-0.045
'[09:34:24.438]',0.015
'[09:34:24.445]',-0.015
'[09:34:24.453]',-0.015
'[09:34:24.461]',0.005
'[09:34:24.469]',-0.005
'[09:34:24.477]',-0.085
'[09:34:24.484]',-0.115
'[09:34:24.492]',-0.155
'[09:34:24.500]',-0.215
'[09:34:24.508]',-0.215
'[09:34:24.516]',-0.255
'[09:34:24.523]',-0.275
'[09:34:24.531]',-0.275
'[09:34:24.539]',-0.285
'[09:34:24.547]',-0.315
'[09:34:24.555]',-0.295
'[09:34:24.563]',-0.265
'[09:34:24.570]',-0.255
'[09:34:24.578]',-0.215
'[09:34:24.586]',-0.195
'[09:34:24.594]',-0.215
'[09:34:24.602]',-0.235
'[09:34:24.609]',-0.185
'[09:34:24.617]',-0.205
'[09:34:24.625]',-0.145
'[09:34:24.633]',-0.095
'[09:34:24.641]',-0.075
'[09:34:24.648]',-0.085
'[09:34:24.656]',-0.115
'[09:34:24.664]',-0.115
'[09:34:24.672]',-0.105
'[09:34:24.680]',-0.045
'[09:34:24.688]',-0.075
'[09:34:24.695]',-0.085
'[09:34:24.703]',-0.175
'[09:34:24.711]',-0.205
'[09:34:24.719]',-0.235
'[09:34:24.727]',-0.265
'[09:34:24.734]',-0.315
'[09:34:24.742]',-0.345
'[09:34:24.750]',-0.295
'[09:34:24.758]',-0.305
'[09:34:24.766]',-0.335
'[09:34:24.773]',-0.295
'[09:34:24.781]',-0.355
'[09:34:24.789]',-0.275
'[09:34:24.797]',-0.445
'[09:34:24.805]',-0.345
'[09:34:24.813]',0.775
'[09:34:24.820]',1745
'[09:34:24.828]',1865
'[09:34:24.836]',0.425
'[09:34:24.844]',-0.515
'[09:34:24.852]',-0.555
'[09:34:24.859]',-0.365
'[09:34:24.867]',-0.335
'[09:34:24.875]',-0.315
'[09:34:24.883]',-0.325
'[09:34:24.891]',-0.315
'[09:34:24.898]',-0.345
'[09:34:24.906]',-0.325
'[09:34:24.914]',-0.235
'[09:34:24.922]',-0.255
'[09:34:24.930]',-0.265
'[09:34:24.938]',-0.245
'[09:34:24.945]',-0.225
'[09:34:24.953]',-0.225
'[09:34:24.961]',-0.205
'[09:34:24.969]',-0.215
'[09:34:24.977]',-0.185
'[09:34:24.984]',-0.165
'[09:34:24.992]',-0.145
'[09:34:25.000]',-0.085
'[09:34:25.008]',0.005
'[09:34:25.016]',0.005
'[09:34:25.023]',-0.005
'[09:34:25.031]',0.035
'[09:34:25.039]',0.045
'[09:34:25.047]',0.095
'[09:34:25.055]',0.055
'[09:34:25.063]',0.075
'[09:34:25.070]',0.025
'[09:34:25.078]',-0.015
'[09:34:25.086]',-0.105
'[09:34:25.094]',-0.125
'[09:34:25.102]',-0.085
'[09:34:25.109]',-0.135
'[09:34:25.117]',-0.195
'[09:34:25.125]',-0.155
'[09:34:25.133]',-0.155
'[09:34:25.141]',-0.185
'[09:34:25.148]',-0.165
'[09:34:25.156]',-0.115
'[09:34:25.164]',-0.135
'[09:34:25.172]',-0.155
'[09:34:25.180]',-0.125
'[09:34:25.188]',-0.095
'[09:34:25.195]',-0.085
'[09:34:25.203]',-0.085
'[09:34:25.211]',-0.085
'[09:34:25.219]',-0.085
'[09:34:25.227]',-0.055
'[09:34:25.234]',0.005
'[09:34:25.242]',-0.005
'[09:34:25.250]',-0.005
'[09:34:25.258]',-0.005
'[09:34:25.266]',0.005
'[09:34:25.273]',0.035
'[09:34:25.281]',0.005
'[09:34:25.289]',0.025
'[09:34:25.297]',-0.015
'[09:34:25.305]',-0.055
'[09:34:25.313]',-0.115
'[09:34:25.320]',-0.155
'[09:34:25.328]',-0.205
'[09:34:25.336]',-0.245
'[09:34:25.344]',-0.195
'[09:34:25.352]',-0.205
'[09:34:25.359]',-0.205
'[09:34:25.367]',-0.205
'[09:34:25.375]',-0.225
'[09:34:25.383]',-0.125
'[09:34:25.391]',-0.235
'[09:34:25.398]',-0.375
'[09:34:25.406]',0.245
'[09:34:25.414]',1315
'[09:34:25.422]',1835
'[09:34:25.430]',1005
'[09:34:25.438]',-0.085
'[09:34:25.445]',-0.395
'[09:34:25.453]',-0.255
'[09:34:25.461]',-0.185
'[09:34:25.469]',-0.115
'[09:34:25.477]',-0.135
'[09:34:25.484]',-0.115
'[09:34:25.492]',-0.105
'[09:34:25.500]',-0.125
'[09:34:25.508]',-0.095
'[09:34:25.516]',-0.095
'[09:34:25.523]',-0.085
'[09:34:25.531]',-0.055
'[09:34:25.539]',-0.065
'[09:34:25.547]',-0.055
'[09:34:25.555]',-0.065
'[09:34:25.563]',-0.045
'[09:34:25.570]',-0.015
'[09:34:25.578]',-0.005
'[09:34:25.586]',-0.025
'[09:34:25.594]',0.015
'[09:34:25.602]',0.035
'[09:34:25.609]',0.045
'[09:34:25.617]',0.085
'[09:34:25.625]',0.125
'[09:34:25.633]',0.095
'[09:34:25.641]',0.145
'[09:34:25.648]',0.145
'[09:34:25.656]',0.155
'[09:34:25.664]',0.145
'[09:34:25.672]',0.115
'[09:34:25.680]',0.085
'[09:34:25.688]',0.005
'[09:34:25.695]',-0.055
'[09:34:25.703]',-0.075
'[09:34:25.711]',-0.075
'[09:34:25.719]',-0.125
'[09:34:25.727]',-0.145
'[09:34:25.734]',-0.175
'[09:34:25.742]',-0.165
'[09:34:25.750]',-0.145
'[09:34:25.758]',-0.145
'[09:34:25.766]',-0.165
'[09:34:25.773]',-0.115
'[09:34:25.781]',-0.085
'[09:34:25.789]',-0.115
'[09:34:25.797]',-0.135
'[09:34:25.805]',-0.125
'[09:34:25.813]',-0.055
'[09:34:25.820]',-0.115
'[09:34:25.828]',-0.135
'[09:34:25.836]',-0.005
'[09:34:25.844]',0.025
'[09:34:25.852]',-0.005
'[09:34:25.859]',-0.025
'[09:34:25.867]',-0.045
'[09:34:25.875]',-0.045
'[09:34:25.883]',0.045
'[09:34:25.891]',0.025
'[09:34:25.898]',0.025
'[09:34:25.906]',-0.065
'[09:34:25.914]',-0.095
'[09:34:25.922]',-0.205
'[09:34:25.930]',-0.225
'[09:34:25.938]',-0.225
'[09:34:25.945]',-0.225
'[09:34:25.953]',-0.255
'[09:34:25.961]',-0.285
'[09:34:25.969]',-0.245
'[09:34:25.977]',-0.285
'[09:34:25.984]',-0.145
'[09:34:25.992]',-0.195
'[09:34:26.000]',-0.435
'[09:34:26.008]',-0.075
'[09:34:26.016]',1075
'[09:34:26.023]',2015
'[09:34:26.031]',1725
'[09:34:26.039]',0.095
'[09:34:26.047]',-0.555
'[09:34:26.055]',-0.415
'[09:34:26.063]',-0.235
'[09:34:26.070]',-0.215
'[09:34:26.078]',-0.205
'[09:34:26.086]',-0.235
'[09:34:26.094]',-0.225
'[09:34:26.102]',-0.205
'[09:34:26.109]',-0.225
'[09:34:26.117]',-0.155
'[09:34:26.125]',-0.165
'[09:34:26.133]',-0.145
'[09:34:26.141]',-0.115
'[09:34:26.148]',-0.125
'[09:34:26.156]',-0.125
'[09:34:26.164]',-0.145
'[09:34:26.172]',-0.095
'[09:34:26.180]',-0.065
'[09:34:26.188]',-0.075
'[09:34:26.195]',0.015
'[09:34:26.203]',0.035
'[09:34:26.211]',0.055
'[09:34:26.219]',0.085
'[09:34:26.227]',0.105
'[09:34:26.234]',0.105
'[09:34:26.242]',0.135
'[09:34:26.250]',0.145
'[09:34:26.258]',0.115
'[09:34:26.266]',0.105
'[09:34:26.273]',0.065
'[09:34:26.281]',-0.005
'[09:34:26.289]',-0.055
'[09:34:26.297]',-0.095
'[09:34:26.305]',-0.105
'[09:34:26.313]',-0.105
'[09:34:26.320]',-0.135
'[09:34:26.328]',-0.175
'[09:34:26.336]',-0.205
'[09:34:26.344]',-0.175
'[09:34:26.352]',-0.115
'[09:34:26.359]',-0.135
'[09:34:26.367]',-0.175
'[09:34:26.375]',-0.165
'[09:34:26.383]',-0.115
'[09:34:26.391]',-0.145
'[09:34:26.398]',-0.115
'[09:34:26.406]',-0.105
'[09:34:26.414]',-0.105
'[09:34:26.422]',-0.135
'[09:34:26.430]',-0.095
'[09:34:26.438]',-0.025
'[09:34:26.445]',-0.025
'[09:34:26.453]',0.015
'[09:34:26.461]',-0.015
'[09:34:26.469]',-0.075
'[09:34:26.477]',-0.065
'[09:34:26.484]',-0.005
'[09:34:26.492]',0.045
'[09:34:26.500]',0.055
'[09:34:26.508]',-0.015
'[09:34:26.516]',-0.105
'[09:34:26.523]',-0.155
'[09:34:26.531]',-0.215
'[09:34:26.539]',-0.265
'[09:34:26.547]',-0.205
'[09:34:26.555]',-0.205
'[09:34:26.563]',-0.265
'[09:34:26.570]',-0.255
'[09:34:26.578]',-0.215
'[09:34:26.586]',-0.205
'[09:34:26.594]',-0.155
'[09:34:26.602]',-0.235
'[09:34:26.609]',-0.445
'[09:34:26.617]',0.085
'[09:34:26.625]',1225
'[09:34:26.633]',2045
'[09:34:26.641]',1615
'[09:34:26.648]',0.115
'[09:34:26.656]',-0.505
'[09:34:26.664]',-0.405
'[09:34:26.672]',-0.285
'[09:34:26.680]',-0.255
'[09:34:26.688]',-0.175
'[09:34:26.695]',-0.195
'[09:34:26.703]',-0.215
'[09:34:26.711]',-0.215
'[09:34:26.719]',-0.195
'[09:34:26.727]',-0.205
'[09:34:26.734]',-0.185
'[09:34:26.742]',-0.145
'[09:34:26.750]',-0.145
'[09:34:26.758]',-0.125
'[09:34:26.766]',-0.105
'[09:34:26.773]',-0.095
'[09:34:26.781]',-0.125
'[09:34:26.789]',-0.095
'[09:34:26.797]',-0.045
'[09:34:26.805]',-0.005
'[09:34:26.813]',-0.005
'[09:34:26.820]',0.045
'[09:34:26.828]',0.095
'[09:34:26.836]',0.065
'[09:34:26.844]',0.095
'[09:34:26.852]',0.105
'[09:34:26.859]',0.145
'[09:34:26.867]',0.175
'[09:34:26.875]',0.115
'[09:34:26.883]',0.085
'[09:34:26.891]',0.035
'[09:34:26.898]',-0.065
'[09:34:26.906]',-0.045
'[09:34:26.914]',-0.095
'[09:34:26.922]',-0.165
'[09:34:26.930]',-0.135
'[09:34:26.938]',-0.155
'[09:34:26.945]',-0.165
'[09:34:26.953]',-0.155
'[09:34:26.961]',-0.175
'[09:34:26.969]',-0.115
'[09:34:26.977]',-0.115
'[09:34:26.984]',-0.185
'[09:34:26.992]',-0.165
'[09:34:27.000]',-0.085
'[09:34:27.008]',-0.105
'[09:34:27.016]',-0.125
'[09:34:27.023]',-0.105
'[09:34:27.031]',-0.085
'[09:34:27.039]',-0.115
'[09:34:27.047]',-0.155
'[09:34:27.055]',-0.105
'[09:34:27.063]',-0.065
'[09:34:27.070]',-0.025
'[09:34:27.078]',-0.015
'[09:34:27.086]',-0.015
'[09:34:27.094]',-0.045
'[09:34:27.102]',-0.115
'[09:34:27.109]',-0.005
'[09:34:27.117]',0.025
'[09:34:27.125]',0.055
'[09:34:27.133]',-0.045
'[09:34:27.141]',-0.095
'[09:34:27.148]',-0.135
'[09:34:27.156]',-0.175
'[09:34:27.164]',-0.275
'[09:34:27.172]',-0.295
'[09:34:27.180]',-0.275
'[09:34:27.188]',-0.235
'[09:34:27.195]',-0.255
'[09:34:27.203]',-0.255
'[09:34:27.211]',-0.265
'[09:34:27.219]',-0.255
'[09:34:27.227]',-0.245
'[09:34:27.234]',-0.405
'[09:34:27.242]',-0.365
'[09:34:27.250]',0.745
'[09:34:27.258]',1835
'[09:34:27.266]',2105
'[09:34:27.273]',0.685
'[09:34:27.281]',-0.535
'[09:34:27.289]',-0.625
'[09:34:27.297]',-0.415
'[09:34:27.305]',-0.285
'[09:34:27.313]',-0.315
'[09:34:27.320]',-0.305
'[09:34:27.328]',-0.295
'[09:34:27.336]',-0.255
'[09:34:27.344]',-0.255
'[09:34:27.352]',-0.195
'[09:34:27.359]',-0.225
'[09:34:27.367]',-0.235
'[09:34:27.375]',-0.275
'[09:34:27.383]',-0.275
'[09:34:27.391]',-0.175
'[09:34:27.398]',-0.135
'[09:34:27.406]',-0.165
'[09:34:27.414]',-0.165
'[09:34:27.422]',-0.155
'[09:34:27.430]',-0.115
'[09:34:27.438]',-0.045
'[09:34:27.445]',-0.015
'[09:34:27.453]',0.035
'[09:34:27.461]',0.085
'[09:34:27.469]',0.045
'[09:34:27.477]',0.055
'[09:34:27.484]',0.115
'[09:34:27.492]',0.105
'[09:34:27.500]',0.115
'[09:34:27.508]',0.075
'[09:34:27.516]',-0.005
'[09:34:27.523]',-0.065
'[09:34:27.531]',-0.085
'[09:34:27.539]',-0.095
'[09:34:27.547]',-0.175
'[09:34:27.555]',-0.155
'[09:34:27.563]',-0.205
'[09:34:27.570]',-0.205
'[09:34:27.578]',-0.135
'[09:34:27.586]',-0.135
'[09:34:27.594]',-0.165
'[09:34:27.602]',-0.175
'[09:34:27.609]',-0.185
'[09:34:27.617]',-0.105
'[09:34:27.625]',-0.095
'[09:34:27.633]',-0.105
'[09:34:27.641]',-0.105
'[09:34:27.648]',-0.105
'[09:34:27.656]',-0.065
'[09:34:27.664]',-0.065
'[09:34:27.672]',-0.065
'[09:34:27.680]',-0.095
'[09:34:27.688]',-0.095
'[09:34:27.695]',-0.115
'[09:34:27.703]',-0.075
'[09:34:27.711]',-0.005
'[09:34:27.719]',-0.005
'[09:34:27.727]',0.045
'[09:34:27.734]',-0.005
'[09:34:27.742]',0.005
'[09:34:27.750]',0.085
'[09:34:27.758]',0.055
'[09:34:27.766]',0.055
'[09:34:27.773]',0.035
'[09:34:27.781]',-0.065
'[09:34:27.789]',-0.105
'[09:34:27.797]',-0.155
'[09:34:27.805]',-0.165
'[09:34:27.813]',-0.255
'[09:34:27.820]',-0.245
'[09:34:27.828]',-0.105
'[09:34:27.836]',-0.135
'[09:34:27.844]',-0.155
'[09:34:27.852]',-0.175
'[09:34:27.859]',-0.125
'[09:34:27.867]',-0.175
'[09:34:27.875]',-0.395
'[09:34:27.883]',0.035
'[09:34:27.891]',1175
'[09:34:27.898]',2075
'[09:34:27.906]',2005
'[09:34:27.914]',0.325
'[09:34:27.922]',-0.505
'[09:34:27.930]',-0.415
'[09:34:27.938]',-0.175
'[09:34:27.945]',-0.165
'[09:34:27.953]',-0.135
'[09:34:27.961]',-0.095
'[09:34:27.969]',-0.125
'[09:34:27.977]',-0.155
'[09:34:27.984]',-0.155
'[09:34:27.992]',-0.095
'[09:34:28.000]',-0.085
'[09:34:28.008]',-0.105
'[09:34:28.016]',-0.075
'[09:34:28.023]',-0.055
'[09:34:28.031]',-0.045
'[09:34:28.039]',-0.035
'[09:34:28.047]',-0.035
'[09:34:28.055]',0.035
'[09:34:28.063]',-0.045
'[09:34:28.070]',-0.025
'[09:34:28.078]',0.035
'[09:34:28.086]',0.105
'[09:34:28.094]',0.115
'[09:34:28.102]',0.165
'[09:34:28.109]',0.215
'[09:34:28.117]',0.225
'[09:34:28.125]',0.225
'[09:34:28.133]',0.235
'[09:34:28.141]',0.195
'[09:34:28.148]',0.165
'[09:34:28.156]',0.125
'[09:34:28.164]',-0.035
'[09:34:28.172]',0.005
'[09:34:28.180]',0.015
'[09:34:28.188]',-0.035
'[09:34:28.195]',-0.065
'[09:34:28.203]',-0.095
'[09:34:28.211]',-0.125
'[09:34:28.219]',-0.095
'[09:34:28.227]',-0.115
'[09:34:28.234]',-0.115
'[09:34:28.242]',-0.165
'[09:34:28.250]',-0.085
'[09:34:28.258]',-0.065
'[09:34:28.266]',-0.065
'[09:34:28.273]',-0.025
'[09:34:28.281]',-0.035
'[09:34:28.289]',-0.025
'[09:34:28.297]',-0.045
'[09:34:28.305]',-0.045
'[09:34:28.313]',-0.055
'[09:34:28.320]',-0.065
'[09:34:28.328]',-0.065
'[09:34:28.336]',-0.065
'[09:34:28.344]',-0.035
'[09:34:28.352]',-0.065
'[09:34:28.359]',0.025
'[09:34:28.367]',0.065
'[09:34:28.375]',0.095
'[09:34:28.383]',0.055
'[09:34:28.391]',0.055
'[09:34:28.398]',0.075
'[09:34:28.406]',0.095
'[09:34:28.414]',0.055
'[09:34:28.422]',0.015
'[09:34:28.430]',-0.035
'[09:34:28.438]',-0.065
'[09:34:28.445]',-0.145
'[09:34:28.453]',-0.195
'[09:34:28.461]',-0.215
'[09:34:28.469]',-0.145
'[09:34:28.477]',-0.125
'[09:34:28.484]',-0.155
'[09:34:28.492]',-0.195
'[09:34:28.500]',-0.145
'[09:34:28.508]',-0.095
'[09:34:28.516]',-0.165
'[09:34:28.523]',-0.315
'[09:34:28.531]',0.125
'[09:34:28.539]',1145
'[09:34:28.547]',2005
'[09:34:28.555]',1695
'[09:34:28.563]',0.155
'[09:34:28.570]',-0.485
'[09:34:28.578]',-0.425
'[09:34:28.586]',-0.255
'[09:34:28.594]',-0.185
'[09:34:28.602]',-0.175
'[09:34:28.609]',-0.165
'[09:34:28.617]',-0.185
'[09:34:28.625]',-0.175
'[09:34:28.633]',-0.155
'[09:34:28.641]',-0.125
'[09:34:28.648]',-0.135
'[09:34:28.656]',-0.155
'[09:34:28.664]',-0.145
'[09:34:28.672]',-0.105
'[09:34:28.680]',-0.075
'[09:34:28.688]',-0.065
'[09:34:28.695]',-0.075
'[09:34:28.703]',-0.045
'[09:34:28.711]',-0.055
'[09:34:28.719]',0.005
'[09:34:28.727]',0.045
'[09:34:28.734]',0.055
'[09:34:28.742]',0.085
'[09:34:28.750]',0.115
'[09:34:28.758]',0.155
'[09:34:28.766]',0.185
'[09:34:28.773]',0.165
'[09:34:28.781]',0.125
'[09:34:28.789]',0.195
'[09:34:28.797]',0.135
'[09:34:28.805]',0.055
'[09:34:28.813]',0.005
'[09:34:28.820]',-0.055
'[09:34:28.828]',-0.085
'[09:34:28.836]',-0.105
'[09:34:28.844]',-0.155
'[09:34:28.852]',-0.185
'[09:34:28.859]',-0.185
'[09:34:28.867]',-0.195
'[09:34:28.875]',-0.155
'[09:34:28.883]',-0.135
'[09:34:28.891]',-0.135
'[09:34:28.898]',-0.135
'[09:34:28.906]',-0.145
'[09:34:28.914]',-0.145
'[09:34:28.922]',-0.115
'[09:34:28.930]',-0.105
'[09:34:28.938]',-0.105
'[09:34:28.945]',-0.105
'[09:34:28.953]',-0.095
'[09:34:28.961]',-0.095
'[09:34:28.969]',-0.125
'[09:34:28.977]',-0.135
'[09:34:28.984]',-0.135
'[09:34:28.992]',-0.105
'[09:34:29.000]',-0.055
'[09:34:29.008]',-0.015
'[09:34:29.016]',-0.005
'[09:34:29.023]',-0.035
'[09:34:29.031]',-0.045
'[09:34:29.039]',-0.005
'[09:34:29.047]',0.055
'[09:34:29.055]',0.015
'[09:34:29.063]',-0.005
'[09:34:29.070]',-0.075
'[09:34:29.078]',-0.135
'[09:34:29.086]',-0.175
'[09:34:29.094]',-0.215
'[09:34:29.102]',-0.195
'[09:34:29.109]',-0.205
'[09:34:29.117]',-0.215
'[09:34:29.125]',-0.185
'[09:34:29.133]',-0.185
'[09:34:29.141]',-0.185
'[09:34:29.148]',-0.215
'[09:34:29.156]',-0.195
'[09:34:29.164]',-0.305
'[09:34:29.172]',-0.065
'[09:34:29.180]',0.795
'[09:34:29.188]',1655
'[09:34:29.195]',1685
'[09:34:29.203]',0.425
'[09:34:29.211]',-0.345
'[09:34:29.219]',-0.415
'[09:34:29.227]',-0.305
'[09:34:29.234]',-0.205
'[09:34:29.242]',-0.145
'[09:34:29.250]',-0.145
'[09:34:29.258]',-0.155
'[09:34:29.266]',-0.115
'[09:34:29.273]',-0.105
'[09:34:29.281]',-0.085
'[09:34:29.289]',-0.075
'[09:34:29.297]',-0.085
'[09:34:29.305]',-0.075
'[09:34:29.313]',-0.055
'[09:34:29.320]',-0.055
'[09:34:29.328]',-0.055
'[09:34:29.336]',-0.015
'[09:34:29.344]',0.005
'[09:34:29.352]',0.025
'[09:34:29.359]',0.045
'[09:34:29.367]',0.065
'[09:34:29.375]',0.065
'[09:34:29.383]',0.085
'[09:34:29.391]',0.165
'[09:34:29.398]',0.135
'[09:34:29.406]',0.135
'[09:34:29.414]',0.165
'[09:34:29.422]',0.165
'[09:34:29.430]',0.165
'[09:34:29.438]',0.125
'[09:34:29.445]',0.085
'[09:34:29.453]',0.025
'[09:34:29.461]',-0.035
'[09:34:29.469]',-0.055
'[09:34:29.477]',-0.055
'[09:34:29.484]',-0.055
'[09:34:29.492]',-0.125
'[09:34:29.500]',-0.145
'[09:34:29.508]',-0.135
'[09:34:29.516]',-0.145
'[09:34:29.523]',-0.155
'[09:34:29.531]',-0.135
'[09:34:29.539]',-0.145
'[09:34:29.547]',-0.135
'[09:34:29.555]',-0.095
'[09:34:29.563]',-0.075
'[09:34:29.570]',-0.105
'[09:34:29.578]',-0.085
'[09:34:29.586]',-0.105
'[09:34:29.594]',-0.115
'[09:34:29.602]',-0.105
'[09:34:29.609]',-0.085
'[09:34:29.617]',-0.145
'[09:34:29.625]',-0.185
'[09:34:29.633]',-0.075
'[09:34:29.641]',-0.025
'[09:34:29.648]',0.005
'[09:34:29.656]',-0.015
'[09:34:29.664]',-0.045
'[09:34:29.672]',-0.025
'[09:34:29.680]',0.015
'[09:34:29.688]',0.035
'[09:34:29.695]',0.015
'[09:34:29.703]',-0.045
'[09:34:29.711]',-0.205
'[09:34:29.719]',-0.195
'[09:34:29.727]',-0.195
'[09:34:29.734]',-0.235
'[09:34:29.742]',-0.245
'[09:34:29.750]',-0.265
'[09:34:29.758]',-0.275
'[09:34:29.766]',-0.255
'[09:34:29.773]',-0.245
'[09:34:29.781]',-0.225
'[09:34:29.789]',-0.175
'[09:34:29.797]',-0.305
'[09:34:29.805]',-0.425
'[09:34:29.813]',0.345
'[09:34:29.820]',1515
'[09:34:29.828]',2165
'[09:34:29.836]',1365
'[09:34:29.844]',-0.255
'[09:34:29.852]',-0.605
'[09:34:29.859]',-0.395
'[09:34:29.867]',-0.245
'[09:34:29.875]',-0.225
'[09:34:29.883]',-0.245
'[09:34:29.891]',-0.225
'[09:34:29.898]',-0.195
'[09:34:29.906]',-0.205
'[09:34:29.914]',-0.215
'[09:34:29.922]',-0.165
'[09:34:29.930]',-0.135
'[09:34:29.938]',-0.155
'[09:34:29.945]',-0.145
'[09:34:29.953]',-0.155
'[09:34:29.961]',-0.145
'[09:34:29.969]',-0.045
'[09:34:29.977]',-0.035
'[09:34:29.984]',-0.035
'[09:34:29.992]',0.015
'[09:34:30.000]',0.045
'[09:34:30.008]',0.055
'[09:34:30.016]',0.105
'[09:34:30.023]',0.135
'[09:34:30.031]',0.155
'[09:34:30.039]',0.185
'[09:34:30.047]',0.235
'[09:34:30.055]',0.195
'[09:34:30.063]',0.235
'[09:34:30.070]',0.215
'[09:34:30.078]',0.135
'[09:34:30.086]',0.085
'[09:34:30.094]',0.095
'[09:34:30.102]',0.025
'[09:34:30.109]',-0.015
'[09:34:30.117]',-0.085
'[09:34:30.125]',-0.085
'[09:34:30.133]',-0.105
'[09:34:30.141]',-0.105
'[09:34:30.148]',-0.125
'[09:34:30.156]',-0.125
'[09:34:30.164]',-0.075
'[09:34:30.172]',-0.065
'[09:34:30.180]',-0.085
'[09:34:30.188]',-0.055
'[09:34:30.195]',-0.085
'[09:34:30.203]',-0.115
'[09:34:30.211]',-0.045
'[09:34:30.219]',0.005
'[09:34:30.227]',-0.005
'[09:34:30.234]',-0.005
'[09:34:30.242]',-0.035
'[09:34:30.250]',-0.025
'[09:34:30.258]',-0.055
'[09:34:30.266]',-0.035
'[09:34:30.273]',-0.025
'[09:34:30.281]',-0.015
'[09:34:30.289]',0.045
'[09:34:30.297]',0.065
'[09:34:30.305]',0.065
'[09:34:30.313]',0.005
'[09:34:30.320]',0.055
'[09:34:30.328]',0.085
'[09:34:30.336]',0.075
'[09:34:30.344]',0.125
'[09:34:30.352]',0.075
'[09:34:30.359]',-0.025
'[09:34:30.367]',-0.075
'[09:34:30.375]',-0.135
'[09:34:30.383]',-0.125
'[09:34:30.391]',-0.185
'[09:34:30.398]',-0.205
'[09:34:30.406]',-0.155
'[09:34:30.414]',-0.175
'[09:34:30.422]',-0.155
'[09:34:30.430]',-0.135
'[09:34:30.438]',-0.095
'[09:34:30.445]',-0.215
'[09:34:30.453]',-0.355
'[09:34:30.461]',0.325
'[09:34:30.469]',1505
'[09:34:30.477]',2195
'[09:34:30.484]',1495
'[09:34:30.492]',-0.145
'[09:34:30.500]',-0.595
'[09:34:30.508]',-0.375
'[09:34:30.516]',-0.185
'[09:34:30.523]',-0.175
'[09:34:30.531]',-0.165
'[09:34:30.539]',-0.195
'[09:34:30.547]',-0.165
'[09:34:30.555]',-0.135
'[09:34:30.563]',-0.165
'[09:34:30.570]',-0.125
'[09:34:30.578]',-0.115
'[09:34:30.586]',-0.095
'[09:34:30.594]',-0.105
'[09:34:30.602]',-0.035
'[09:34:30.609]',-0.045
'[09:34:30.617]',-0.065
'[09:34:30.625]',-0.085
'[09:34:30.633]',-0.035
'[09:34:30.641]',0.005
'[09:34:30.648]',0.035
'[09:34:30.656]',0.085
'[09:34:30.664]',0.115
'[09:34:30.672]',0.115
'[09:34:30.680]',0.205
'[09:34:30.688]',0.225
'[09:34:30.695]',0.245
'[09:34:30.703]',0.205
'[09:34:30.711]',0.195
'[09:34:30.719]',0.215
'[09:34:30.727]',0.215
'[09:34:30.734]',0.075
'[09:34:30.742]',0.005
'[09:34:30.750]',-0.035
'[09:34:30.758]',-0.015
'[09:34:30.766]',-0.035
'[09:34:30.773]',-0.115
'[09:34:30.781]',-0.085
'[09:34:30.789]',-0.085
'[09:34:30.797]',-0.115
'[09:34:30.805]',-0.115
'[09:34:30.813]',-0.125
'[09:34:30.820]',-0.105
'[09:34:30.828]',-0.085
'[09:34:30.836]',-0.095
'[09:34:30.844]',-0.065
'[09:34:30.852]',-0.075
'[09:34:30.859]',-0.075
'[09:34:30.867]',-0.055
'[09:34:30.875]',-0.055
'[09:34:30.883]',-0.035
'[09:34:30.891]',-0.085
'[09:34:30.898]',-0.085
'[09:34:30.906]',-0.085
'[09:34:30.914]',-0.125
'[09:34:30.922]',-0.095
'[09:34:30.930]',-0.025
'[09:34:30.938]',0.015
'[09:34:30.945]',0.015
'[09:34:30.953]',0.045
'[09:34:30.961]',0.045
'[09:34:30.969]',0.015
'[09:34:30.977]',0.065
'[09:34:30.984]',0.075
'[09:34:30.992]',0.065
'[09:34:31.000]',0.065
'[09:34:31.008]',-0.035
'[09:34:31.016]',-0.175
'[09:34:31.023]',-0.165
'[09:34:31.031]',-0.205
'[09:34:31.039]',-0.245
'[09:34:31.047]',-0.205
'[09:34:31.055]',-0.215
'[09:34:31.063]',-0.225
'[09:34:31.070]',-0.215
'[09:34:31.078]',-0.235
'[09:34:31.086]',-0.185
'[09:34:31.094]',-0.155
'[09:34:31.102]',-0.325
'[09:34:31.109]',-0.205
'[09:34:31.117]',0.735
'[09:34:31.125]',1765
'[09:34:31.133]',2105
'[09:34:31.141]',0.915
'[09:34:31.148]',-0.425
'[09:34:31.156]',-0.595
'[09:34:31.164]',-0.335
'[09:34:31.172]',-0.235
'[09:34:31.180]',-0.255
'[09:34:31.188]',-0.265
'[09:34:31.195]',-0.185
'[09:34:31.203]',-0.165
'[09:34:31.211]',-0.195
'[09:34:31.219]',-0.175
'[09:34:31.227]',-0.205
'[09:34:31.234]',-0.175
'[09:34:31.242]',-0.175
'[09:34:31.250]',-0.175
'[09:34:31.258]',-0.175
'[09:34:31.266]',-0.165
'[09:34:31.273]',-0.125
'[09:34:31.281]',-0.135
'[09:34:31.289]',-0.125
'[09:34:31.297]',-0.055
'[09:34:31.305]',-0.025
'[09:34:31.313]',0.015
'[09:34:31.320]',0.045
'[09:34:31.328]',0.015
'[09:34:31.336]',0.085
'[09:34:31.344]',0.115
'[09:34:31.352]',0.125
'[09:34:31.359]',0.125
'[09:34:31.367]',0.105
'[09:34:31.375]',0.075
'[09:34:31.383]',0.035
'[09:34:31.391]',-0.055
'[09:34:31.398]',-0.105
'[09:34:31.406]',-0.105
'[09:34:31.414]',-0.145
'[09:34:31.422]',-0.235
'[09:34:31.430]',-0.225
'[09:34:31.438]',-0.215
'[09:34:31.445]',-0.225
'[09:34:31.453]',-0.295
'[09:34:31.461]',-0.295
'[09:34:31.469]',-0.255
'[09:34:31.477]',-0.245
'[09:34:31.484]',-0.225
'[09:34:31.492]',-0.225
'[09:34:31.500]',-0.235
'[09:34:31.508]',-0.225
'[09:34:31.516]',-0.195
'[09:34:31.523]',-0.195
'[09:34:31.531]',-0.195
'[09:34:31.539]',-0.205
'[09:34:31.547]',-0.235
'[09:34:31.555]',-0.185
'[09:34:31.563]',-0.195
'[09:34:31.570]',-0.225
'[09:34:31.578]',-0.175
'[09:34:31.586]',-0.135
'[09:34:31.594]',-0.105
'[09:34:31.602]',-0.095
'[09:34:31.609]',-0.175
'[09:34:31.617]',-0.115
'[09:34:31.625]',-0.075
'[09:34:31.633]',-0.045
'[09:34:31.641]',-0.025
'[09:34:31.648]',-0.075
'[09:34:31.656]',-0.225
'[09:34:31.664]',-0.225
'[09:34:31.672]',-0.305
'[09:34:31.680]',-0.335
'[09:34:31.688]',-0.345
'[09:34:31.695]',-0.345
'[09:34:31.703]',-0.395
'[09:34:31.711]',-0.345
'[09:34:31.719]',-0.275
'[09:34:31.727]',-0.255
'[09:34:31.734]',-0.265
'[09:34:31.742]',-0.315
'[09:34:31.750]',-0.515
'[09:34:31.758]',-0.105
'[09:34:31.766]',1075
'[09:34:31.773]',2015
'[09:34:31.781]',1625
'[09:34:31.789]',-0.065
'[09:34:31.797]',-0.725
'[09:34:31.805]',-0.675
'[09:34:31.813]',-0.405
'[09:34:31.820]',-0.285
'[09:34:31.828]',-0.295
'[09:34:31.836]',-0.295
'[09:34:31.844]',-0.295
'[09:34:31.852]',-0.315
'[09:34:31.859]',-0.285
'[09:34:31.867]',-0.275
'[09:34:31.875]',-0.235
'[09:34:31.883]',-0.225
'[09:34:31.891]',-0.215
'[09:34:31.898]',-0.235
'[09:34:31.906]',-0.175
'[09:34:31.914]',-0.145
'[09:34:31.922]',-0.165
'[09:34:31.930]',-0.145
'[09:34:31.938]',-0.055
'[09:34:31.945]',-0.055
'[09:34:31.953]',-0.045
'[09:34:31.961]',-0.015
'[09:34:31.969]',0.025
'[09:34:31.977]',0.075
'[09:34:31.984]',0.085
'[09:34:31.992]',0.075
'[09:34:32.000]',0.085
'[09:34:32.008]',0.135
'[09:34:32.016]',0.145
'[09:34:32.023]',0.085
'[09:34:32.031]',0.025
'[09:34:32.039]',-0.055
'[09:34:32.047]',-0.055
'[09:34:32.055]',-0.075
'[09:34:32.063]',-0.115
'[09:34:32.070]',-0.215
'[09:34:32.078]',-0.205
'[09:34:32.086]',-0.135
'[09:34:32.094]',-0.135
'[09:34:32.102]',-0.145
'[09:34:32.109]',-0.135
'[09:34:32.117]',-0.125
'[09:34:32.125]',-0.125
'[09:34:32.133]',-0.115
'[09:34:32.141]',-0.095
'[09:34:32.148]',-0.105
'[09:34:32.156]',-0.115
'[09:34:32.164]',-0.105
'[09:34:32.172]',-0.075
'[09:34:32.180]',-0.055
'[09:34:32.188]',-0.055
'[09:34:32.195]',-0.095
'[09:34:32.203]',-0.085
'[09:34:32.211]',-0.065
'[09:34:32.219]',-0.115
'[09:34:32.227]',-0.085
'[09:34:32.234]',-0.105
'[09:34:32.242]',-0.115
'[09:34:32.250]',-0.045
'[09:34:32.258]',-0.025
'[09:34:32.266]',0.005
'[09:34:32.273]',0.045
'[09:34:32.281]',-0.005
'[09:34:32.289]',0.095
'[09:34:32.297]',0.055
'[09:34:32.305]',0.015
'[09:34:32.313]',0.045
'[09:34:32.320]',-0.015
'[09:34:32.328]',-0.095
'[09:34:32.336]',-0.175
'[09:34:32.344]',-0.195
'[09:34:32.352]',-0.215
'[09:34:32.359]',-0.175
'[09:34:32.367]',-0.165
'[09:34:32.375]',-0.205
'[09:34:32.383]',-0.195
'[09:34:32.391]',-0.185
'[09:34:32.398]',-0.155
'[09:34:32.406]',-0.165
'[09:34:32.414]',-0.345
'[09:34:32.422]',-0.025
'[09:34:32.430]',1005
'[09:34:32.438]',1955
'[09:34:32.445]',2065
'[09:34:32.453]',0.475
'[09:34:32.461]',-0.495
'[09:34:32.469]',-0.485
'[09:34:32.477]',-0.285
'[09:34:32.484]',-0.195
'[09:34:32.492]',-0.225
'[09:34:32.500]',-0.215
'[09:34:32.508]',-0.155
'[09:34:32.516]',-0.185
'[09:34:32.523]',-0.185
'[09:34:32.531]',-0.145
'[09:34:32.539]',-0.115
'[09:34:32.547]',-0.105
'[09:34:32.555]',-0.125
'[09:34:32.563]',-0.115
'[09:34:32.570]',-0.115
'[09:34:32.578]',-0.095
'[09:34:32.586]',-0.045
'[09:34:32.594]',-0.085
'[09:34:32.602]',-0.045
'[09:34:32.609]',0.025
'[09:34:32.617]',0.045
'[09:34:32.625]',0.045
'[09:34:32.633]',0.105
'[09:34:32.641]',0.175
'[09:34:32.648]',0.195
'[09:34:32.656]',0.195
'[09:34:32.664]',0.185
'[09:34:32.672]',0.185
'[09:34:32.680]',0.225
'[09:34:32.688]',0.185
'[09:34:32.695]',0.165
'[09:34:32.703]',0.125
'[09:34:32.711]',0.005
'[09:34:32.719]',-0.085
'[09:34:32.727]',-0.095
'[09:34:32.734]',-0.085
'[09:34:32.742]',-0.135
'[09:34:32.750]',-0.145
'[09:34:32.758]',-0.135
'[09:34:32.766]',-0.085
'[09:34:32.773]',-0.115
'[09:34:32.781]',-0.135
'[09:34:32.789]',-0.115
'[09:34:32.797]',-0.095
'[09:34:32.805]',-0.075
'[09:34:32.813]',-0.085
'[09:34:32.820]',-0.105
'[09:34:32.828]',-0.085
'[09:34:32.836]',-0.085
'[09:34:32.844]',-0.055
'[09:34:32.852]',-0.095
'[09:34:32.859]',-0.115
'[09:34:32.867]',-0.095
'[09:34:32.875]',-0.095
'[09:34:32.883]',-0.125
'[09:34:32.891]',-0.075
'[09:34:32.898]',-0.115
'[09:34:32.906]',-0.125
'[09:34:32.914]',-0.055
'[09:34:32.922]',-0.025
'[09:34:32.930]',0.025
'[09:34:32.938]',0.015
'[09:34:32.945]',-0.025
'[09:34:32.953]',-0.025
'[09:34:32.961]',0.025
'[09:34:32.969]',0.055
'[09:34:32.977]',0.045
'[09:34:32.984]',-0.035
'[09:34:32.992]',-0.095
'[09:34:33.000]',-0.165
'[09:34:33.008]',-0.235
'[09:34:33.016]',-0.195
'[09:34:33.023]',-0.215
'[09:34:33.031]',-0.235
'[09:34:33.039]',-0.235
'[09:34:33.047]',-0.235
'[09:34:33.055]',-0.215
'[09:34:33.063]',-0.235
'[09:34:33.070]',-0.205
'[09:34:33.078]',-0.345
'[09:34:33.086]',-0.255
'[09:34:33.094]',0.795
'[09:34:33.102]',1895
'[09:34:33.109]',2135
'[09:34:33.117]',0.695
'[09:34:33.125]',-0.575
'[09:34:33.133]',-0.685
'[09:34:33.141]',-0.405
'[09:34:33.148]',-0.255
'[09:34:33.156]',-0.265
'[09:34:33.164]',-0.265
'[09:34:33.172]',-0.285
'[09:34:33.180]',-0.265
'[09:34:33.188]',-0.295
'[09:34:33.195]',-0.275
'[09:34:33.203]',-0.225
'[09:34:33.211]',-0.205
'[09:34:33.219]',-0.225
'[09:34:33.227]',-0.225
'[09:34:33.234]',-0.225
'[09:34:33.242]',-0.195
'[09:34:33.250]',-0.195
'[09:34:33.258]',-0.185
'[09:34:33.266]',-0.185
'[09:34:33.273]',-0.105
'[09:34:33.281]',-0.075
'[09:34:33.289]',-0.075
'[09:34:33.297]',-0.035
'[09:34:33.305]',0.005
'[09:34:33.313]',0.055
'[09:34:33.320]',0.055
'[09:34:33.328]',0.065
'[09:34:33.336]',0.055
'[09:34:33.344]',0.075
'[09:34:33.352]',0.045
'[09:34:33.359]',-0.045
'[09:34:33.367]',-0.085
'[09:34:33.375]',-0.085
'[09:34:33.383]',-0.135
'[09:34:33.391]',-0.205
'[09:34:33.398]',-0.235
'[09:34:33.406]',-0.245
'[09:34:33.414]',-0.275
'[09:34:33.422]',-0.295
'[09:34:33.430]',-0.305
'[09:34:33.438]',-0.315
'[09:34:33.445]',-0.305
'[09:34:33.453]',-0.285
'[09:34:33.461]',-0.285
'[09:34:33.469]',-0.275
'[09:34:33.477]',-0.315
'[09:34:33.484]',-0.305
'[09:34:33.492]',-0.245
'[09:34:33.500]',-0.255
'[09:34:33.508]',-0.255
'[09:34:33.516]',-0.315
'[09:34:33.523]',-0.285
'[09:34:33.531]',-0.235
'[09:34:33.539]',-0.265
'[09:34:33.547]',-0.295
'[09:34:33.555]',-0.245
'[09:34:33.563]',-0.255
'[09:34:33.570]',-0.225
'[09:34:33.578]',-0.205
'[09:34:33.586]',-0.195
'[09:34:33.594]',-0.205
'[09:34:33.602]',-0.235
'[09:34:33.609]',-0.165
'[09:34:33.617]',-0.135
'[09:34:33.625]',-0.105
'[09:34:33.633]',-0.125
'[09:34:33.641]',-0.215
'[09:34:33.648]',-0.295
'[09:34:33.656]',-0.325
'[09:34:33.664]',-0.355
'[09:34:33.672]',-0.385
'[09:34:33.680]',-0.395
'[09:34:33.688]',-0.365
'[09:34:33.695]',-0.365
'[09:34:33.703]',-0.345
'[09:34:33.711]',-0.355
'[09:34:33.719]',-0.315
'[09:34:33.727]',-0.315
'[09:34:33.734]',-0.445
'[09:34:33.742]',-0.445
'[09:34:33.750]',0.275
'[09:34:33.758]',1345
'[09:34:33.766]',1865
'[09:34:33.773]',0.775
'[09:34:33.781]',-0.425
'[09:34:33.789]',-0.625
'[09:34:33.797]',-0.525
'[09:34:33.805]',-0.395
'[09:34:33.813]',-0.335
'[09:34:33.820]',-0.345
'[09:34:33.828]',-0.305
'[09:34:33.836]',-0.335
'[09:34:33.844]',-0.305
'[09:34:33.852]',-0.265
'[09:34:33.859]',-0.255
'[09:34:33.867]',-0.265
'[09:34:33.875]',-0.245
'[09:34:33.883]',-0.225
'[09:34:33.891]',-0.215
'[09:34:33.898]',-0.215
'[09:34:33.906]',-0.225
'[09:34:33.914]',-0.155
'[09:34:33.922]',-0.095
'[09:34:33.930]',-0.105
'[09:34:33.938]',-0.085
'[09:34:33.945]',-0.065
'[09:34:33.953]',-0.025
'[09:34:33.961]',0.035
'[09:34:33.969]',0.045
'[09:34:33.977]',0.065
'[09:34:33.984]',0.065
'[09:34:33.992]',0.085
'[09:34:34.000]',0.075
'[09:34:34.008]',0.065
'[09:34:34.016]',0.035
'[09:34:34.023]',0.025
'[09:34:34.031]',-0.045
'[09:34:34.039]',-0.145
'[09:34:34.047]',-0.195
'[09:34:34.055]',-0.155
'[09:34:34.063]',-0.165
'[09:34:34.070]',-0.185
'[09:34:34.078]',-0.185
'[09:34:34.086]',-0.205
'[09:34:34.094]',-0.205
'[09:34:34.102]',-0.215
'[09:34:34.109]',-0.185
'[09:34:34.117]',-0.145
'[09:34:34.125]',-0.145
'[09:34:34.133]',-0.145
'[09:34:34.141]',-0.175
'[09:34:34.148]',-0.125
'[09:34:34.156]',-0.135
'[09:34:34.164]',-0.135
'[09:34:34.172]',-0.115
'[09:34:34.180]',-0.135
'[09:34:34.188]',-0.125
'[09:34:34.195]',-0.135
'[09:34:34.203]',-0.125
'[09:34:34.211]',-0.135
'[09:34:34.219]',-0.105
'[09:34:34.227]',-0.095
'[09:34:34.234]',-0.055
'[09:34:34.242]',-0.045
'[09:34:34.250]',-0.025
'[09:34:34.258]',-0.035
'[09:34:34.266]',-0.075
'[09:34:34.273]',0.005
'[09:34:34.281]',0.075
'[09:34:34.289]',0.065
'[09:34:34.297]',-0.025
'[09:34:34.305]',-0.105
'[09:34:34.313]',-0.155
'[09:34:34.320]',-0.195
'[09:34:34.328]',-0.205
'[09:34:34.336]',-0.205
'[09:34:34.344]',-0.195
'[09:34:34.352]',-0.235
'[09:34:34.359]',-0.195
'[09:34:34.367]',-0.205
'[09:34:34.375]',-0.185
'[09:34:34.383]',-0.125
'[09:34:34.391]',-0.215
'[09:34:34.398]',-0.345
'[09:34:34.406]',0.375
'[09:34:34.414]',1555
'[09:34:34.422]',2225
'[09:34:34.430]',1675
'[09:34:34.438]',-0.045
'[09:34:34.445]',-0.585
'[09:34:34.453]',-0.365
'[09:34:34.461]',-0.205
'[09:34:34.469]',-0.165
'[09:34:34.477]',-0.155
'[09:34:34.484]',-0.135
'[09:34:34.492]',-0.175
'[09:34:34.500]',-0.155
'[09:34:34.508]',-0.115
'[09:34:34.516]',-0.115
'[09:34:34.523]',-0.125
'[09:34:34.531]',-0.075
'[09:34:34.539]',-0.085
'[09:34:34.547]',-0.075
'[09:34:34.555]',-0.025
'[09:34:34.563]',-0.015
'[09:34:34.570]',-0.005
'[09:34:34.578]',0.015
'[09:34:34.586]',0.025
'[09:34:34.594]',0.035
'[09:34:34.602]',0.085
'[09:34:34.609]',0.155
'[09:34:34.617]',0.195
'[09:34:34.625]',0.265
'[09:34:34.633]',0.275
'[09:34:34.641]',0.295
'[09:34:34.648]',0.255
'[09:34:34.656]',0.225
'[09:34:34.664]',0.245
'[09:34:34.672]',0.225
'[09:34:34.680]',0.195
'[09:34:34.688]',0.145
'[09:34:34.695]',0.075
'[09:34:34.703]',0.005
'[09:34:34.711]',-0.025
'[09:34:34.719]',-0.045
'[09:34:34.727]',-0.075
'[09:34:34.734]',-0.075
'[09:34:34.742]',-0.075
'[09:34:34.750]',-0.075
'[09:34:34.758]',-0.025
'[09:34:34.766]',-0.005
'[09:34:34.773]',-0.005
'[09:34:34.781]',-0.045
'[09:34:34.789]',-0.035
'[09:34:34.797]',-0.005
'[09:34:34.805]',-0.025
'[09:34:34.813]',-0.005
'[09:34:34.820]',-0.005
'[09:34:34.828]',-0.005
'[09:34:34.836]',-0.015
'[09:34:34.844]',0.015
'[09:34:34.852]',0.015
'[09:34:34.859]',0.025
'[09:34:34.867]',0.005
'[09:34:34.875]',0.005
'[09:34:34.883]',0.015
'[09:34:34.891]',0.085
'[09:34:34.898]',0.105
'[09:34:34.906]',0.135
'[09:34:34.914]',0.105
'[09:34:34.922]',0.085
'[09:34:34.930]',0.135
'[09:34:34.938]',0.185
'[09:34:34.945]',0.165
'[09:34:34.953]',0.125
'[09:34:34.961]',0.055
'[09:34:34.969]',-0.015
'[09:34:34.977]',-0.065
'[09:34:34.984]',-0.065
'[09:34:34.992]',-0.045
'[09:34:35.000]',-0.045
'[09:34:35.008]',-0.055
'[09:34:35.016]',-0.025
'[09:34:35.023]',-0.045
'[09:34:35.031]',-0.005
'[09:34:35.039]',-0.005
'[09:34:35.047]',-0.035
'[09:34:35.055]',-0.145
'[09:34:35.063]',0.125
'[09:34:35.070]',0.995
'[09:34:35.078]',1725
'[09:34:35.086]',1585
'[09:34:35.094]',0.295
'[09:34:35.102]',-0.285
'[09:34:35.109]',-0.205
'[09:34:35.117]',-0.045
'[09:34:35.125]',0.005
'[09:34:35.133]',0.025
'[09:34:35.141]',0.025
'[09:34:35.148]',0.005
'[09:34:35.156]',0.035
'[09:34:35.164]',0.055
'[09:34:35.172]',0.065
'[09:34:35.180]',0.025
'[09:34:35.188]',0.025
'[09:34:35.195]',0.055
'[09:34:35.203]',0.075
'[09:34:35.211]',0.055
'[09:34:35.219]',0.045
'[09:34:35.227]',0.045
'[09:34:35.234]',0.085
'[09:34:35.242]',0.095
'[09:34:35.250]',0.105
'[09:34:35.258]',0.135
'[09:34:35.266]',0.155
'[09:34:35.273]',0.165
'[09:34:35.281]',0.205
'[09:34:35.289]',0.265
'[09:34:35.297]',0.265
'[09:34:35.305]',0.215
'[09:34:35.313]',0.245
'[09:34:35.320]',0.245
'[09:34:35.328]',0.195
'[09:34:35.336]',0.145
'[09:34:35.344]',0.115
'[09:34:35.352]',0.045
'[09:34:35.359]',-0.015
'[09:34:35.367]',-0.075
'[09:34:35.375]',-0.105
'[09:34:35.383]',-0.115
'[09:34:35.391]',-0.145
'[09:34:35.398]',-0.125
'[09:34:35.406]',-0.135
'[09:34:35.414]',-0.115
'[09:34:35.422]',-0.105
'[09:34:35.430]',-0.105
'[09:34:35.438]',-0.105
'[09:34:35.445]',-0.125
'[09:34:35.453]',-0.115
'[09:34:35.461]',-0.065
'[09:34:35.469]',-0.085
'[09:34:35.477]',-0.085
'[09:34:35.484]',-0.105
'[09:34:35.492]',-0.105
'[09:34:35.500]',-0.105
'[09:34:35.508]',-0.085
'[09:34:35.516]',-0.085
'[09:34:35.523]',-0.095
'[09:34:35.531]',-0.095
'[09:34:35.539]',-0.115
'[09:34:35.547]',-0.125
'[09:34:35.555]',-0.085
'[09:34:35.563]',-0.015
'[09:34:35.570]',-0.015
'[09:34:35.578]',-0.005
'[09:34:35.586]',-0.035
'[09:34:35.594]',-0.015
'[09:34:35.602]',0.045
'[09:34:35.609]',0.025
'[09:34:35.617]',0.025
'[09:34:35.625]',-0.075
'[09:34:35.633]',-0.145
'[09:34:35.641]',-0.185
'[09:34:35.648]',-0.205
'[09:34:35.656]',-0.245
'[09:34:35.664]',-0.255
'[09:34:35.672]',-0.255
'[09:34:35.680]',-0.255
'[09:34:35.688]',-0.245
'[09:34:35.695]',-0.245
'[09:34:35.703]',-0.255
'[09:34:35.711]',-0.215
'[09:34:35.719]',-0.295
'[09:34:35.727]',-0.305
'[09:34:35.734]',0.385
'[09:34:35.742]',1365
'[09:34:35.750]',1885
'[09:34:35.758]',1105
'[09:34:35.766]',-0.235
'[09:34:35.773]',-0.615
'[09:34:35.781]',-0.505
'[09:34:35.789]',-0.355
'[09:34:35.797]',-0.345
'[09:34:35.805]',-0.345
'[09:34:35.813]',-0.335
'[09:34:35.820]',-0.355
'[09:34:35.828]',-0.385
'[09:34:35.836]',-0.355
'[09:34:35.844]',-0.305
'[09:34:35.852]',-0.305
'[09:34:35.859]',-0.365
'[09:34:35.867]',-0.345
'[09:34:35.875]',-0.285
'[09:34:35.883]',-0.285
'[09:34:35.891]',-0.275
'[09:34:35.898]',-0.275
'[09:34:35.906]',-0.255
'[09:34:35.914]',-0.225
'[09:34:35.922]',-0.185
'[09:34:35.930]',-0.185
'[09:34:35.938]',-0.165
'[09:34:35.945]',-0.105
'[09:34:35.953]',-0.055
'[09:34:35.961]',-0.015
'[09:34:35.969]',-0.025
'[09:34:35.977]',-0.015
'[09:34:35.984]',-0.015
'[09:34:35.992]',-0.095
'[09:34:36.000]',-0.075
'[09:34:36.008]',-0.135
'[09:34:36.016]',-0.155
'[09:34:36.023]',-0.205
'[09:34:36.031]',-0.245
'[09:34:36.039]',-0.335
'[09:34:36.047]',-0.345
'[09:34:36.055]',-0.335
'[09:34:36.063]',-0.335
'[09:34:36.070]',-0.355
'[09:34:36.078]',-0.355
'[09:34:36.086]',-0.335
'[09:34:36.094]',-0.345
'[09:34:36.102]',-0.295
'[09:34:36.109]',-0.305
'[09:34:36.117]',-0.305
'[09:34:36.125]',-0.265
'[09:34:36.133]',-0.275
'[09:34:36.141]',-0.275
'[09:34:36.148]',-0.295
'[09:34:36.156]',-0.275
'[09:34:36.164]',-0.245
'[09:34:36.172]',-0.315
'[09:34:36.180]',-0.295
'[09:34:36.188]',-0.245
'[09:34:36.195]',-0.265
'[09:34:36.203]',-0.255
'[09:34:36.211]',-0.215
'[09:34:36.219]',-0.185
'[09:34:36.227]',-0.155
'[09:34:36.234]',-0.205
'[09:34:36.242]',-0.235
'[09:34:36.250]',-0.185
'[09:34:36.258]',-0.135
'[09:34:36.266]',-0.125
'[09:34:36.273]',-0.115
'[09:34:36.281]',-0.195
'[09:34:36.289]',-0.275
'[09:34:36.297]',-0.335
'[09:34:36.305]',-0.385
'[09:34:36.313]',-0.385
'[09:34:36.320]',-0.385
'[09:34:36.328]',-0.385
'[09:34:36.336]',-0.405
'[09:34:36.344]',-0.395
'[09:34:36.352]',-0.375
'[09:34:36.359]',-0.345
'[09:34:36.367]',-0.275
'[09:34:36.375]',-0.375
'[09:34:36.383]',-0.515
'[09:34:36.391]',0.285
'[09:34:36.398]',1455
'[09:34:36.406]',2115
'[09:34:36.414]',0.885
'[09:34:36.422]',-0.505
'[09:34:36.430]',-0.725
'[09:34:36.438]',-0.485
'[09:34:36.445]',-0.395
'[09:34:36.453]',-0.325
'[09:34:36.461]',-0.345
'[09:34:36.469]',-0.315
'[09:34:36.477]',-0.315
'[09:34:36.484]',-0.305
'[09:34:36.492]',-0.285
'[09:34:36.500]',-0.245
'[09:34:36.508]',-0.265
'[09:34:36.516]',-0.265
'[09:34:36.523]',-0.255
'[09:34:36.531]',-0.205
'[09:34:36.539]',-0.175
'[09:34:36.547]',-0.165
'[09:34:36.555]',-0.125
'[09:34:36.563]',-0.105
'[09:34:36.570]',-0.095
'[09:34:36.578]',-0.075
'[09:34:36.586]',-0.035
'[09:34:36.594]',0.025
'[09:34:36.602]',0.075
'[09:34:36.609]',0.105
'[09:34:36.617]',0.075
'[09:34:36.625]',0.135
'[09:34:36.633]',0.165
'[09:34:36.641]',0.125
'[09:34:36.648]',0.105
'[09:34:36.656]',0.065
'[09:34:36.664]',0.015
'[09:34:36.672]',-0.045
'[09:34:36.680]',-0.055
'[09:34:36.688]',-0.075
'[09:34:36.695]',-0.115
'[09:34:36.703]',-0.165
'[09:34:36.711]',-0.155
'[09:34:36.719]',-0.145
'[09:34:36.727]',-0.155
'[09:34:36.734]',-0.145
'[09:34:36.742]',-0.165
'[09:34:36.750]',-0.135
'[09:34:36.758]',-0.105
'[09:34:36.766]',-0.075
'[09:34:36.773]',-0.095
'[09:34:36.781]',-0.095
'[09:34:36.789]',-0.075
'[09:34:36.797]',-0.085
'[09:34:36.805]',-0.075
'[09:34:36.813]',-0.035
'[09:34:36.820]',-0.075
'[09:34:36.828]',-0.075
'[09:34:36.836]',-0.085
'[09:34:36.844]',-0.045
'[09:34:36.852]',-0.045
'[09:34:36.859]',-0.055
'[09:34:36.867]',-0.085
'[09:34:36.875]',-0.005
'[09:34:36.883]',-0.005
'[09:34:36.891]',0.025
'[09:34:36.898]',0.005
'[09:34:36.906]',0.005
'[09:34:36.914]',0.035
'[09:34:36.922]',0.105
'[09:34:36.930]',0.095
'[09:34:36.938]',0.115
'[09:34:36.945]',-0.015
'[09:34:36.953]',-0.065
'[09:34:36.961]',-0.115
'[09:34:36.969]',-0.145
'[09:34:36.977]',-0.165
'[09:34:36.984]',-0.185
'[09:34:36.992]',-0.205
'[09:34:37.000]',-0.165
'[09:34:37.008]',-0.145
'[09:34:37.016]',-0.145
'[09:34:37.023]',-0.125
'[09:34:37.031]',-0.105
'[09:34:37.039]',-0.225
'[09:34:37.047]',-0.265
'[09:34:37.055]',0.555
'[09:34:37.063]',1615
'[09:34:37.070]',2185
'[09:34:37.078]',1235
'[09:34:37.086]',-0.275
'[09:34:37.094]',-0.585
'[09:34:37.102]',-0.365
'[09:34:37.109]',-0.215
'[09:34:37.117]',-0.205
'[09:34:37.125]',-0.165
'[09:34:37.133]',-0.195
'[09:34:37.141]',-0.155
'[09:34:37.148]',-0.165
'[09:34:37.156]',-0.155
'[09:34:37.164]',-0.135
'[09:34:37.172]',-0.135
'[09:34:37.180]',-0.125
'[09:34:37.188]',-0.145
'[09:34:37.195]',-0.125
'[09:34:37.203]',-0.095
'[09:34:37.211]',-0.065
'[09:34:37.219]',-0.055
'[09:34:37.227]',-0.075
'[09:34:37.234]',-0.025
'[09:34:37.242]',0.005
'[09:34:37.250]',0.045
'[09:34:37.258]',0.035
'[09:34:37.266]',0.105
'[09:34:37.273]',0.175
'[09:34:37.281]',0.225
'[09:34:37.289]',0.215
'[09:34:37.297]',0.175
'[09:34:37.305]',0.215
'[09:34:37.313]',0.205
'[09:34:37.320]',0.125
'[09:34:37.328]',0.075
'[09:34:37.336]',0.035
'[09:34:37.344]',-0.055
'[09:34:37.352]',-0.105
'[09:34:37.359]',-0.105
'[09:34:37.367]',-0.115
'[09:34:37.375]',-0.135
'[09:34:37.383]',-0.125
'[09:34:37.391]',-0.225
'[09:34:37.398]',-0.155
'[09:34:37.406]',-0.165
'[09:34:37.414]',-0.125
'[09:34:37.422]',-0.175
'[09:34:37.430]',-0.165
'[09:34:37.438]',-0.105
'[09:34:37.445]',-0.075
'[09:34:37.453]',-0.065
'[09:34:37.461]',-0.105
'[09:34:37.469]',-0.095
'[09:34:37.477]',-0.075
'[09:34:37.484]',-0.115
'[09:34:37.492]',-0.115
'[09:34:37.500]',-0.075
'[09:34:37.508]',-0.065
'[09:34:37.516]',-0.145
'[09:34:37.523]',-0.085
'[09:34:37.531]',-0.105
'[09:34:37.539]',-0.115
'[09:34:37.547]',-0.055
'[09:34:37.555]',-0.035
'[09:34:37.563]',-0.005
'[09:34:37.570]',-0.005
'[09:34:37.578]',-0.055
'[09:34:37.586]',-0.005
'[09:34:37.594]',0.035
'[09:34:37.602]',0.015
'[09:34:37.609]',0.065
'[09:34:37.617]',-0.015
'[09:34:37.625]',-0.065
'[09:34:37.633]',-0.145
'[09:34:37.641]',-0.195
'[09:34:37.648]',-0.225
'[09:34:37.656]',-0.195
'[09:34:37.664]',-0.215
'[09:34:37.672]',-0.255
'[09:34:37.680]',-0.195
'[09:34:37.688]',-0.205
'[09:34:37.695]',-0.195
'[09:34:37.703]',-0.185
'[09:34:37.711]',-0.215
'[09:34:37.719]',-0.335
'[09:34:37.727]',0.235
'[09:34:37.734]',1345
'[09:34:37.742]',2105
'[09:34:37.750]',1605
'[09:34:37.758]',-0.015
'[09:34:37.766]',-0.615
'[09:34:37.773]',-0.425
'[09:34:37.781]',-0.275
'[09:34:37.789]',-0.275
'[09:34:37.797]',-0.235
'[09:34:37.805]',-0.195
'[09:34:37.813]',-0.195
'[09:34:37.820]',-0.215
'[09:34:37.828]',-0.215
'[09:34:37.836]',-0.175
'[09:34:37.844]',-0.175
'[09:34:37.852]',-0.175
'[09:34:37.859]',-0.155
'[09:34:37.867]',-0.145
'[09:34:37.875]',-0.145
'[09:34:37.883]',-0.125
'[09:34:37.891]',-0.115
'[09:34:37.898]',-0.085
'[09:34:37.906]',-0.085
'[09:34:37.914]',-0.045
'[09:34:37.922]',-0.015
'[09:34:37.930]',0.005
'[09:34:37.938]',0.065
'[09:34:37.945]',0.125
'[09:34:37.953]',0.155
'[09:34:37.961]',0.165
'[09:34:37.969]',0.165
'[09:34:37.977]',0.165
'[09:34:37.984]',0.125
'[09:34:37.992]',0.095
'[09:34:38.000]',0.045
'[09:34:38.008]',-0.065
'[09:34:38.016]',-0.095
'[09:34:38.023]',-0.145
'[09:34:38.031]',-0.185
'[09:34:38.039]',-0.195
'[09:34:38.047]',-0.215
'[09:34:38.055]',-0.235
'[09:34:38.063]',-0.215
'[09:34:38.070]',-0.235
'[09:34:38.078]',-0.205
'[09:34:38.086]',-0.215
'[09:34:38.094]',-0.255
'[09:34:38.102]',-0.205
'[09:34:38.109]',-0.195
'[09:34:38.117]',-0.205
'[09:34:38.125]',-0.195
'[09:34:38.133]',-0.205
'[09:34:38.141]',-0.175
'[09:34:38.148]',-0.205
'[09:34:38.156]',-0.235
'[09:34:38.164]',-0.215
'[09:34:38.172]',-0.185
'[09:34:38.180]',-0.175
'[09:34:38.188]',-0.205
'[09:34:38.195]',-0.205
'[09:34:38.203]',-0.235
'[09:34:38.211]',-0.265
'[09:34:38.219]',-0.255
'[09:34:38.227]',-0.225
'[09:34:38.234]',-0.185
'[09:34:38.242]',-0.215
'[09:34:38.250]',-0.155
'[09:34:38.258]',-0.115
'[09:34:38.266]',-0.165
'[09:34:38.273]',-0.135
'[09:34:38.281]',-0.095
'[09:34:38.289]',-0.095
'[09:34:38.297]',-0.105
'[09:34:38.305]',-0.195
'[09:34:38.313]',-0.245
'[09:34:38.320]',-0.295
'[09:34:38.328]',-0.385
'[09:34:38.336]',-0.345
'[09:34:38.344]',-0.345
'[09:34:38.352]',-0.375
'[09:34:38.359]',-0.365
'[09:34:38.367]',-0.365
'[09:34:38.375]',-0.355
'[09:34:38.383]',-0.365
'[09:34:38.391]',-0.315
'[09:34:38.398]',-0.405
'[09:34:38.406]',-0.505
'[09:34:38.414]',0.125
'[09:34:38.422]',1155
'[09:34:38.430]',2005
'[09:34:38.438]',1375
'[09:34:38.445]',-0.245
'[09:34:38.453]',-0.775
'[09:34:38.461]',-0.635
'[09:34:38.469]',-0.435
'[09:34:38.477]',-0.365
'[09:34:38.484]',-0.355
'[09:34:38.492]',-0.355
'[09:34:38.500]',-0.365
'[09:34:38.508]',-0.385
'[09:34:38.516]',-0.375
'[09:34:38.523]',-0.355
'[09:34:38.531]',-0.295
'[09:34:38.539]',-0.265
'[09:34:38.547]',-0.265
'[09:34:38.555]',-0.245
'[09:34:38.563]',-0.225
'[09:34:38.570]',-0.245
'[09:34:38.578]',-0.215
'[09:34:38.586]',-0.185
'[09:34:38.594]',-0.155
'[09:34:38.602]',-0.135
'[09:34:38.609]',-0.095
'[09:34:38.617]',-0.045
'[09:34:38.625]',-0.015
'[09:34:38.633]',0.025
'[09:34:38.641]',0.035
'[09:34:38.648]',0.065
'[09:34:38.656]',0.075
'[09:34:38.664]',0.065
'[09:34:38.672]',0.085
'[09:34:38.680]',0.075
'[09:34:38.688]',-0.005
'[09:34:38.695]',-0.075
'[09:34:38.703]',-0.135
'[09:34:38.711]',-0.165
'[09:34:38.719]',-0.185
'[09:34:38.727]',-0.195
'[09:34:38.734]',-0.215
'[09:34:38.742]',-0.245
'[09:34:38.750]',-0.255
'[09:34:38.758]',-0.255
'[09:34:38.766]',-0.205
'[09:34:38.773]',-0.235
'[09:34:38.781]',-0.245
'[09:34:38.789]',-0.175
'[09:34:38.797]',-0.135
'[09:34:38.805]',-0.115
'[09:34:38.813]',-0.135
'[09:34:38.820]',-0.135
'[09:34:38.828]',-0.145
'[09:34:38.836]',-0.115
'[09:34:38.844]',-0.095
'[09:34:38.852]',-0.125
'[09:34:38.859]',-0.135
'[09:34:38.867]',-0.115
'[09:34:38.875]',-0.105
'[09:34:38.883]',-0.085
'[09:34:38.891]',-0.125
'[09:34:38.898]',-0.135
'[09:34:38.906]',-0.125
'[09:34:38.914]',-0.125
'[09:34:38.922]',-0.105
'[09:34:38.930]',-0.035
'[09:34:38.938]',0.025
'[09:34:38.945]',0.025
'[09:34:38.953]',-0.025
'[09:34:38.961]',-0.035
'[09:34:38.969]',0.035
'[09:34:38.977]',0.045
'[09:34:38.984]',0.055
'[09:34:38.992]',0.035
'[09:34:39.000]',-0.095
'[09:34:39.008]',-0.125
'[09:34:39.016]',-0.185
'[09:34:39.023]',-0.215
'[09:34:39.031]',-0.195
'[09:34:39.039]',-0.175
'[09:34:39.047]',-0.235
'[09:34:39.055]',-0.195
'[09:34:39.063]',-0.135
'[09:34:39.070]',-0.145
'[09:34:39.078]',-0.135
'[09:34:39.086]',-0.175
'[09:34:39.094]',-0.305
'[09:34:39.102]',0.235
'[09:34:39.109]',1105
'[09:34:39.117]',1705
'[09:34:39.125]',1925
'[09:34:39.133]',0.655
'[09:34:39.141]',-0.495
'[09:34:39.148]',-0.475
'[09:34:39.156]',-0.275
'[09:34:39.164]',-0.225
'[09:34:39.172]',-0.205
'[09:34:39.180]',-0.205
'[09:34:39.188]',-0.185
'[09:34:39.195]',-0.175
'[09:34:39.203]',-0.175
'[09:34:39.211]',-0.155
'[09:34:39.219]',-0.155
'[09:34:39.227]',-0.135
'[09:34:39.234]',-0.135
'[09:34:39.242]',-0.125
'[09:34:39.250]',-0.135
'[09:34:39.258]',-0.115
'[09:34:39.266]',-0.095
'[09:34:39.273]',-0.055
'[09:34:39.281]',0.005
'[09:34:39.289]',0.005
'[09:34:39.297]',0.045
'[09:34:39.305]',0.085
'[09:34:39.313]',0.135
'[09:34:39.320]',0.145
'[09:34:39.328]',0.165
'[09:34:39.336]',0.185
'[09:34:39.344]',0.225
'[09:34:39.352]',0.175
'[09:34:39.359]',0.185
'[09:34:39.367]',0.155
'[09:34:39.375]',0.105
'[09:34:39.383]',0.025
'[09:34:39.391]',-0.015
'[09:34:39.398]',-0.055
'[09:34:39.406]',-0.115
'[09:34:39.414]',-0.155
'[09:34:39.422]',-0.175
'[09:34:39.430]',-0.145
'[09:34:39.438]',-0.145
'[09:34:39.445]',-0.165
'[09:34:39.453]',-0.185
'[09:34:39.461]',-0.195
'[09:34:39.469]',-0.135
'[09:34:39.477]',-0.175
'[09:34:39.484]',-0.145
'[09:34:39.492]',-0.135
'[09:34:39.500]',-0.165
'[09:34:39.508]',-0.105
'[09:34:39.516]',-0.105
'[09:34:39.523]',-0.095
'[09:34:39.531]',-0.095
'[09:34:39.539]',-0.095
