Time,Ecg
21:52:01.155,6089156.0
21:52:01.195,6089087.0
21:52:01.235,6088970.0
21:52:01.275,6089081.0
21:52:01.315,6089420.0
21:52:01.355,6089478.0
21:52:01.395,6089016.0
21:52:01.435,6088760.0
21:52:01.475,6088696.0
21:52:01.515,6090881.0
21:52:01.555,6089984.0
21:52:01.595,6089423.0
21:52:01.635,6089612.0
21:52:01.675,6090257.0
21:52:01.715,6091206.0
21:52:01.755,6091471.0
21:52:01.795,6089870.0
21:52:01.835,6089169.0
21:52:01.875,6088982.0
21:52:01.915,6089161.0
21:52:01.955,6089117.0
21:52:01.995,6089367.0
21:52:02.035,6089551.0
21:52:02.075,6088951.0
21:52:02.115,6088790.0
21:52:02.155,6088670.0
21:52:02.195,6090931.0
21:52:02.235,6089633.0
21:52:02.275,6089460.0
21:52:02.315,6089697.0
21:52:02.355,6090239.0
21:52:02.395,6091108.0
21:52:02.435,6091687.0
21:52:02.475,6090401.0
21:52:02.515,6089201.0
21:52:02.555,6089123.0
21:52:02.595,6089197.0
21:52:02.635,6089240.0
21:52:02.675,6089246.0
21:52:02.715,6089237.0
21:52:02.755,6089549.0
21:52:02.795,6089652.0
21:52:02.835,6089031.0
21:52:02.875,6088883.0
21:52:02.915,6088942.0
21:52:02.955,6088641.0
21:52:02.995,6089952.0
21:52:03.035,6089739.0
21:52:03.075,6090008.0
21:52:03.115,6090614.0
21:52:03.155,6091583.0
21:52:03.195,6091434.0
21:52:03.235,6089655.0
21:52:03.275,6089026.0
21:52:03.315,6089116.0
21:52:03.355,6089113.0
21:52:03.395,6089129.0
21:52:03.435,6089098.0
21:52:03.475,6089126.0
21:52:03.515,6089371.0
21:52:03.555,6089149.0
21:52:03.595,6088818.0
21:52:03.635,6088704.0
21:52:03.675,6088828.0
21:52:03.715,6087281.0
21:52:03.755,6089634.0
21:52:03.795,6089447.0
21:52:03.835,6089863.0
21:52:03.875,6090593.0
21:52:03.915,6091406.0
21:52:03.955,6091156.0
21:52:03.995,6089399.0
21:52:04.035,6089108.0
21:52:04.075,6089000.0
21:52:04.115,6089122.0
21:52:04.155,6089093.0
21:52:04.195,6089187.0
21:52:04.235,6089489.0
21:52:04.275,6089624.0
21:52:04.315,6089030.0
21:52:04.355,6088836.0
21:52:04.395,6088939.0
21:52:04.435,6088281.0
21:52:04.475,6089922.0
21:52:04.515,6089635.0
21:52:04.555,6090051.0
21:52:04.595,6090812.0
21:52:04.635,6091767.0
21:52:04.675,6091499.0
21:52:04.715,6089906.0
21:52:04.755,6089411.0
21:52:04.795,6089402.0
21:52:04.835,6089419.0
21:52:04.875,6089447.0
21:52:04.915,6089407.0
21:52:04.955,6089426.0
21:52:04.995,6089614.0
21:52:05.035,6089958.0
21:52:05.075,6089293.0
21:52:05.115,6089208.0
21:52:06.095,6089084.0
21:52:06.135,6089956.0
21:52:06.175,6090176.0
21:52:06.215,6090635.0
21:52:06.255,6091422.0
21:52:06.295,6092170.0
21:52:06.335,6091335.0
21:52:06.375,6089803.0
21:52:06.415,6089551.0
21:52:06.455,6089645.0
21:52:06.495,6089695.0
21:52:06.535,6089743.0
21:52:06.575,6089667.0
21:52:06.615,6089608.0
21:52:06.655,6090053.0
21:52:06.695,6089805.0
21:52:06.735,6089484.0
21:52:06.775,6089207.0
21:52:06.815,6089549.0
21:52:06.855,6087594.0
21:52:06.895,6090240.0
21:52:06.935,6090172.0
21:52:06.975,6090446.0
21:52:07.015,6091135.0
21:52:07.055,6092179.0
21:52:07.095,6091967.0
21:52:07.135,6089990.0
21:52:07.175,6089624.0
21:52:07.215,6089742.0
21:52:07.255,6089818.0
21:52:07.295,6089801.0
21:52:07.335,6089827.0
21:52:07.375,6090173.0
21:52:07.415,6089997.0
21:52:07.455,6089649.0
21:52:07.495,6089421.0
21:52:07.535,6089907.0
21:52:07.575,6088805.0
21:52:07.615,6090191.0
21:52:07.655,6090304.0
21:52:07.695,6090655.0
21:52:07.735,6091491.0
21:52:07.775,6092474.0
21:52:07.815,6091785.0
21:52:07.855,6090193.0
21:52:07.895,6089893.0
21:52:07.935,6089824.0
21:52:07.975,6089896.0
21:52:08.015,6090048.0
21:52:08.055,6089971.0
21:52:08.095,6089869.0
21:52:08.135,6090283.0
21:52:08.175,6090270.0
21:52:08.215,6089796.0
21:52:08.255,6089546.0
21:52:08.295,6089924.0
21:52:08.335,6088292.0
21:52:08.375,6090388.0
21:52:08.415,6090518.0
21:52:08.455,6090943.0
21:52:08.495,6091716.0
21:52:08.535,6092652.0
21:52:08.575,6092158.0
21:52:08.615,6090517.0
21:52:08.655,6090043.0
21:52:08.695,6090134.0
21:52:08.735,6090082.0
21:52:08.775,6090134.0
21:52:08.815,6090109.0
21:52:08.855,6090048.0
21:52:08.895,6090379.0
21:52:08.935,6090464.0
21:52:08.975,6089801.0
21:52:09.015,6089701.0
21:52:09.055,6089659.0
21:52:09.095,6088691.0
21:52:09.135,6090664.0
21:52:09.175,6090490.0
21:52:09.215,6090914.0
21:52:09.255,6091645.0
21:52:09.295,6092679.0
21:52:09.335,6092426.0
21:52:09.375,6090598.0
21:52:09.415,6090079.0
21:52:09.455,6089997.0
21:52:09.495,6090096.0
21:52:09.535,6090165.0
21:52:09.575,6090123.0
21:52:09.615,6090043.0
21:52:09.655,6090334.0
21:52:09.695,6090621.0
21:52:09.735,6089927.0
21:52:09.775,6089753.0
21:52:09.815,6089821.0
21:52:09.855,6091820.0
21:52:09.895,6091361.0
21:52:09.935,6090447.0
21:52:09.975,6090666.0
21:52:10.015,6091253.0
21:52:10.055,6092189.0
21:52:11.093,6092620.0
21:52:11.133,6090278.0
21:52:11.173,6090353.0
21:52:11.213,6090540.0
21:52:11.253,6090628.0
21:52:11.293,6090103.0
21:52:11.333,6090000.0
21:52:11.373,6089964.0
21:52:11.413,6092503.0
21:52:11.453,6091045.0
21:52:11.493,6090683.0
21:52:11.533,6091005.0
21:52:11.573,6091416.0
21:52:11.613,6092406.0
21:52:11.653,6092985.0
21:52:11.693,6091624.0
21:52:11.733,6090413.0
21:52:11.773,6090301.0
21:52:11.813,6090320.0
21:52:11.853,6090346.0
21:52:11.893,6090390.0
21:52:11.933,6090418.0
21:52:11.973,6090377.0
21:52:12.013,6090842.0
21:52:12.053,6090554.0
21:52:12.093,6090042.0
21:52:12.133,6089976.0
21:52:12.173,6090631.0
21:52:12.213,6089003.0
21:52:12.253,6090700.0
21:52:12.293,6091042.0
21:52:12.333,6091348.0
21:52:12.373,6092211.0
21:52:12.413,6093107.0
21:52:12.453,6092384.0
21:52:12.493,6090750.0
21:52:12.533,6090407.0
21:52:12.573,6090431.0
21:52:12.613,6090508.0
21:52:12.653,6090563.0
21:52:12.693,6090500.0
21:52:12.733,6090428.0
21:52:12.773,6090760.0
21:52:12.813,6090905.0
21:52:12.853,6090288.0
21:52:12.893,6090189.0
21:52:12.933,6090066.0
21:52:12.973,6092578.0
21:52:13.013,6091088.0
21:52:13.053,6090763.0
21:52:13.093,6090880.0
21:52:13.133,6091478.0
21:52:13.173,6092406.0
21:52:13.213,6092947.0
21:52:13.253,6091558.0
21:52:13.293,6090444.0
21:52:13.333,6090294.0
21:52:13.373,6090346.0
21:52:13.413,6090392.0
21:52:13.453,6090441.0
21:52:13.493,6090386.0
21:52:13.533,6090765.0
21:52:13.573,6090526.0
21:52:13.613,6090316.0
21:52:13.653,6090074.0
21:52:13.693,6090474.0
21:52:13.733,6089090.0
21:52:13.773,6090807.0
21:52:13.813,6090898.0
21:52:13.853,6091219.0
21:52:13.893,6091966.0
21:52:13.933,6092874.0
21:52:13.973,6092338.0
21:52:14.013,6090727.0
21:52:14.053,6090333.0
21:52:14.093,6090323.0
21:52:14.133,6090395.0
21:52:14.173,6090423.0
21:52:14.213,6090334.0
21:52:14.253,6090644.0
21:52:14.293,6090632.0
21:52:14.333,6090269.0
21:52:14.373,6090082.0
21:52:14.413,6090141.0
21:52:14.453,6092924.0
21:52:14.493,6091701.0
21:52:14.533,6091417.0
21:52:14.573,6091784.0
21:52:14.613,6092121.0
21:52:14.653,6093032.0
21:52:14.693,6093526.0
21:52:14.733,6092333.0
21:52:14.773,6091328.0
21:52:14.813,6091111.0
21:52:14.853,6091229.0
21:52:14.893,6091194.0
21:52:14.933,6091189.0
21:52:14.973,6091018.0
21:52:15.013,6091390.0
21:52:15.053,6091543.0
21:52:16.086,6090955.0
21:52:16.126,6091751.0
21:52:16.166,6091271.0
21:52:16.206,6091644.0
21:52:16.246,6092270.0
21:52:16.286,6093336.0
21:52:16.326,6093625.0
21:52:16.366,6091887.0
21:52:16.406,6090933.0
21:52:16.446,6090884.0
21:52:16.486,6090939.0
21:52:16.526,6090976.0
21:52:16.566,6090963.0
21:52:16.606,6090880.0
21:52:16.646,6091199.0
21:52:16.686,6091362.0
21:52:16.726,6090718.0
21:52:16.766,6090496.0
21:52:16.806,6090490.0
21:52:16.846,6089226.0
21:52:16.886,6091542.0
21:52:16.926,6091244.0
21:52:16.966,6091661.0
21:52:17.006,6092465.0
21:52:17.046,6093392.0
21:52:17.086,6093149.0
21:52:17.126,6091517.0
21:52:17.166,6090797.0
21:52:17.206,6090740.0
21:52:17.246,6090867.0
21:52:17.286,6090809.0
21:52:17.326,6090786.0
21:52:17.366,6091235.0
21:52:17.406,6090985.0
21:52:17.446,6090546.0
21:52:17.486,6090374.0
21:52:17.526,6091530.0
21:52:17.566,6090234.0
21:52:17.606,6091109.0
21:52:17.646,6091346.0
21:52:17.686,6091767.0
21:52:17.726,6092719.0
21:52:17.766,6093592.0
21:52:17.806,6092907.0
21:52:17.846,6091420.0
21:52:17.886,6091123.0
21:52:17.926,6091104.0
21:52:17.966,6091138.0
21:52:18.006,6091203.0
21:52:18.046,6091448.0
21:52:18.086,6091640.0
21:52:18.126,6091075.0
21:52:18.166,6090861.0
21:52:18.206,6090833.0
21:52:18.246,6092423.0
21:52:18.286,6091890.0
21:52:18.326,6091561.0
21:52:18.366,6091891.0
21:52:18.406,6092217.0
21:52:18.446,6093266.0
21:52:18.486,6093422.0
21:52:18.526,6091962.0
21:52:18.566,6091180.0
21:52:18.606,6091098.0
21:52:18.646,6091196.0
21:52:18.686,6091289.0
21:52:18.726,6091279.0
21:52:18.766,6091654.0
21:52:18.806,6091577.0
21:52:18.846,6091085.0
21:52:18.886,6090815.0
21:52:18.926,6091060.0
21:52:18.966,6089510.0
21:52:19.006,6091436.0
21:52:19.046,6091643.0
21:52:19.086,6092009.0
21:52:19.126,6092856.0
21:52:19.166,6093798.0
21:52:19.206,6093274.0
21:52:19.246,6091485.0
21:52:19.286,6091133.0
21:52:19.326,6091143.0
21:52:19.366,6091208.0
21:52:19.406,6091352.0
21:52:19.446,6091266.0
21:52:19.486,6091732.0
21:52:19.526,6091495.0
21:52:19.566,6090865.0
21:52:19.606,6090809.0
21:52:19.646,6091875.0
21:52:19.686,6090068.0
21:52:19.726,6091452.0
21:52:19.766,6091839.0
21:52:19.806,6092255.0
21:52:19.846,6093129.0
21:52:19.886,6093989.0
21:52:19.926,6093093.0
21:52:19.966,6091456.0
21:52:20.006,6091026.0
21:52:20.046,6091104.0
21:52:47.118,6084542.0
21:52:47.158,6087596.0
21:52:47.198,6088143.0
21:52:47.238,6089047.0
21:52:47.278,6089659.0
21:52:47.318,6088181.0
21:52:47.358,6087295.0
21:52:47.398,6087266.0
21:52:47.438,6087298.0
21:52:47.478,6087379.0
21:52:47.518,6087725.0
21:52:47.558,6087846.0
21:52:47.598,6087264.0
21:52:47.638,6087077.0
21:52:47.678,6087138.0
21:52:47.718,6089935.0
21:52:47.758,6088433.0
21:52:47.798,6087990.0
21:52:47.838,6088267.0
21:52:47.878,6088838.0
21:52:47.918,6089782.0
21:52:47.958,6090104.0
21:52:47.998,6088649.0
21:52:48.038,6087735.0
21:52:48.078,6087684.0
21:52:48.118,6087773.0
21:52:48.158,6087769.0
21:52:48.198,6087896.0
21:52:48.238,6090297.0
21:52:48.278,6090614.0
21:52:48.318,6088988.0
21:52:48.358,6088301.0
21:52:48.398,6088160.0
21:52:48.438,6088297.0
21:52:48.478,6088268.0
21:52:48.518,6088444.0
21:52:48.558,6088796.0
21:52:48.598,6088366.0
21:52:48.638,6087970.0
21:52:48.678,6087966.0
21:52:48.718,6089652.0
21:52:48.758,6088235.0
21:52:48.798,6088567.0
21:52:48.838,6088789.0
21:52:48.878,6089368.0
21:52:48.918,6090167.0
21:52:48.958,6090767.0
21:52:48.998,6089730.0
21:52:49.038,6088532.0
21:52:49.078,6088305.0
21:52:49.118,6088399.0
21:52:49.158,6088464.0
21:52:49.198,6088429.0
21:52:49.238,6088634.0
21:52:49.278,6088877.0
21:52:49.318,6088366.0
21:52:49.358,6088036.0
21:52:49.398,6088031.0
21:52:49.438,6089640.0
21:52:49.478,6088076.0
21:52:49.518,6088593.0
21:52:49.558,6089004.0
21:52:49.598,6089410.0
21:52:49.638,6090217.0
21:52:49.678,6091086.0
21:52:49.718,6090001.0
21:52:49.758,6088602.0
21:52:49.798,6088349.0
21:52:49.838,6088498.0
21:52:49.878,6088543.0
21:52:49.918,6088543.0
21:52:49.958,6088365.0
21:52:49.998,6088770.0
21:52:50.038,6088544.0
21:52:50.078,6088218.0
21:52:50.118,6088187.0
21:52:50.158,6088400.0
21:52:50.198,6087125.0
21:52:50.238,6088834.0
21:52:50.278,6089016.0
21:52:50.318,6089229.0
21:52:50.358,6090010.0
21:52:50.398,6090864.0
21:52:50.438,6090323.0
21:52:50.478,6088877.0
21:52:50.518,6088504.0
21:52:50.558,6088512.0
21:52:50.598,6088703.0
21:52:50.638,6088719.0
21:52:50.678,6088995.0
21:52:50.718,6089267.0
21:52:50.758,6088663.0
21:52:50.798,6088550.0
21:52:50.838,6088670.0
21:52:50.878,6090399.0
21:52:50.918,6089939.0
21:52:50.958,6089292.0
21:52:50.998,6089493.0
21:52:51.038,6090174.0
21:52:51.078,6091077.0
21:52:52.085,6091379.0
21:52:52.125,6089421.0
21:52:52.165,6089739.0
21:52:52.205,6089893.0
21:52:52.245,6089170.0
21:52:52.285,6088948.0
21:52:52.325,6089001.0
21:52:52.365,6089083.0
21:52:52.405,6090216.0
21:52:52.445,6089641.0
21:52:52.485,6090058.0
21:52:52.525,6090709.0
21:52:52.565,6091648.0
21:52:52.605,6091427.0
21:52:52.645,6089783.0
21:52:52.685,6089247.0
21:52:52.725,6089230.0
21:52:52.765,6089319.0
21:52:52.805,6089385.0
21:52:52.845,6089556.0
21:52:52.885,6089718.0
21:52:52.925,6089134.0
21:52:52.965,6088996.0
21:52:53.005,6088946.0
21:52:53.045,6090961.0
21:52:53.085,6090415.0
21:52:53.125,6089729.0
21:52:53.165,6090039.0
21:52:53.205,6090634.0
21:52:53.245,6091588.0
21:52:53.285,6091854.0
21:52:53.325,6090254.0
21:52:53.365,6089501.0
21:52:53.405,6089430.0
21:52:53.445,6089457.0
21:52:53.485,6089444.0
21:52:53.525,6089700.0
21:52:53.565,6090032.0
21:52:53.605,6089339.0
21:52:53.645,6089119.0
21:52:53.685,6089105.0
21:52:53.725,6090566.0
21:52:53.765,6090313.0
21:52:53.805,6089887.0
21:52:53.845,6090242.0
21:52:53.885,6090816.0
21:52:53.925,6091785.0
21:52:53.965,6091794.0
21:52:54.005,6090165.0
21:52:54.045,6089556.0
21:52:54.085,6089531.0
21:52:54.125,6089543.0
21:52:54.165,6089599.0
21:52:54.205,6089970.0
21:52:54.245,6090038.0
21:52:54.285,6089466.0
21:52:54.325,6089302.0
21:52:54.365,6089176.0
21:52:54.405,6091786.0
21:52:54.445,6090078.0
21:52:54.485,6089992.0
21:52:54.525,6090297.0
21:52:54.565,6090812.0
21:52:54.605,6091711.0
21:52:54.645,6092190.0
21:52:54.685,6090847.0
21:52:54.725,6089703.0
21:52:54.765,6089573.0
21:52:54.805,6089469.0
21:52:54.845,6089508.0
21:52:54.885,6089429.0
21:52:54.925,6089733.0
21:52:54.965,6089591.0
21:52:55.005,6089025.0
21:52:55.045,6088987.0
21:52:55.085,6088916.0
21:52:55.125,6091124.0
21:52:55.165,6089573.0
21:52:55.205,6089611.0
21:52:55.245,6089726.0
21:52:55.285,6090388.0
21:52:55.325,6091141.0
21:52:55.365,6091556.0
21:52:55.405,6090282.0
21:52:55.445,6089158.0
21:52:55.485,6088979.0
21:52:55.525,6088992.0
21:52:55.565,6089206.0
21:52:55.605,6089381.0
21:52:55.645,6089473.0
21:52:55.685,6089021.0
21:52:55.725,6088782.0
21:52:55.765,6088644.0
21:52:55.805,6090896.0
21:52:55.845,6090040.0
21:52:55.885,6089580.0
21:52:55.925,6089773.0
21:52:55.965,6090320.0
21:52:56.005,6091195.0
21:52:56.045,6091517.0
21:52:57.085,6089954.0
21:52:57.125,6089008.0
21:52:57.165,6088924.0
21:52:57.205,6090818.0
21:52:57.245,6090073.0
21:52:57.285,6089709.0
21:52:57.325,6089970.0
21:52:57.365,6090539.0
21:52:57.405,6091478.0
21:52:57.445,6091508.0
21:52:57.485,6089911.0
21:52:57.525,6089145.0
21:52:57.565,6089135.0
21:52:57.605,6089501.0
21:52:57.645,6089836.0
21:52:57.685,6089567.0
21:52:57.725,6089132.0
21:52:57.765,6088800.0
21:52:57.805,6089973.0
21:52:57.845,6088800.0
21:52:57.885,6089529.0
21:52:57.925,6089805.0
21:52:57.965,6090086.0
21:52:58.005,6091072.0
21:52:58.045,6091767.0
21:52:58.085,6090516.0
21:52:58.125,6089012.0
21:52:58.165,6089011.0
21:52:58.205,6088638.0
21:52:58.245,6089051.0
21:52:58.285,6088911.0
21:52:58.325,6088248.0
21:52:58.365,6088476.0
21:52:58.405,6088285.0
21:52:58.445,6090068.0
21:52:58.485,6088694.0
21:52:58.525,6088858.0
21:52:58.565,6088967.0
21:52:58.605,6089363.0
21:52:58.645,6090333.0
21:52:58.685,6090549.0
21:52:58.725,6089311.0
21:52:58.765,6088520.0
21:52:58.805,6088308.0
21:52:58.845,6088475.0
21:52:58.885,6088919.0
21:52:58.925,6088838.0
21:52:58.965,6088364.0
21:52:59.005,6088249.0
21:52:59.045,6088053.0
21:52:59.085,6089858.0
21:52:59.125,6089252.0
21:52:59.165,6088904.0
21:52:59.205,6089107.0
21:52:59.245,6089747.0
21:52:59.285,6090460.0
21:52:59.325,6090534.0
21:52:59.365,6089228.0
21:52:59.405,6088698.0
21:52:59.445,6088635.0
21:52:59.485,6088780.0
21:52:59.525,6089088.0
21:52:59.565,6089365.0
21:52:59.605,6088561.0
21:52:59.645,6088502.0
21:52:59.685,6088470.0
21:52:59.725,6089974.0
21:52:59.765,6089423.0
21:52:59.805,6089157.0
21:52:59.845,6089440.0
21:52:59.885,6089920.0
21:52:59.925,6090819.0
21:52:59.965,6090786.0
21:53:00.005,6089426.0
21:53:00.045,6088865.0
21:53:00.085,6088878.0
21:53:00.125,6088941.0
21:53:00.165,6089126.0
21:53:00.205,6089398.0
21:53:00.245,6089170.0
21:53:00.285,6088826.0
21:53:00.325,6088630.0
21:53:00.365,6089781.0
21:53:00.405,6088915.0
21:53:00.445,6089213.0
21:53:00.485,6089529.0
21:53:00.525,6089946.0
21:53:00.565,6090749.0
21:53:00.605,6091471.0
21:53:00.645,6090434.0
21:53:00.685,6089161.0
21:53:00.725,6089132.0
21:53:00.765,6089242.0
21:53:00.805,6089333.0
21:53:00.845,6089549.0
21:53:00.885,6089690.0
21:53:00.925,6089111.0
21:53:00.965,6088924.0
21:53:01.005,6088757.0
21:53:01.045,6090914.0
21:53:02.142,6089652.0
21:53:02.182,6090872.0
21:53:02.222,6089653.0
21:53:02.262,6089645.0
21:53:02.302,6089707.0
21:53:02.342,6089803.0
21:53:02.382,6090059.0
21:53:02.422,6090290.0
21:53:02.462,6089492.0
21:53:02.502,6089198.0
21:53:02.542,6089265.0
21:53:02.582,6089313.0
21:53:02.622,6090318.0
21:53:02.662,6090298.0
21:53:02.702,6090731.0
21:53:02.742,6091542.0
21:53:02.782,6092449.0
21:53:02.822,6092308.0
21:53:02.862,6090511.0
21:53:02.902,6089902.0
21:53:02.942,6090032.0
21:53:02.982,6089835.0
21:53:03.022,6090095.0
21:53:03.062,6090192.0
21:53:03.102,6089470.0
21:53:03.142,6089129.0
21:53:03.182,6089094.0
21:53:03.222,6091124.0
21:53:03.262,6090454.0
21:53:03.302,6089940.0
21:53:03.342,6090260.0
21:53:03.382,6091192.0
21:53:03.422,6092337.0
21:53:03.462,6092565.0
21:53:03.502,6090557.0
21:53:03.542,6089504.0
21:53:03.582,6089504.0
21:53:03.622,6089321.0
21:53:03.662,6089669.0
21:53:03.702,6089711.0
21:53:03.742,6089006.0
21:53:03.782,6088792.0
21:53:03.822,6088765.0
21:53:03.862,6089974.0
21:53:03.902,6090243.0
21:53:03.942,6089648.0
21:53:03.982,6090110.0
21:53:04.022,6090669.0
21:53:04.062,6091624.0
21:53:04.102,6091561.0
21:53:04.142,6089857.0
21:53:04.182,6089375.0
21:53:04.222,6089532.0
21:53:04.262,6089538.0
21:53:04.302,6089883.0
21:53:04.342,6090152.0
21:53:04.382,6089437.0
21:53:04.422,6089132.0
21:53:04.462,6089017.0
21:53:04.502,6088713.0
21:53:04.542,6089968.0
21:53:04.582,6089848.0
21:53:04.622,6090139.0
21:53:04.662,6090898.0
21:53:04.702,6091613.0
21:53:04.742,6091224.0
21:53:04.782,6089318.0
21:53:04.822,6088799.0
21:53:04.862,6088667.0
21:53:04.902,6088731.0
21:53:04.942,6088938.0
21:53:04.982,6089019.0
21:53:05.022,6088142.0
21:53:05.062,6087981.0
21:53:05.102,6087878.0
21:53:05.142,6086618.0
21:53:05.182,6088806.0
21:53:05.222,6088905.0
21:53:05.262,6089247.0
21:53:05.302,6090208.0
21:53:05.342,6091057.0
21:53:05.382,6090552.0
21:53:05.422,6088570.0
21:53:05.462,6088432.0
21:53:05.502,6088531.0
21:53:05.542,6088537.0
21:53:05.582,6088801.0
21:53:05.622,6089046.0
21:53:05.662,6088470.0
21:53:05.702,6088264.0
21:53:05.742,6088237.0
21:53:05.782,6088181.0
21:53:05.822,6089349.0
21:53:05.862,6088937.0
21:53:05.902,6089378.0
21:53:05.942,6090231.0
21:53:05.982,6091174.0
21:53:06.022,6090873.0
21:53:06.062,6089135.0
21:53:06.102,6088787.0
21:53:07.076,6088803.0
21:53:07.116,6090999.0
21:53:07.156,6089511.0
21:53:07.196,6089247.0
21:53:07.236,6089612.0
21:53:07.276,6090140.0
21:53:07.316,6091018.0
21:53:07.356,6091321.0
21:53:07.396,6089718.0
21:53:07.436,6088865.0
21:53:07.476,6088860.0
21:53:07.516,6089014.0
21:53:07.556,6088940.0
21:53:07.596,6089043.0
21:53:07.636,6089369.0
21:53:07.676,6089101.0
21:53:07.716,6088614.0
21:53:07.756,6088483.0
21:53:07.796,6090264.0
21:53:07.836,6088978.0
21:53:07.876,6089113.0
21:53:07.916,6089421.0
21:53:07.956,6089946.0
21:53:07.996,6090703.0
21:53:08.036,6091126.0
21:53:08.076,6089759.0
21:53:08.116,6088617.0
21:53:08.156,6088542.0
21:53:08.196,6088527.0
21:53:08.236,6088423.0
21:53:08.276,6088336.0
21:53:08.316,6088560.0
21:53:08.356,6088761.0
21:53:08.396,6088267.0
21:53:08.436,6088107.0
21:53:08.476,6087935.0
21:53:08.516,6090382.0
21:53:08.556,6089159.0
21:53:08.596,6088732.0
21:53:08.636,6089132.0
21:53:08.676,6089706.0
21:53:08.716,6090615.0
21:53:08.756,6090989.0
21:53:08.796,6089395.0
21:53:08.836,6088551.0
21:53:08.876,6088421.0
21:53:08.916,6088437.0
21:53:08.956,6088448.0
21:53:08.996,6088399.0
21:53:09.036,6088580.0
21:53:09.076,6088822.0
21:53:09.116,6088161.0
21:53:09.156,6087938.0
21:53:09.196,6087902.0
21:53:09.236,6088099.0
21:53:09.276,6089154.0
21:53:09.316,6088758.0
21:53:09.356,6089153.0
21:53:09.396,6089950.0
21:53:09.436,6091013.0
21:53:09.476,6090835.0
21:53:09.516,6088753.0
21:53:09.556,6088131.0
21:53:09.596,6088214.0
21:53:09.636,6088284.0
21:53:09.676,6088202.0
21:53:09.716,6088485.0
21:53:09.756,6088652.0
21:53:09.796,6088084.0
21:53:09.836,6087950.0
21:53:09.876,6087815.0
21:53:09.916,6088820.0
21:53:09.956,6089232.0
21:53:09.996,6088869.0
21:53:10.036,6089181.0
21:53:10.076,6089985.0
21:53:10.116,6090944.0
21:53:10.156,6090899.0
21:53:10.196,6089108.0
21:53:10.236,6088423.0
21:53:10.276,6088249.0
21:53:10.316,6088344.0
21:53:10.356,6088195.0
21:53:10.396,6088561.0
21:53:10.436,6088600.0
21:53:10.476,6088018.0
21:53:10.516,6087924.0
21:53:10.556,6087875.0
21:53:10.596,6089058.0
21:53:10.636,6089203.0
21:53:10.676,6088767.0
21:53:10.716,6089098.0
21:53:10.756,6089830.0
21:53:10.796,6090626.0
21:53:10.836,6090734.0
21:53:10.876,6088919.0
21:53:10.916,6088374.0
21:53:10.956,6088330.0
21:53:10.996,6088629.0
21:53:11.036,6088694.0
21:53:11.233,6089015.0
21:53:11.273,6089876.0
21:53:11.313,6090299.0
21:53:11.353,6091300.0
21:53:11.393,6091954.0
21:53:11.433,6090648.0
21:53:11.473,6089431.0
21:53:11.513,6089252.0
21:53:11.553,6089347.0
21:53:11.593,6089333.0
21:53:11.633,6089760.0
21:53:11.673,6089709.0
21:53:11.713,6089175.0
21:53:11.753,6089119.0
21:53:11.793,6089014.0
21:53:11.833,6091008.0
21:53:11.873,6090331.0
21:53:11.913,6089830.0
21:53:11.953,6090258.0
21:53:11.993,6090955.0
21:53:12.033,6092048.0
21:53:12.073,6092043.0
21:53:12.113,6090303.0
21:53:12.153,6089700.0
21:53:12.193,6089740.0
21:53:12.233,6089690.0
21:53:12.273,6089817.0
21:53:12.313,6089901.0
21:53:12.353,6090190.0
21:53:12.393,6089791.0
21:53:12.433,6089418.0
21:53:12.473,6089261.0
21:53:12.513,6091394.0
21:53:12.553,6090067.0
21:53:12.593,6090126.0
21:53:12.633,6090373.0
21:53:12.673,6091047.0
21:53:12.713,6092067.0
21:53:12.753,6092433.0
21:53:12.793,6090854.0
21:53:12.833,6089856.0
21:53:12.873,6089790.0
21:53:12.913,6089851.0
21:53:12.953,6089815.0
21:53:12.993,6089776.0
21:53:13.033,6089995.0
21:53:13.073,6090265.0
21:53:13.113,6089588.0
21:53:13.153,6089444.0
21:53:13.193,6089937.0
21:53:13.233,6088770.0
21:53:13.273,6090025.0
21:53:13.313,6090365.0
21:53:13.353,6090670.0
21:53:13.393,6091628.0
21:53:13.433,6092288.0
21:53:13.473,6091179.0
21:53:13.513,6089499.0
21:53:13.553,6089384.0
21:53:13.593,6089386.0
21:53:13.633,6089096.0
21:53:13.673,6088558.0
21:53:13.713,6088934.0
21:53:13.753,6088957.0
21:53:13.793,6089455.0
21:53:13.833,6088862.0
21:53:13.873,6088216.0
21:53:13.913,6087624.0
21:53:13.953,6089143.0
21:53:13.993,6089953.0
21:53:14.033,6088650.0
21:53:14.073,6088869.0
21:53:14.113,6088948.0
21:53:14.153,6089849.0
21:53:14.193,6089985.0
21:53:14.233,6087682.0
21:53:14.273,6087487.0
21:53:14.313,6087310.0
21:53:14.353,6087404.0
21:53:14.393,6087329.0
21:53:14.433,6087376.0
21:53:14.473,6087603.0
21:53:14.513,6087696.0
21:53:14.553,6087214.0
21:53:14.593,6086816.0
21:53:14.633,6086850.0
21:53:14.673,6085828.0
21:53:14.713,6087710.0
21:53:14.753,6087612.0
21:53:14.793,6087905.0
21:53:14.833,6088793.0
21:53:14.873,6089878.0
21:53:14.913,6089291.0
21:53:14.953,6087450.0
21:53:14.993,6086963.0
21:53:15.033,6086793.0
21:53:15.073,6087212.0
21:53:15.113,6086989.0
21:53:15.153,6087190.0
21:53:15.193,6087469.0
21:53:17.171,6086842.0
21:53:17.211,6087967.0
21:53:17.251,6088663.0
21:53:17.291,6089636.0
21:53:17.331,6089024.0
21:53:17.371,6087468.0
21:53:17.411,6087166.0
21:53:17.451,6087128.0
21:53:17.491,6087316.0
21:53:17.531,6087231.0
21:53:17.571,6087407.0
21:53:17.611,6087671.0
21:53:17.651,6087426.0
21:53:17.691,6086967.0
21:53:17.731,6086872.0
21:53:17.771,6088763.0
21:53:17.811,6086511.0
21:53:17.851,6087613.0
21:53:17.891,6087919.0
21:53:17.931,6088388.0
21:53:17.971,6089347.0
21:53:18.011,6090013.0
21:53:18.051,6088908.0
21:53:18.091,6087648.0
21:53:18.131,6087263.0
21:53:18.171,6087385.0
21:53:18.211,6087585.0
21:53:18.251,6087613.0
21:53:18.291,6087809.0
21:53:18.331,6087981.0
21:53:18.371,6087382.0
21:53:18.411,6087153.0
21:53:18.451,6087229.0
21:53:18.491,6089937.0
21:53:18.531,6088466.0
21:53:18.571,6088045.0
21:53:18.611,6088364.0
21:53:18.651,6088950.0
21:53:18.691,6089915.0
21:53:18.731,6090253.0
21:53:18.771,6088647.0
21:53:18.811,6087738.0
21:53:18.851,6087564.0
21:53:18.891,6087639.0
21:53:18.931,6087751.0
21:53:18.971,6087914.0
21:53:19.011,6088153.0
21:53:19.051,6087760.0
21:53:19.091,6087550.0
21:53:19.131,6087447.0
21:53:19.171,6089561.0
21:53:19.211,6087816.0
21:53:19.251,6088110.0
21:53:19.291,6088417.0
21:53:19.331,6088937.0
21:53:19.371,6089894.0
21:53:19.411,6090279.0
21:53:19.451,6089048.0
21:53:19.491,6087943.0
21:53:19.531,6087760.0
21:53:19.571,6087887.0
21:53:19.611,6087950.0
21:53:19.651,6087974.0
21:53:19.691,6088251.0
21:53:19.731,6088357.0
21:53:19.771,6087846.0
21:53:19.811,6087790.0
21:53:19.851,6088258.0
21:53:19.891,6087297.0
21:53:19.931,6088533.0
21:53:19.971,6088782.0
21:53:20.011,6089223.0
21:53:20.051,6089913.0
21:53:20.091,6090410.0
21:53:20.131,6089874.0
21:53:20.171,6088532.0
21:53:20.211,6088278.0
21:53:20.251,6088337.0
21:53:20.291,6088423.0
21:53:20.331,6088424.0
21:53:20.371,6088517.0
21:53:20.411,6088763.0
21:53:20.451,6088447.0
21:53:20.491,6088143.0
21:53:20.531,6087920.0
21:53:20.571,6089511.0
21:53:20.611,6088129.0
21:53:20.651,6088543.0
21:53:20.691,6088816.0
21:53:20.731,6089352.0
21:53:20.771,6090234.0
21:53:20.811,6090812.0
21:53:20.851,6089744.0
21:53:20.891,6088514.0
21:53:20.931,6088288.0
21:53:20.971,6088322.0
21:53:21.011,6088401.0
21:53:21.051,6088402.0
21:53:21.091,6088559.0
21:53:21.131,6088939.0
21:53:21.263,6088539.0
21:53:21.303,6090672.0
21:53:21.343,6089555.0
21:53:21.383,6088945.0
21:53:21.423,6089374.0
21:53:21.463,6090045.0
21:53:21.503,6090969.0
21:53:21.543,6091220.0
21:53:21.583,6089682.0
21:53:21.623,6088712.0
21:53:21.663,6088666.0
21:53:21.703,6088748.0
21:53:21.743,6088792.0
21:53:21.783,6088616.0
21:53:21.823,6088796.0
21:53:21.863,6088955.0
21:53:21.903,6088429.0
21:53:21.943,6088358.0
21:53:21.983,6088158.0
21:53:22.023,6090280.0
21:53:22.063,6088697.0
21:53:22.103,6088866.0
21:53:22.143,6089256.0
21:53:22.183,6089840.0
21:53:22.223,6090720.0
21:53:22.263,6091259.0
21:53:22.303,6089788.0
21:53:22.343,6088909.0
21:53:22.383,6088829.0
21:53:22.423,6088745.0
21:53:22.463,6088847.0
21:53:22.503,6088817.0
21:53:22.543,6089110.0
21:53:22.583,6089270.0
21:53:22.623,6088799.0
21:53:22.663,6088600.0
21:53:22.703,6088913.0
21:53:22.743,6087878.0
21:53:22.783,6089554.0
21:53:22.823,6089522.0
21:53:22.863,6089881.0
21:53:22.903,6090799.0
21:53:22.943,6091570.0
21:53:22.983,6091040.0
21:53:23.023,6089435.0
21:53:23.063,6089141.0
21:53:23.103,6089156.0
21:53:23.143,6089265.0
21:53:23.183,6089231.0
21:53:23.223,6089500.0
21:53:23.263,6089671.0
21:53:23.303,6089152.0
21:53:23.343,6088919.0
21:53:23.383,6088941.0
21:53:23.423,6088655.0
21:53:23.463,6089907.0
21:53:23.503,6089774.0
21:53:23.543,6090166.0
21:53:23.583,6090902.0
21:53:23.623,6091766.0
21:53:23.663,6091378.0
21:53:23.703,6089794.0
21:53:23.743,6089384.0
21:53:23.783,6089358.0
21:53:23.823,6089468.0
21:53:23.863,6089506.0
21:53:23.903,6089482.0
21:53:23.943,6089796.0
21:53:23.983,6089744.0
21:53:24.023,6089135.0
21:53:24.063,6089008.0
21:53:24.103,6089419.0
21:53:24.143,6087718.0
21:53:24.183,6089780.0
21:53:24.223,6090053.0
21:53:24.263,6090469.0
21:53:24.303,6091252.0
21:53:24.343,6092161.0
21:53:24.383,6091391.0
21:53:24.423,6089744.0
21:53:24.463,6089437.0
21:53:24.503,6089337.0
21:53:24.543,6089558.0
21:53:24.583,6089503.0
21:53:24.623,6089455.0
21:53:24.663,6089721.0
21:53:24.703,6089833.0
21:53:24.743,6089111.0
21:53:24.783,6088919.0
21:53:24.823,6088995.0
21:53:24.863,6087742.0
21:53:24.903,6089922.0
21:53:24.943,6089875.0
21:53:24.983,6090186.0
21:53:25.023,6090967.0
21:53:25.063,6091854.0
21:53:25.103,6091442.0
21:53:25.143,6089769.0
21:53:25.183,6089311.0
21:53:25.223,6089190.0
21:53:26.223,6089270.0
21:53:26.263,6089138.0
21:53:26.303,6088069.0
21:53:26.343,6089862.0
21:53:26.383,6089714.0
21:53:26.423,6090127.0
21:53:26.463,6090799.0
21:53:26.503,6091768.0
21:53:26.543,6091171.0
21:53:26.583,6089536.0
21:53:26.623,6089197.0
21:53:26.663,6089237.0
21:53:26.703,6089307.0
21:53:26.743,6089325.0
21:53:26.783,6089288.0
21:53:26.823,6089167.0
21:53:26.863,6089535.0
21:53:26.903,6089309.0
21:53:26.943,6088842.0
21:53:26.983,6088697.0
21:53:27.023,6089433.0
21:53:27.063,6088326.0
21:53:27.103,6089366.0
21:53:27.143,6089536.0
21:53:27.183,6090002.0
21:53:27.223,6090751.0
21:53:27.263,6091649.0
21:53:27.303,6090888.0
21:53:27.343,6089359.0
21:53:27.383,6089087.0
21:53:27.423,6089143.0
21:53:27.463,6089073.0
21:53:27.503,6089153.0
21:53:27.543,6089053.0
21:53:27.583,6089036.0
21:53:27.623,6089294.0
21:53:27.663,6089474.0
21:53:27.703,6088841.0
21:53:27.743,6088695.0
21:53:27.783,6088625.0
21:53:27.823,6090110.0
21:53:27.863,6089875.0
21:53:27.903,6089418.0
21:53:27.943,6089795.0
21:53:27.983,6090375.0
21:53:28.023,6091407.0
21:53:28.063,6091484.0
21:53:28.103,6089831.0
21:53:28.143,6088990.0
21:53:28.183,6088986.0
21:53:28.223,6089038.0
21:53:28.263,6089011.0
21:53:28.303,6089047.0
21:53:28.343,6089006.0
21:53:28.383,6089506.0
21:53:28.423,6089097.0
21:53:28.463,6088744.0
21:53:28.503,6088551.0
21:53:28.543,6089752.0
21:53:28.583,6088473.0
21:53:28.623,6089320.0
21:53:28.663,6089522.0
21:53:28.703,6089951.0
21:53:28.743,6090743.0
21:53:28.783,6091615.0
21:53:28.823,6090716.0
21:53:28.863,6089289.0
21:53:28.903,6089039.0
21:53:28.943,6088969.0
21:53:28.983,6089199.0
21:53:29.023,6089124.0
21:53:29.063,6089391.0
21:53:29.103,6089572.0
21:53:29.143,6088959.0
21:53:29.183,6088825.0
21:53:29.223,6088784.0
21:53:29.263,6089889.0
21:53:29.303,6090035.0
21:53:29.343,6089685.0
21:53:29.383,6089900.0
21:53:29.423,6090533.0
21:53:29.463,6091457.0
21:53:29.503,6091476.0
21:53:29.543,6089806.0
21:53:29.583,6089087.0
21:53:29.623,6089024.0
21:53:29.663,6089123.0
21:53:29.703,6089184.0
21:53:29.743,6089117.0
21:53:29.783,6089368.0
21:53:29.823,6089564.0
21:53:29.863,6089060.0
21:53:29.903,6088850.0
21:53:29.943,6088818.0
21:53:29.983,6091129.0
21:53:30.023,6090113.0
21:53:30.063,6089558.0
21:53:30.103,6089860.0
21:53:30.143,6090509.0
21:53:30.183,6091441.0
21:53:32.111,6091612.0
21:53:32.151,6089107.0
21:53:32.191,6089177.0
21:53:32.231,6089209.0
21:53:32.271,6089049.0
21:53:32.311,6089423.0
21:53:32.351,6089384.0
21:53:32.391,6088958.0
21:53:32.431,6088641.0
21:53:32.471,6088579.0
21:53:32.511,6091091.0
21:53:32.551,6089820.0
21:53:32.591,6089326.0
21:53:32.631,6089673.0
21:53:32.671,6090094.0
21:53:32.711,6091178.0
21:53:32.751,6091347.0
21:53:32.791,6089945.0
21:53:32.831,6088967.0
21:53:32.871,6088972.0
21:53:32.911,6088845.0
21:53:32.951,6088948.0
21:53:32.991,6088922.0
21:53:33.031,6089103.0
21:53:33.071,6089269.0
21:53:33.111,6088823.0
21:53:33.151,6088476.0
21:53:33.191,6088836.0
21:53:33.231,6087285.0
21:53:33.271,6089362.0
21:53:33.311,6089471.0
21:53:33.351,6089701.0
21:53:33.391,6090513.0
21:53:33.431,6091283.0
21:53:33.471,6090768.0
21:53:33.511,6089310.0
21:53:33.551,6088859.0
21:53:33.591,6088826.0
21:53:33.631,6088950.0
21:53:33.671,6088901.0
21:53:33.711,6089262.0
21:53:33.751,6089544.0
21:53:33.791,6088719.0
21:53:33.831,6088506.0
21:53:33.871,6088388.0
21:53:33.911,6088692.0
21:53:33.951,6089682.0
21:53:33.991,6088975.0
21:53:34.031,6089648.0
21:53:34.071,6090223.0
21:53:34.111,6091198.0
21:53:34.151,6090972.0
21:53:34.191,6089278.0
21:53:34.231,6088769.0
21:53:34.271,6088854.0
21:53:34.311,6088819.0
21:53:34.351,6088767.0
21:53:34.391,6088869.0
21:53:34.431,6089277.0
21:53:34.471,6088833.0
21:53:34.511,6088407.0
21:53:34.551,6088362.0
21:53:34.591,6089754.0
21:53:34.631,6088268.0
21:53:34.671,6089049.0
21:53:34.711,6089242.0
21:53:34.751,6089620.0
21:53:34.791,6090398.0
21:53:34.831,6091161.0
21:53:34.871,6090159.0
21:53:34.911,6088830.0
21:53:34.951,6088624.0
21:53:34.991,6088693.0
21:53:35.031,6088583.0
21:53:35.071,6088883.0
21:53:35.111,6089072.0
21:53:35.151,6088865.0
21:53:35.191,6088353.0
21:53:35.231,6088323.0
21:53:35.271,6089670.0
21:53:35.311,6088325.0
21:53:35.351,6089015.0
21:53:35.391,6089069.0
21:53:35.431,6089660.0
21:53:35.471,6090495.0
21:53:35.511,6091193.0
21:53:35.551,6090014.0
21:53:35.591,6088728.0
21:53:35.631,6088645.0
21:53:35.671,6088676.0
21:53:35.711,6088778.0
21:53:35.751,6088758.0
21:53:35.791,6089161.0
21:53:35.831,6088995.0
21:53:35.871,6088517.0
21:53:35.911,6088233.0
21:53:35.951,6088673.0
21:53:35.991,6087436.0
21:53:36.031,6089029.0
21:53:36.071,6089185.0
21:53:36.200,6089569.0
21:53:36.240,6088635.0
21:53:36.280,6088510.0
21:53:36.320,6088580.0
21:53:36.360,6088534.0
21:53:36.400,6088554.0
21:53:36.440,6088811.0
21:53:36.480,6088878.0
21:53:36.520,6088355.0
21:53:36.560,6088294.0
21:53:36.600,6088109.0
21:53:36.640,6091010.0
21:53:36.680,6089013.0
21:53:36.720,6088943.0
21:53:36.760,6089120.0
21:53:36.800,6089735.0
21:53:36.840,6090600.0
21:53:36.880,6091121.0
21:53:36.920,6089754.0
21:53:36.960,6088680.0
21:53:37.000,6088678.0
21:53:37.040,6088631.0
21:53:37.080,6088659.0
21:53:37.120,6088490.0
21:53:37.160,6088675.0
21:53:37.200,6088823.0
21:53:37.240,6088262.0
21:53:37.280,6088143.0
21:53:37.320,6088095.0
21:53:37.360,6090198.0
21:53:37.400,6088503.0
21:53:37.440,6088910.0
21:53:37.480,6089105.0
21:53:37.520,6089605.0
21:53:37.560,6090447.0
21:53:37.600,6090961.0
21:53:37.640,6089815.0
21:53:37.680,6088718.0
21:53:37.720,6088415.0
21:53:37.760,6088567.0
21:53:37.800,6088612.0
21:53:37.840,6088584.0
21:53:37.880,6088763.0
21:53:37.920,6088915.0
21:53:37.960,6088331.0
21:53:38.000,6088167.0
21:53:38.040,6088163.0
21:53:38.080,6089915.0
21:53:38.120,6089443.0
21:53:38.160,6088932.0
21:53:38.200,6089157.0
21:53:38.240,6089645.0
21:53:38.280,6090694.0
21:53:38.320,6090843.0
21:53:38.360,6089246.0
21:53:38.400,6088532.0
21:53:38.440,6088456.0
21:53:38.480,6088578.0
21:53:38.520,6088671.0
21:53:38.560,6088555.0
21:53:38.600,6088523.0
21:53:38.640,6088727.0
21:53:38.680,6089043.0
21:53:38.720,6088406.0
21:53:38.760,6088224.0
21:53:38.800,6088225.0
21:53:38.840,6089469.0
21:53:38.880,6089344.0
21:53:38.920,6088862.0
21:53:38.960,6089287.0
21:53:39.000,6089935.0
21:53:39.040,6090826.0
21:53:39.080,6091021.0
21:53:39.120,6089407.0
21:53:39.160,6088694.0
21:53:39.200,6088573.0
21:53:39.240,6088750.0
21:53:39.280,6088718.0
21:53:39.320,6088787.0
21:53:39.360,6088610.0
21:53:39.400,6088922.0
21:53:39.440,6089208.0
21:53:39.480,6088617.0
21:53:39.520,6088468.0
21:53:39.560,6088340.0
21:53:39.600,6090384.0
21:53:39.640,6088344.0
21:53:39.680,6088992.0
21:53:39.720,6089155.0
21:53:39.760,6089695.0
21:53:39.800,6090643.0
21:53:39.840,6091395.0
21:53:39.880,6090317.0
21:53:39.920,6089018.0
21:53:39.960,6088694.0
21:53:40.000,6088804.0
21:53:40.040,6088804.0
21:53:40.080,6088888.0
21:53:40.120,6088711.0
21:53:40.160,6088877.0
21:53:41.213,6089165.0
21:53:41.253,6090819.0
21:53:41.293,6089174.0
21:53:41.333,6089197.0
21:53:41.373,6089472.0
21:53:41.413,6089934.0
21:53:41.453,6090732.0
21:53:41.493,6091269.0
21:53:41.533,6090085.0
21:53:41.573,6089060.0
21:53:41.613,6088970.0
21:53:41.653,6089075.0
21:53:41.693,6089194.0
21:53:41.733,6089134.0
21:53:41.773,6089401.0
21:53:41.813,6089652.0
21:53:41.853,6089007.0
21:53:41.893,6088839.0
21:53:41.933,6088857.0
21:53:41.973,6089429.0
21:53:42.013,6089911.0
21:53:42.053,6089627.0
21:53:42.093,6089974.0
21:53:42.133,6090472.0
21:53:42.173,6091343.0
21:53:42.213,6091442.0
21:53:42.253,6089948.0
21:53:42.293,6089214.0
21:53:42.333,6089231.0
21:53:42.373,6089195.0
21:53:42.413,6089340.0
21:53:42.453,6089373.0
21:53:42.493,6089706.0
21:53:42.533,6089518.0
21:53:42.573,6088953.0
21:53:42.613,6088866.0
21:53:42.653,6089628.0
21:53:42.693,6087867.0
21:53:42.733,6089454.0
21:53:42.773,6089776.0
21:53:42.813,6090274.0
21:53:42.853,6090969.0
21:53:42.893,6091842.0
21:53:42.933,6091094.0
21:53:42.973,6089525.0
21:53:43.013,6089265.0
21:53:43.053,6089317.0
21:53:43.093,6089257.0
21:53:43.133,6089366.0
21:53:43.173,6089587.0
21:53:43.213,6089808.0
21:53:43.253,6089185.0
21:53:43.293,6088980.0
21:53:43.333,6088828.0
21:53:43.373,6091294.0
21:53:43.413,6089130.0
21:53:43.453,6089597.0
21:53:43.493,6089960.0
21:53:43.533,6090393.0
21:53:43.573,6091612.0
21:53:43.613,6092052.0
21:53:43.653,6090839.0
21:53:43.693,6089456.0
21:53:43.733,6089394.0
21:53:43.773,6089317.0
21:53:43.813,6089598.0
21:53:43.853,6089921.0
21:53:43.893,6089666.0
21:53:43.933,6089405.0
21:53:43.973,6089266.0
21:53:44.013,6089341.0
21:53:44.053,6091570.0
21:53:44.093,6090017.0
21:53:44.133,6089964.0
21:53:44.173,6090210.0
21:53:44.213,6090658.0
21:53:44.253,6091644.0
21:53:44.293,6092038.0
21:53:44.333,6090689.0
21:53:44.373,6089624.0
21:53:44.413,6089582.0
21:53:44.453,6089577.0
21:53:44.493,6089617.0
21:53:44.533,6089972.0
21:53:44.573,6089988.0
21:53:44.613,6089503.0
21:53:44.653,6089262.0
21:53:44.693,6089625.0
21:53:44.733,6088559.0
21:53:44.773,6090028.0
21:53:44.813,6090160.0
21:53:44.853,6090580.0
21:53:44.893,6091320.0
21:53:44.933,6092156.0
21:53:44.973,6091438.0
21:53:45.013,6089981.0
21:53:45.053,6089671.0
21:53:45.093,6089611.0
21:53:45.133,6089722.0
21:53:45.173,6089995.0
21:53:45.465,6090156.0
21:53:45.505,6090269.0
21:53:45.545,6090664.0
21:53:45.585,6091550.0
21:53:45.625,6092046.0
21:53:45.665,6091219.0
21:53:45.705,6089819.0
21:53:45.745,6089563.0
21:53:45.785,6089564.0
21:53:45.825,6089717.0
21:53:45.865,6089944.0
21:53:45.905,6090023.0
21:53:45.945,6089609.0
21:53:45.985,6089465.0
21:53:46.025,6089355.0
21:53:46.065,6091661.0
21:53:46.105,6090222.0
21:53:46.145,6090177.0
21:53:46.185,6090555.0
21:53:46.225,6090999.0
21:53:46.265,6092009.0
21:53:46.305,6092328.0
21:53:46.345,6091083.0
21:53:46.385,6090072.0
21:53:46.425,6089821.0
21:53:46.465,6089969.0
21:53:46.505,6089909.0
21:53:46.545,6090327.0
21:53:46.585,6090204.0
21:53:46.625,6089608.0
21:53:46.665,6089369.0
21:53:46.705,6089234.0
21:53:46.745,6089586.0
21:53:46.785,6090463.0
21:53:46.825,6089997.0
21:53:46.865,6090429.0
21:53:46.905,6091013.0
21:53:46.945,6091961.0
21:53:46.985,6091680.0
21:53:47.025,6090289.0
21:53:47.065,6089868.0
21:53:47.105,6089809.0
21:53:47.145,6089914.0
21:53:47.185,6089978.0
21:53:47.225,6090483.0
21:53:47.265,6090595.0
21:53:47.305,6090162.0
21:53:47.345,6089925.0
21:53:47.385,6090416.0
21:53:47.425,6089452.0
21:53:47.465,6090456.0
21:53:47.505,6090586.0
21:53:47.545,6090914.0
21:53:47.585,6091628.0
21:53:47.625,6092581.0
21:53:47.665,6091858.0
21:53:47.705,6090606.0
21:53:47.745,6090351.0
21:53:47.785,6090382.0
21:53:47.825,6090348.0
21:53:47.865,6090364.0
21:53:47.905,6090549.0
21:53:47.945,6090628.0
21:53:47.985,6090139.0
21:53:48.025,6089966.0
21:53:48.065,6089795.0
21:53:48.105,6091762.0
21:53:48.145,6090660.0
21:53:48.185,6090558.0
21:53:48.225,6090718.0
21:53:48.265,6091246.0
21:53:48.305,6092039.0
21:53:48.345,6092479.0
21:53:48.385,6091383.0
21:53:48.425,6090281.0
21:53:48.465,6090144.0
21:53:48.505,6090116.0
21:53:48.545,6090106.0
21:53:48.585,6090232.0
21:53:48.625,6090536.0
21:53:48.665,6090148.0
21:53:48.705,6089732.0
21:53:48.745,6089691.0
21:53:48.785,6091377.0
21:53:48.825,6090067.0
21:53:48.865,6090484.0
21:53:48.905,6090796.0
21:53:48.945,6091153.0
21:53:48.985,6091878.0
21:53:49.025,6092454.0
21:53:49.065,6091342.0
21:53:49.105,6090270.0
21:53:49.145,6089959.0
21:53:49.185,6090047.0
21:53:49.225,6090016.0
21:53:49.265,6090022.0
21:53:49.305,6090173.0
21:53:49.345,6090433.0
21:53:49.385,6089882.0
21:53:49.425,6089567.0
21:53:49.699,6089758.0
21:53:49.739,6091384.0
21:53:49.779,6092271.0
21:53:49.819,6092719.0
21:53:49.859,6091194.0
21:53:49.899,6090211.0
21:53:49.939,6090208.0
21:53:49.979,6090300.0
21:53:50.019,6090129.0
21:53:50.059,6090496.0
21:53:50.099,6090439.0
21:53:50.139,6089752.0
21:53:50.179,6089413.0
21:53:50.219,6089426.0
21:53:50.259,6090276.0
21:53:50.299,6090582.0
21:53:50.339,6090029.0
21:53:50.379,6090453.0
21:53:50.419,6091140.0
21:53:50.459,6092094.0
21:53:50.499,6091911.0
21:53:50.539,6090271.0
21:53:50.579,6089686.0
21:53:50.619,6089569.0
21:53:50.659,6089822.0
21:53:50.699,6089913.0
21:53:50.739,6090191.0
21:53:50.779,6089731.0
21:53:50.819,6089434.0
21:53:50.859,6089440.0
21:53:50.899,6091279.0
21:53:50.939,6089738.0
21:53:50.979,6090076.0
21:53:51.019,6090381.0
21:53:51.059,6090979.0
21:53:51.099,6091824.0
21:53:51.139,6092342.0
21:53:51.179,6091239.0
21:53:51.219,6090219.0
21:53:51.259,6090022.0
21:53:51.299,6090099.0
21:53:51.339,6090343.0
21:53:51.379,6090460.0
21:53:51.419,6090083.0
21:53:51.459,6089866.0
21:53:51.499,6089684.0
21:53:51.539,6091152.0
21:53:51.579,6089902.0
21:53:51.619,6090334.0
21:53:51.659,6090461.0
21:53:51.699,6091027.0
21:53:51.739,6091866.0
21:53:51.779,6092158.0
21:53:51.819,6091135.0
21:53:51.859,6090003.0
21:53:51.899,6090083.0
21:53:51.939,6090022.0
21:53:51.979,6090168.0
21:53:52.019,6090442.0
21:53:52.059,6090464.0
21:53:52.099,6089812.0
21:53:52.139,6089744.0
21:53:52.179,6089980.0
21:53:52.219,6089083.0
21:53:52.259,6090248.0
21:53:52.299,6090483.0
21:53:52.339,6090837.0
21:53:52.379,6091634.0
21:53:52.419,6092537.0
21:53:52.459,6091722.0
21:53:52.499,6090134.0
21:53:52.539,6089974.0
21:53:52.579,6089947.0
21:53:52.619,6090013.0
21:53:52.659,6090290.0
21:53:52.699,6090397.0
21:53:52.739,6089845.0
21:53:52.779,6089535.0
21:53:52.819,6089518.0
21:53:52.859,6091845.0
21:53:52.899,6090121.0
21:53:52.939,6090209.0
21:53:52.979,6090396.0
21:53:53.019,6090783.0
21:53:53.059,6091958.0
21:53:53.099,6092589.0
21:53:53.139,6091143.0
21:53:53.179,6089922.0
21:53:53.219,6089720.0
21:53:53.259,6089820.0
21:53:53.299,6089943.0
21:53:53.339,6089937.0
21:53:53.379,6090072.0
21:53:53.419,6089576.0
21:53:53.459,6089384.0
21:53:53.499,6089257.0
21:53:53.539,6091258.0
21:53:53.579,6089562.0
21:53:53.619,6090252.0
21:53:53.659,6090508.0
21:53:54.006,6091007.0
21:53:54.046,6090035.0
21:53:54.086,6090015.0
21:53:54.126,6090192.0
21:53:54.166,6090272.0
21:53:54.206,6090531.0
21:53:54.246,6090636.0
21:53:54.286,6090104.0
21:53:54.326,6090055.0
21:53:54.366,6090198.0
21:53:54.406,6089150.0
21:53:54.446,6090717.0
21:53:54.486,6090826.0
21:53:54.526,6091295.0
21:53:54.566,6092063.0
21:53:54.606,6092890.0
21:53:54.646,6092493.0
21:53:54.686,6091051.0
21:53:54.726,6090904.0
21:53:54.766,6090896.0
21:53:54.806,6090881.0
21:53:54.846,6090796.0
21:53:54.886,6090811.0
21:53:54.926,6090948.0
21:53:54.966,6091005.0
21:53:55.006,6090310.0
21:53:55.046,6090131.0
21:53:55.086,6090846.0
21:53:55.126,6089622.0
21:53:55.166,6090696.0
21:53:55.206,6090987.0
21:53:55.246,6091647.0
21:53:55.286,6092306.0
21:53:55.326,6093029.0
21:53:55.366,6092257.0
21:53:55.406,6090804.0
21:53:55.446,6090679.0
21:53:55.486,6090711.0
21:53:55.526,6090748.0
21:53:55.566,6090764.0
21:53:55.606,6090901.0
21:53:55.646,6091203.0
21:53:55.686,6090480.0
21:53:55.726,6090338.0
21:53:55.766,6090305.0
21:53:55.806,6092581.0
21:53:55.846,6091114.0
21:53:55.886,6090903.0
21:53:55.926,6091345.0
21:53:55.966,6091820.0
21:53:56.006,6092708.0
21:53:56.046,6093028.0
21:53:56.086,6091495.0
21:53:56.126,6090243.0
21:53:56.166,6090157.0
21:53:56.206,6090009.0
21:53:56.246,6089957.0
21:53:56.286,6089824.0
21:53:56.326,6090052.0
21:53:56.366,6090234.0
21:53:56.406,6089523.0
21:53:56.446,6089408.0
21:53:56.486,6089408.0
21:53:56.526,6091364.0
21:53:56.566,6090829.0
21:53:56.606,6090311.0
21:53:56.646,6090465.0
21:53:56.686,6091174.0
21:53:56.726,6092078.0
21:53:56.766,6092310.0
21:53:56.806,6090573.0
21:53:56.846,6090102.0
21:53:56.886,6089990.0
21:53:56.926,6090506.0
21:53:56.966,6090150.0
21:53:57.006,6090577.0
21:53:57.046,6090711.0
21:53:57.086,6090489.0
21:53:57.126,6089658.0
21:53:57.166,6089637.0
21:53:57.206,6091615.0
21:53:57.246,6090829.0
21:53:57.286,6090012.0
21:53:57.326,6090318.0
21:53:57.366,6090672.0
21:53:57.406,6091522.0
21:53:57.446,6091706.0
21:53:57.486,6090207.0
21:53:57.526,6089515.0
21:53:57.566,6089387.0
21:53:57.606,6089486.0
21:53:57.646,6089691.0
21:53:57.686,6089596.0
21:53:57.726,6089928.0
21:53:57.766,6090108.0
21:53:57.806,6089284.0
21:53:57.846,6088986.0
21:53:57.886,6089310.0
21:53:57.926,6088741.0
21:53:57.966,6089544.0
21:53:58.310,6089885.0
21:53:58.350,6089726.0
21:53:58.390,6089865.0
21:53:58.430,6090074.0
21:53:58.470,6090135.0
21:53:58.510,6090454.0
21:53:58.550,6090494.0
21:53:58.590,6090170.0
21:53:58.630,6090013.0
21:53:58.670,6091081.0
21:53:58.710,6090006.0
21:53:58.750,6090998.0
21:53:58.790,6091368.0
21:53:58.830,6091783.0
21:53:58.870,6092409.0
21:53:58.910,6093138.0
21:53:58.950,6092117.0
21:53:58.990,6091140.0
21:53:59.030,6090826.0
21:53:59.070,6091022.0
21:53:59.110,6091113.0
21:53:59.150,6091116.0
21:53:59.190,6091263.0
21:53:59.230,6091507.0
21:53:59.270,6091474.0
21:53:59.310,6090833.0
21:53:59.350,6090684.0
21:53:59.390,6091750.0
21:53:59.430,6090431.0
21:53:59.470,6091180.0
21:53:59.510,6091521.0
21:53:59.550,6091985.0
21:53:59.590,6092704.0
21:53:59.630,6093322.0
21:53:59.670,6092467.0
21:53:59.710,6090930.0
21:53:59.750,6090858.0
21:53:59.790,6090819.0
21:53:59.830,6090808.0
21:53:59.870,6090744.0
21:53:59.910,6090900.0
21:53:59.950,6091155.0
21:53:59.990,6090369.0
21:54:00.030,6090157.0
21:54:00.070,6089864.0
21:54:00.110,6092498.0
21:54:00.150,6090824.0
21:54:00.190,6090647.0
21:54:00.230,6090937.0
21:54:00.270,6091589.0
21:54:00.310,6092739.0
21:54:00.350,6093148.0
21:54:00.390,6091587.0
21:54:00.430,6090500.0
21:54:00.470,6090433.0
21:54:00.510,6090477.0
21:54:00.550,6090486.0
21:54:00.590,6090502.0
21:54:00.630,6090809.0
21:54:00.670,6090757.0
21:54:00.710,6090173.0
21:54:00.750,6089895.0
21:54:00.790,6090382.0
21:54:00.830,6088828.0
21:54:00.870,6090675.0
21:54:00.910,6090789.0
21:54:00.950,6091267.0
21:54:00.990,6092095.0
21:54:01.030,6092838.0
21:54:01.070,6092160.0
21:54:01.110,6090478.0
21:54:01.150,6090115.0
21:54:01.190,6090139.0
21:54:01.230,6090303.0
21:54:01.270,6090174.0
21:54:01.310,6090324.0
21:54:01.350,6090424.0
21:54:01.390,6089904.0
21:54:01.430,6089791.0
21:54:01.470,6089646.0
21:54:01.510,6091869.0
21:54:01.550,6091011.0
21:54:01.590,6090453.0
21:54:01.630,6090714.0
21:54:01.670,6091324.0
21:54:01.710,6092242.0
21:54:01.750,6092506.0
21:54:01.790,6091013.0
21:54:01.830,6090124.0
21:54:01.870,6090103.0
21:54:01.910,6090219.0
21:54:01.950,6090158.0
21:54:01.990,6090436.0
21:54:02.030,6090542.0
21:54:02.070,6089915.0
21:54:02.110,6089836.0
21:54:02.150,6089822.0
21:54:02.190,6091123.0
21:54:02.230,6090997.0
21:54:02.270,6090576.0
21:54:02.808,6090900.0
21:54:02.848,6090187.0
21:54:02.888,6090147.0
21:54:02.928,6090200.0
21:54:02.968,6090530.0
21:54:03.008,6090658.0
21:54:03.048,6090043.0
21:54:03.088,6089806.0
21:54:03.128,6089755.0
21:54:03.168,6091598.0
21:54:03.208,6091214.0
21:54:03.248,6090641.0
21:54:03.288,6090908.0
21:54:03.328,6091548.0
21:54:03.368,6092419.0
21:54:03.408,6092555.0
21:54:03.448,6090993.0
21:54:03.488,6090249.0
21:54:03.528,6090120.0
21:54:03.568,6090259.0
21:54:03.608,6090333.0
21:54:03.648,6090287.0
21:54:03.688,6090360.0
21:54:03.728,6090644.0
21:54:03.768,6090151.0
21:54:03.808,6089947.0
21:54:03.848,6089921.0
21:54:03.888,6091902.0
21:54:03.928,6090069.0
21:54:03.968,6090617.0
21:54:04.008,6090813.0
21:54:04.048,6091392.0
21:54:04.088,6092214.0
21:54:04.128,6092899.0
21:54:04.168,6091675.0
21:54:04.208,6090468.0
21:54:04.248,6090316.0
21:54:04.288,6090428.0
21:54:04.328,6090519.0
21:54:04.368,6090430.0
21:54:04.408,6090703.0
21:54:04.448,6090762.0
21:54:04.488,6090288.0
21:54:04.528,6090170.0
21:54:04.568,6089940.0
21:54:04.608,6092611.0
21:54:04.648,6091052.0
21:54:04.688,6090772.0
21:54:04.728,6090997.0
21:54:04.768,6091582.0
21:54:04.808,6092471.0
21:54:04.848,6092828.0
21:54:04.888,6091355.0
21:54:04.928,6090352.0
21:54:04.968,6090321.0
21:54:05.008,6090360.0
21:54:05.048,6090506.0
21:54:05.088,6090822.0
21:54:05.128,6090765.0
21:54:05.168,6090297.0
21:54:05.208,6090007.0
21:54:05.248,6090473.0
21:54:05.288,6088788.0
21:54:05.328,6090753.0
21:54:05.368,6091095.0
21:54:05.408,6091431.0
21:54:05.448,6092291.0
21:54:05.488,6093193.0
21:54:05.528,6092267.0
21:54:05.568,6090767.0
21:54:05.608,6090471.0
21:54:05.648,6090443.0
21:54:05.688,6090543.0
21:54:05.728,6090452.0
21:54:05.768,6090851.0
21:54:05.808,6090720.0
21:54:05.848,6090165.0
21:54:05.888,6090054.0
21:54:05.928,6090243.0
21:54:05.968,6088761.0
21:54:06.008,6090905.0
21:54:06.048,6090982.0
21:54:06.088,6091349.0
21:54:06.128,6092071.0
21:54:06.168,6092982.0
21:54:06.208,6092359.0
21:54:06.248,6090851.0
21:54:06.288,6090763.0
21:54:06.328,6090731.0
21:54:06.368,6090961.0
21:54:06.408,6091001.0
21:54:06.448,6091238.0
21:54:06.488,6091295.0
21:54:06.528,6090676.0
21:54:06.568,6090493.0
21:54:06.608,6090410.0
21:54:06.648,6092186.0
21:54:06.688,6090721.0
21:54:06.728,6091199.0
21:54:06.768,6091438.0
21:54:06.901,6091884.0
21:54:06.941,6090823.0
21:54:06.981,6090915.0
21:54:07.021,6090801.0
21:54:07.061,6090819.0
21:54:07.101,6090691.0
21:54:07.141,6091134.0
21:54:07.181,6091012.0
21:54:07.221,6090658.0
21:54:07.261,6090348.0
21:54:07.301,6090561.0
21:54:07.341,6088792.0
21:54:07.381,6091305.0
21:54:07.421,6091319.0
21:54:07.461,6091697.0
21:54:07.501,6092326.0
21:54:07.541,6093168.0
21:54:07.581,6092971.0
21:54:07.621,6091186.0
21:54:07.661,6090810.0
21:54:07.701,6090679.0
21:54:07.741,6090765.0
21:54:07.781,6090859.0
21:54:07.821,6090688.0
21:54:07.861,6090515.0
21:54:07.901,6090705.0
21:54:07.941,6090980.0
21:54:07.981,6090526.0
21:54:08.021,6090176.0
21:54:08.061,6090289.0
21:54:08.101,6091531.0
21:54:08.141,6090157.0
21:54:08.181,6090955.0
21:54:08.221,6091105.0
21:54:08.261,6091519.0
21:54:08.301,6092398.0
21:54:08.341,6093041.0
21:54:08.381,6092278.0
21:54:08.421,6090891.0
21:54:08.461,6090594.0
21:54:08.501,6090714.0
21:54:08.541,6090710.0
21:54:08.581,6090745.0
21:54:08.621,6090669.0
21:54:08.661,6091007.0
21:54:08.701,6091059.0
21:54:08.741,6090541.0
21:54:08.781,6090317.0
21:54:08.821,6090418.0
21:54:08.861,6089681.0
21:54:08.901,6091401.0
21:54:08.941,6091164.0
21:54:08.981,6091461.0
21:54:09.021,6092329.0
21:54:09.061,6093091.0
21:54:09.101,6092816.0
21:54:09.141,6091237.0
21:54:09.181,6090831.0
21:54:09.221,6090786.0
21:54:09.261,6090809.0
21:54:09.301,6090835.0
21:54:09.341,6090763.0
21:54:09.381,6090735.0
21:54:09.421,6090726.0
21:54:09.461,6091112.0
21:54:09.501,6091003.0
21:54:09.541,6090565.0
21:54:09.581,6090357.0
21:54:09.621,6090671.0
21:54:09.661,6089381.0
21:54:09.701,6091227.0
21:54:09.741,6091416.0
21:54:09.781,6091806.0
21:54:09.821,6092612.0
21:54:09.861,6093539.0
21:54:09.901,6093155.0
21:54:09.941,6091664.0
21:54:09.981,6091368.0
21:54:10.021,6091275.0
21:54:10.061,6091384.0
21:54:10.101,6091382.0
21:54:10.141,6091200.0
21:54:10.181,6091012.0
21:54:10.221,6090993.0
21:54:10.261,6091343.0
21:54:10.301,6091482.0
21:54:10.341,6090862.0
21:54:10.381,6090658.0
21:54:10.421,6090504.0
21:54:10.461,6091637.0
21:54:10.501,6091518.0
21:54:10.541,6091013.0
21:54:10.581,6091291.0
21:54:10.621,6091687.0
21:54:10.661,6092551.0
21:54:10.701,6092690.0
21:54:10.741,6091221.0
21:54:10.781,6090449.0
21:54:10.821,6090468.0
21:54:10.861,6090474.0
21:54:11.162,6090495.0
21:54:11.202,6090041.0
21:54:11.242,6089935.0
21:54:11.282,6092584.0
21:54:11.322,6090840.0
21:54:11.362,6090704.0
21:54:11.402,6091067.0
21:54:11.442,6091538.0
21:54:11.482,6092415.0
21:54:11.522,6092933.0
21:54:11.562,6091438.0
21:54:11.602,6090217.0
21:54:11.642,6090082.0
21:54:11.682,6090097.0
21:54:11.722,6089926.0
21:54:11.762,6090024.0
21:54:11.802,6090026.0
21:54:11.842,6090462.0
21:54:11.882,6090232.0
21:54:11.922,6089770.0
21:54:11.962,6089621.0
21:54:12.002,6091359.0
21:54:12.042,6089430.0
21:54:12.082,6090458.0
21:54:12.122,6090388.0
21:54:12.162,6091108.0
21:54:12.202,6091815.0
21:54:12.242,6092571.0
21:54:12.282,6091524.0
21:54:12.322,6090228.0
21:54:12.362,6089897.0
21:54:12.402,6089893.0
21:54:12.442,6090155.0
21:54:12.482,6090051.0
21:54:12.522,6090417.0
21:54:12.562,6090551.0
21:54:12.602,6090006.0
21:54:12.642,6089807.0
21:54:12.682,6089835.0
21:54:12.722,6089301.0
21:54:12.762,6091019.0
21:54:12.802,6090723.0
21:54:12.842,6091058.0
21:54:12.882,6091694.0
21:54:12.922,6092676.0
21:54:12.962,6092484.0
21:54:13.002,6090853.0
21:54:13.042,6090304.0
21:54:13.082,6090334.0
21:54:13.122,6090328.0
21:54:13.162,6090342.0
21:54:13.202,6090687.0
21:54:13.242,6090959.0
21:54:13.282,6090214.0
21:54:13.322,6090047.0
21:54:13.362,6090091.0
21:54:13.402,6090291.0
21:54:13.442,6091189.0
21:54:13.482,6090893.0
21:54:13.522,6091212.0
21:54:13.562,6091890.0
21:54:13.602,6092806.0
21:54:13.642,6092699.0
21:54:13.682,6091037.0
21:54:13.722,6090410.0
21:54:13.762,6090440.0
21:54:13.802,6090512.0
21:54:13.842,6090592.0
21:54:13.882,6090731.0
21:54:13.922,6091061.0
21:54:13.962,6090636.0
21:54:14.002,6090198.0
21:54:14.042,6090195.0
21:54:14.082,6091556.0
21:54:14.122,6089852.0
21:54:14.162,6090859.0
21:54:14.202,6091066.0
21:54:14.242,6091519.0
21:54:14.282,6092543.0
21:54:14.322,6093125.0
21:54:14.362,6092178.0
21:54:14.402,6090807.0
21:54:14.442,6090526.0
21:54:14.482,6090573.0
21:54:14.522,6090665.0
21:54:14.562,6090635.0
21:54:14.602,6090443.0
21:54:14.642,6090672.0
21:54:14.682,6090914.0
21:54:14.722,6090354.0
21:54:14.762,6090290.0
21:54:14.802,6090092.0
21:54:14.842,6092246.0
21:54:14.882,6090412.0
21:54:14.922,6090866.0
21:54:14.962,6091026.0
21:54:15.002,6091538.0
21:54:15.042,6092335.0
21:54:15.082,6092881.0
21:54:15.122,6091908.0
21:54:15.463,6090585.0
21:54:15.503,6090978.0
21:54:15.543,6090410.0
21:54:15.583,6090199.0
21:54:15.623,6090153.0
21:54:15.663,6091670.0
21:54:15.703,6091387.0
21:54:15.743,6090991.0
21:54:15.783,6091162.0
21:54:15.823,6091765.0
21:54:15.863,6092732.0
21:54:15.903,6092843.0
21:54:15.943,6091289.0
21:54:15.983,6090633.0
21:54:16.023,6090505.0
21:54:16.063,6090608.0
21:54:16.103,6090719.0
21:54:16.143,6090704.0
21:54:16.183,6090899.0
21:54:16.223,6091028.0
21:54:16.263,6090562.0
21:54:16.303,6090347.0
21:54:16.343,6090274.0
21:54:16.383,6092826.0
21:54:16.423,6091293.0
21:54:16.463,6090927.0
21:54:16.503,6091186.0
21:54:16.543,6091800.0
21:54:16.583,6092655.0
21:54:16.623,6093004.0
21:54:16.663,6091702.0
21:54:16.703,6090749.0
21:54:16.743,6090635.0
21:54:16.783,6090692.0
21:54:16.823,6090760.0
21:54:16.863,6090711.0
21:54:16.903,6090687.0
21:54:16.943,6090980.0
21:54:16.983,6091005.0
21:54:17.023,6090504.0
21:54:17.063,6090420.0
21:54:17.103,6090324.0
21:54:17.143,6092523.0
21:54:17.183,6090941.0
21:54:17.223,6091009.0
21:54:17.263,6091301.0
21:54:17.303,6091339.0
21:54:17.343,6092600.0
21:54:17.383,6093175.0
21:54:17.423,6092070.0
21:54:17.463,6090839.0
21:54:17.503,6090719.0
21:54:17.543,6090645.0
21:54:17.583,6090729.0
21:54:17.623,6090824.0
21:54:17.663,6090759.0
21:54:17.703,6090664.0
21:54:17.743,6091007.0
21:54:17.783,6091102.0
21:54:17.823,6090457.0
21:54:17.863,6090264.0
21:54:17.903,6090173.0
21:54:17.943,6090766.0
21:54:17.983,6091599.0
21:54:18.023,6091062.0
21:54:18.063,6091360.0
21:54:18.103,6091965.0
21:54:18.143,6093052.0
21:54:18.183,6093047.0
21:54:18.223,6091418.0
21:54:18.263,6090716.0
21:54:18.303,6090565.0
21:54:18.343,6090533.0
21:54:18.383,6090598.0
21:54:18.423,6090602.0
21:54:18.463,6090635.0
21:54:18.503,6091017.0
21:54:18.543,6090740.0
21:54:18.583,6090323.0
21:54:18.623,6090214.0
21:54:18.663,6091334.0
21:54:18.703,6090053.0
21:54:18.743,6090834.0
21:54:18.783,6091096.0
21:54:18.823,6091466.0
21:54:18.863,6092236.0
21:54:18.903,6093074.0
21:54:18.943,6092318.0
21:54:18.983,6090893.0
21:54:19.023,6090558.0
21:54:19.063,6090558.0
21:54:19.103,6090712.0
21:54:19.143,6090756.0
21:54:19.183,6090859.0
21:54:19.223,6091112.0
21:54:19.263,6090718.0
21:54:19.303,6090394.0
21:54:19.343,6090244.0
21:54:19.383,6091799.0
21:54:19.423,6090487.0
21:54:19.698,6090884.0
21:54:19.738,6091092.0
21:54:19.778,6090642.0
21:54:19.818,6090596.0
21:54:19.858,6090572.0
21:54:19.898,6090699.0
21:54:19.938,6090622.0
21:54:19.978,6090876.0
21:54:20.018,6090943.0
21:54:20.058,6090426.0
21:54:20.098,6090230.0
21:54:20.138,6090157.0
21:54:20.178,6092926.0
21:54:20.218,6091240.0
21:54:20.258,6090871.0
21:54:20.298,6091262.0
21:54:20.338,6091734.0
21:54:20.378,6092679.0
21:54:20.418,6093038.0
21:54:20.458,6091683.0
21:54:20.498,6090608.0
21:54:20.538,6090527.0
21:54:20.578,6090606.0
21:54:20.618,6090568.0
21:54:20.658,6090600.0
21:54:20.698,6090541.0
21:54:20.738,6090809.0
21:54:20.778,6090873.0
21:54:20.818,6090373.0
21:54:20.858,6090205.0
21:54:20.898,6090164.0
21:54:20.938,6092625.0
21:54:20.978,6090749.0
21:54:21.018,6090859.0
21:54:21.058,6091169.0
21:54:21.098,6091666.0
21:54:21.138,6092635.0
21:54:21.178,6093179.0
21:54:21.218,6092047.0
21:54:21.258,6090647.0
21:54:21.298,6090480.0
21:54:21.338,6090543.0
21:54:21.378,6090577.0
21:54:21.418,6090588.0
21:54:21.458,6090541.0
21:54:21.498,6090777.0
21:54:21.538,6090929.0
21:54:21.578,6090388.0
21:54:21.618,6090118.0
21:54:21.658,6090203.0
21:54:21.698,6090456.0
21:54:21.738,6091406.0
21:54:21.778,6090938.0
21:54:21.818,6091180.0
21:54:21.858,6091898.0
21:54:21.898,6092767.0
21:54:21.938,6092799.0
21:54:21.978,6091092.0
21:54:22.018,6090523.0
21:54:22.058,6090487.0
21:54:22.098,6090571.0
21:54:22.138,6090617.0
21:54:22.178,6090652.0
21:54:22.218,6091095.0
21:54:22.258,6090823.0
21:54:22.298,6090399.0
21:54:22.338,6090346.0
21:54:22.378,6091121.0
21:54:22.418,6089822.0
21:54:22.458,6091093.0
21:54:22.498,6091229.0
21:54:22.538,6091659.0
21:54:22.578,6092392.0
21:54:22.618,6093269.0
21:54:22.658,6092460.0
21:54:22.698,6090994.0
21:54:22.738,6090745.0
21:54:22.778,6090733.0
21:54:22.818,6090773.0
21:54:22.858,6090830.0
21:54:22.898,6090827.0
21:54:22.938,6091001.0
21:54:22.978,6091197.0
21:54:23.018,6090645.0
21:54:23.058,6090423.0
21:54:23.098,6090496.0
21:54:23.138,6091524.0
21:54:23.178,6091677.0
21:54:23.218,6091278.0
21:54:23.258,6091613.0
21:54:23.298,6092147.0
21:54:23.338,6093343.0
21:54:23.378,6093382.0
21:54:23.418,6092279.0
21:54:23.458,6091689.0
21:54:23.498,6091921.0
21:54:23.538,6091967.0
21:54:23.578,6091940.0
21:54:23.618,6091814.0
21:54:23.658,6091631.0
21:54:23.997,6091968.0
21:54:24.037,6093659.0
21:54:24.077,6092414.0
21:54:24.117,6091885.0
21:54:24.157,6091903.0
21:54:24.197,6092279.0
21:54:24.237,6092953.0
21:54:24.277,6093142.0
21:54:24.317,6091720.0
21:54:24.357,6090694.0
21:54:24.397,6090650.0
21:54:24.437,6090579.0
21:54:24.477,6090682.0
21:54:24.517,6090434.0
21:54:24.557,6090750.0
21:54:24.597,6090810.0
21:54:24.637,6089918.0
21:54:24.677,6089633.0
21:54:24.717,6089479.0
21:54:24.757,6091639.0
21:54:24.797,6090259.0
21:54:24.837,6089937.0
21:54:24.877,6089979.0
21:54:24.917,6090473.0
21:54:24.957,6091405.0
21:54:24.997,6091593.0
21:54:25.037,6089724.0
21:54:25.077,6088507.0
21:54:25.117,6088433.0
21:54:25.157,6088347.0
21:54:25.197,6088431.0
21:54:25.237,6088385.0
21:54:25.277,6088966.0
21:54:25.317,6088359.0
21:54:25.357,6087816.0
21:54:25.397,6087510.0
21:54:25.437,6089220.0
21:54:25.477,6087613.0
21:54:25.517,6088396.0
21:54:25.557,6088608.0
21:54:25.597,6089141.0
21:54:25.637,6089801.0
21:54:25.677,6090515.0
21:54:25.717,6089567.0
21:54:25.757,6088269.0
21:54:25.797,6088047.0
21:54:25.837,6088127.0
21:54:25.877,6088341.0
21:54:25.917,6088548.0
21:54:25.957,6088837.0
21:54:25.997,6088272.0
21:54:26.037,6088190.0
21:54:26.077,6088125.0
21:54:26.117,6090207.0
21:54:26.157,6088840.0
21:54:26.197,6088849.0
21:54:26.237,6089230.0
21:54:26.277,6089714.0
21:54:26.317,6090653.0
21:54:26.357,6091101.0
21:54:26.397,6089825.0
21:54:26.437,6089121.0
21:54:26.477,6089095.0
21:54:26.517,6089223.0
21:54:26.557,6089448.0
21:54:26.597,6089694.0
21:54:26.637,6089666.0
21:54:26.677,6089117.0
21:54:26.717,6088915.0
21:54:26.757,6088790.0
21:54:26.797,6091407.0
21:54:26.837,6089709.0
21:54:26.877,6089802.0
21:54:26.917,6089976.0
21:54:26.957,6090648.0
21:54:26.997,6091778.0
21:54:27.037,6092310.0
21:54:27.077,6089972.0
21:54:27.117,6088815.0
21:54:27.157,6088765.0
21:54:27.197,6089197.0
21:54:27.237,6088820.0
21:54:27.277,6089686.0
21:54:27.317,6089507.0
21:54:27.357,6088448.0
21:54:27.397,6087216.0
21:54:27.437,6087113.0
21:54:27.477,6089417.0
21:54:27.517,6087898.0
21:54:27.557,6085777.0
21:54:27.597,6086192.0
21:54:27.637,6086457.0
21:54:27.677,6087467.0
21:54:27.717,6087248.0
21:54:27.757,6085201.0
21:54:27.797,6083800.0
21:54:27.837,6083816.0
21:54:27.877,6083435.0
21:54:27.917,6083684.0
21:54:27.957,6083837.0
21:54:28.309,6084430.0
21:54:28.349,6084780.0
21:54:28.389,6085305.0
21:54:28.429,6086042.0
21:54:28.469,6087058.0
21:54:28.509,6087075.0
21:54:28.549,6085086.0
21:54:28.589,6084381.0
21:54:28.629,6084659.0
21:54:28.669,6085089.0
21:54:28.709,6085009.0
21:54:28.749,6085363.0
21:54:28.789,6085033.0
21:54:28.829,6084538.0
21:54:28.869,6084500.0
21:54:28.909,6086127.0
21:54:28.949,6084043.0
21:54:28.989,6085423.0
21:54:29.029,6085715.0
21:54:29.069,6086155.0
21:54:29.109,6087436.0
21:54:29.149,6088223.0
21:54:29.189,6087049.0
21:54:29.229,6085416.0
21:54:29.269,6085480.0
21:54:29.309,6085745.0
21:54:29.349,6085668.0
21:54:29.389,6086189.0
21:54:29.429,6086527.0
21:54:29.469,6086171.0
21:54:29.509,6086112.0
21:54:29.549,6085985.0
21:54:29.589,6086385.0
21:54:29.629,6086899.0
21:54:29.669,6086372.0
21:54:29.709,6086715.0
21:54:29.749,6087374.0
21:54:29.789,6088324.0
21:54:29.829,6088487.0
21:54:29.869,6086725.0
21:54:29.909,6085982.0
21:54:29.949,6085928.0
21:54:29.989,6086264.0
21:54:30.029,6086229.0
21:54:30.069,6086804.0
21:54:30.109,6086691.0
21:54:30.149,6085741.0
21:54:30.189,6086401.0
21:54:30.229,6085156.0
21:54:30.269,6084510.0
21:54:30.309,6087241.0
21:54:30.349,6086083.0
21:54:30.389,6086162.0
21:54:30.429,6088377.0
21:54:30.469,6087757.0
21:54:30.509,6085160.0
21:54:30.549,6084099.0
21:54:30.589,6083717.0
21:54:30.629,6083067.0
21:54:30.669,6083155.0
21:54:30.709,6082845.0
21:54:30.749,6083007.0
21:54:30.789,6083125.0
21:54:30.829,6082559.0
21:54:30.869,6082283.0
21:54:30.909,6082393.0
21:54:30.949,6081883.0
21:54:30.989,6082998.0
21:54:31.029,6083300.0
21:54:31.069,6083942.0
21:54:31.109,6084779.0
21:54:31.149,6085514.0
21:54:31.189,6084812.0
21:54:31.229,6083457.0
21:54:31.269,6083211.0
21:54:31.309,6083404.0
21:54:31.349,6083461.0
21:54:31.389,6083623.0
21:54:31.429,6083839.0
21:54:31.469,6083852.0
21:54:31.509,6083459.0
21:54:31.549,6083506.0
21:54:31.589,6084802.0
21:54:31.629,6083420.0
21:54:31.669,6084153.0
21:54:31.709,6084433.0
21:54:31.749,6084982.0
21:54:31.789,6085814.0
21:54:31.829,6086470.0
21:54:31.869,6085551.0
21:54:31.909,6084232.0
21:54:31.949,6084004.0
21:54:31.989,6084311.0
21:54:32.029,6084434.0
21:54:32.069,6084368.0
21:54:32.109,6084710.0
21:54:32.149,6084850.0
21:54:32.189,6084259.0
21:54:32.229,6084134.0
21:54:32.269,6084101.0
21:54:32.531,6086729.0
21:54:32.571,6087349.0
21:54:32.611,6086012.0
21:54:32.651,6084845.0
21:54:32.691,6084806.0
21:54:32.731,6085051.0
21:54:32.771,6085227.0
21:54:32.811,6084989.0
21:54:32.851,6084901.0
21:54:32.891,6084799.0
21:54:32.931,6084794.0
21:54:32.971,6085270.0
21:54:33.011,6085425.0
21:54:33.051,6085046.0
21:54:33.091,6084729.0
21:54:33.131,6084870.0
21:54:33.171,6084969.0
21:54:33.211,6086024.0
21:54:33.251,6085640.0
21:54:33.291,6086032.0
21:54:33.331,6086695.0
21:54:33.371,6087632.0
21:54:33.411,6087719.0
21:54:33.451,6086129.0
21:54:33.491,6085306.0
21:54:33.531,6085432.0
21:54:33.571,6085576.0
21:54:33.611,6085513.0
21:54:33.651,6085535.0
21:54:33.691,6085494.0
21:54:33.731,6085401.0
21:54:33.771,6085758.0
21:54:33.811,6085922.0
21:54:33.851,6085459.0
21:54:33.891,6085348.0
21:54:33.931,6085191.0
21:54:33.971,6087454.0
21:54:34.011,6085549.0
21:54:34.051,6085996.0
21:54:34.091,6086264.0
21:54:34.131,6086827.0
21:54:34.171,6087628.0
21:54:34.211,6088273.0
21:54:34.251,6087234.0
21:54:34.291,6085962.0
21:54:34.331,6085800.0
21:54:34.371,6085810.0
21:54:34.411,6085960.0
21:54:34.451,6085980.0
21:54:34.491,6085896.0
21:54:34.531,6085976.0
21:54:34.571,6085806.0
21:54:34.611,6085786.0
21:54:34.651,6086129.0
21:54:34.691,6086277.0
21:54:34.731,6085822.0
21:54:34.771,6085697.0
21:54:34.811,6085634.0
21:54:34.851,6087955.0
21:54:34.891,6086025.0
21:54:34.931,6086409.0
21:54:34.971,6086620.0
21:54:35.011,6087070.0
21:54:35.051,6088028.0
21:54:35.091,6088681.0
21:54:35.131,6087531.0
21:54:35.171,6086236.0
21:54:35.211,6085979.0
21:54:35.251,6086168.0
21:54:35.291,6086189.0
21:54:35.331,6086251.0
21:54:35.371,6086211.0
21:54:35.411,6086022.0
21:54:35.451,6085962.0
21:54:35.491,6085990.0
21:54:35.531,6086384.0
21:54:35.571,6086700.0
21:54:35.611,6086100.0
21:54:35.651,6085962.0
21:54:35.691,6085808.0
21:54:35.731,6087038.0
21:54:35.771,6085657.0
21:54:35.811,6086594.0
21:54:35.851,6086829.0
21:54:35.891,6087111.0
21:54:35.931,6088091.0
21:54:35.971,6088771.0
21:54:36.011,6088199.0
21:54:36.051,6086686.0
21:54:36.091,6086260.0
21:54:36.131,6086264.0
21:54:36.171,6086253.0
21:54:36.211,6086456.0
21:54:36.251,6086316.0
21:54:36.291,6086219.0
21:54:36.331,6086206.0
21:54:36.371,6086288.0
21:54:36.411,6086418.0
21:54:36.451,6086611.0
21:54:36.491,6086140.0
21:54:36.849,6085959.0
21:54:36.889,6086857.0
21:54:36.929,6087108.0
21:54:36.969,6087694.0
21:54:37.009,6088607.0
21:54:37.049,6088827.0
21:54:37.089,6087224.0
21:54:37.129,6086390.0
21:54:37.169,6086431.0
21:54:37.209,6086549.0
21:54:37.249,6086535.0
21:54:37.289,6086487.0
21:54:37.329,6086614.0
21:54:37.369,6086372.0
21:54:37.409,6086419.0
21:54:37.449,6086387.0
21:54:37.489,6086400.0
21:54:37.529,6086641.0
21:54:37.569,6086930.0
21:54:37.609,6086410.0
21:54:37.649,6086217.0
21:54:37.689,6086095.0
21:54:37.729,6088969.0
21:54:37.769,6087233.0
21:54:37.809,6086854.0
21:54:37.849,6087112.0
21:54:37.889,6087694.0
21:54:37.929,6088572.0
21:54:37.969,6089036.0
21:54:38.009,6088008.0
21:54:38.049,6086726.0
21:54:38.089,6086454.0
21:54:38.129,6086670.0
21:54:38.169,6086668.0
21:54:38.209,6086728.0
21:54:38.249,6086659.0
21:54:38.289,6086580.0
21:54:38.329,6086556.0
21:54:38.369,6086919.0
21:54:38.409,6086827.0
21:54:38.449,6086602.0
21:54:38.489,6086475.0
21:54:38.529,6086472.0
21:54:38.569,6088906.0
21:54:38.609,6087280.0
21:54:38.649,6087182.0
21:54:38.689,6087447.0
21:54:38.729,6087960.0
21:54:38.769,6088747.0
21:54:38.809,6089186.0
21:54:38.849,6088129.0
21:54:38.889,6087005.0
21:54:38.929,6086847.0
21:54:38.969,6086943.0
21:54:39.009,6086971.0
21:54:39.049,6086964.0
21:54:39.089,6087022.0
21:54:39.129,6087014.0
21:54:39.169,6087289.0
21:54:39.209,6087109.0
21:54:39.249,6086771.0
21:54:39.289,6086703.0
21:54:39.329,6087809.0
21:54:39.369,6086583.0
21:54:39.409,6087357.0
21:54:39.449,6087508.0
21:54:39.489,6087834.0
21:54:39.529,6088629.0
21:54:39.569,6089383.0
21:54:39.609,6088898.0
21:54:39.649,6087193.0
21:54:39.689,6087051.0
21:54:39.729,6087133.0
21:54:39.769,6087257.0
21:54:39.809,6087215.0
21:54:39.849,6087226.0
21:54:39.889,6087200.0
21:54:39.929,6087298.0
21:54:39.969,6087629.0
21:54:40.009,6087319.0
21:54:40.049,6086987.0
21:54:40.089,6086962.0
21:54:40.129,6088388.0
21:54:40.169,6086738.0
21:54:40.209,6087557.0
21:54:40.249,6087891.0
21:54:40.289,6088165.0
21:54:40.329,6088980.0
21:54:40.369,6089889.0
21:54:40.409,6089323.0
21:54:40.449,6087888.0
21:54:40.489,6087351.0
21:54:40.529,6087183.0
21:54:40.569,6087454.0
21:54:40.609,6087335.0
21:54:40.649,6087362.0
21:54:40.689,6087216.0
21:54:40.729,6087375.0
21:54:40.769,6087546.0
21:54:40.809,6087574.0
21:54:41.125,6086999.0
21:54:41.165,6088344.0
21:54:41.205,6089210.0
21:54:41.245,6089253.0
21:54:41.285,6088035.0
21:54:41.325,6087051.0
21:54:41.365,6086954.0
21:54:41.405,6087173.0
21:54:41.445,6087140.0
21:54:41.485,6087135.0
21:54:41.525,6087367.0
21:54:41.565,6087441.0
21:54:41.605,6087062.0
21:54:41.645,6086928.0
21:54:41.685,6086877.0
21:54:41.725,6089159.0
21:54:41.765,6087832.0
21:54:41.805,6087625.0
21:54:41.845,6087878.0
21:54:41.885,6088577.0
21:54:41.925,6089245.0
21:54:41.965,6089832.0
21:54:42.005,6088571.0
21:54:42.045,6087539.0
21:54:42.085,6087405.0
21:54:42.125,6087462.0
21:54:42.165,6087544.0
21:54:42.205,6087594.0
21:54:42.245,6087500.0
21:54:42.285,6087601.0
21:54:42.325,6087834.0
21:54:42.365,6087323.0
21:54:42.405,6087361.0
21:54:42.445,6087173.0
21:54:42.485,6089397.0
21:54:42.525,6087634.0
21:54:42.565,6088043.0
21:54:42.605,6088282.0
21:54:42.645,6088726.0
21:54:42.685,6089513.0
21:54:42.725,6090284.0
21:54:42.765,6089359.0
21:54:42.805,6088069.0
21:54:42.845,6087896.0
21:54:42.885,6087897.0
21:54:42.925,6087877.0
21:54:42.965,6088051.0
21:54:43.005,6087874.0
21:54:43.045,6087762.0
21:54:43.085,6088149.0
21:54:43.125,6088249.0
21:54:43.165,6087808.0
21:54:43.205,6087560.0
21:54:43.245,6087658.0
21:54:43.285,6086669.0
21:54:43.325,6088505.0
21:54:43.365,6088476.0
21:54:43.405,6088835.0
21:54:43.445,6089534.0
21:54:43.485,6090362.0
21:54:43.525,6090232.0
21:54:43.565,6088660.0
21:54:43.605,6088152.0
21:54:43.645,6088007.0
21:54:43.685,6088140.0
21:54:43.725,6088078.0
21:54:43.765,6088020.0
21:54:43.805,6087993.0
21:54:43.845,6088356.0
21:54:43.885,6088491.0
21:54:43.925,6087869.0
21:54:43.965,6087619.0
21:54:44.005,6087672.0
21:54:44.045,6087789.0
21:54:44.085,6088810.0
21:54:44.125,6088467.0
21:54:44.165,6088627.0
21:54:44.205,6089363.0
21:54:44.245,6090112.0
21:54:44.285,6090185.0
21:54:44.325,6088646.0
21:54:44.365,6088015.0
21:54:44.405,6087886.0
21:54:44.445,6088054.0
21:54:44.485,6088078.0
21:54:44.525,6088139.0
21:54:44.565,6088248.0
21:54:44.605,6088284.0
21:54:44.645,6087915.0
21:54:44.685,6087820.0
21:54:44.725,6087851.0
21:54:44.765,6089872.0
21:54:44.805,6088136.0
21:54:44.845,6088244.0
21:54:44.885,6088531.0
21:54:44.925,6088983.0
21:54:44.965,6089924.0
21:54:45.005,6090403.0
21:54:45.045,6089436.0
21:54:45.085,6088193.0
21:54:45.453,6087922.0
21:54:45.493,6088052.0
21:54:45.533,6088303.0
21:54:45.573,6088663.0
21:54:45.613,6088103.0
21:54:45.653,6087850.0
21:54:45.693,6087818.0
21:54:45.733,6090346.0
21:54:45.773,6089057.0
21:54:45.813,6088488.0
21:54:45.853,6088767.0
21:54:45.893,6089279.0
21:54:45.933,6090042.0
21:54:45.973,6090569.0
21:54:46.013,6089661.0
21:54:46.053,6088398.0
21:54:46.093,6087972.0
21:54:46.133,6088195.0
21:54:46.173,6088217.0
21:54:46.213,6088120.0
21:54:46.253,6087474.0
21:54:46.293,6088025.0
21:54:46.333,6088132.0
21:54:46.373,6087995.0
21:54:46.413,6087569.0
21:54:46.453,6087420.0
21:54:46.493,6088008.0
21:54:46.533,6086821.0
21:54:46.573,6087525.0
21:54:46.613,6087522.0
21:54:46.653,6087686.0
21:54:46.693,6088360.0
21:54:46.733,6088903.0
21:54:46.773,6088561.0
21:54:46.813,6087096.0
21:54:46.853,6086711.0
21:54:46.893,6086786.0
21:54:46.933,6086701.0
21:54:46.973,6086717.0
21:54:47.013,6086577.0
21:54:47.053,6086785.0
21:54:47.093,6086854.0
21:54:47.133,6086166.0
21:54:47.173,6085815.0
21:54:47.213,6085801.0
21:54:47.253,6085276.0
21:54:47.293,6086112.0
21:54:47.333,6086265.0
21:54:47.373,6086445.0
21:54:47.413,6087013.0
21:54:47.453,6087606.0
21:54:47.493,6087347.0
21:54:47.533,6085812.0
21:54:47.573,6085405.0
21:54:47.613,6085381.0
21:54:47.653,6085132.0
21:54:47.693,6085460.0
21:54:47.733,6085201.0
21:54:47.773,6084852.0
21:54:47.813,6085228.0
21:54:47.853,6085159.0
21:54:47.893,6084702.0
21:54:47.933,6084459.0
21:54:47.973,6084588.0
21:54:48.013,6083781.0
21:54:48.053,6084947.0
21:54:48.093,6085114.0
21:54:48.133,6085435.0
21:54:48.173,6086198.0
21:54:48.213,6086936.0
21:54:48.253,6086462.0
21:54:48.293,6084974.0
21:54:48.333,6084652.0
21:54:48.373,6084578.0
21:54:48.413,6084679.0
21:54:48.453,6084700.0
21:54:48.493,6084711.0
21:54:48.533,6084974.0
21:54:48.573,6084935.0
21:54:48.613,6084428.0
21:54:48.653,6084366.0
21:54:48.693,6084903.0
21:54:48.733,6083874.0
21:54:48.773,6084859.0
21:54:48.813,6085200.0
21:54:48.853,6085710.0
21:54:48.893,6086214.0
21:54:48.933,6087096.0
21:54:48.973,6086663.0
21:54:49.013,6085224.0
21:54:49.053,6084857.0
21:54:49.093,6084864.0
21:54:49.133,6084896.0
21:54:49.173,6084862.0
21:54:49.213,6084833.0
21:54:49.253,6084638.0
21:54:49.293,6084939.0
21:54:49.333,6084938.0
21:54:49.373,6084393.0
21:54:49.413,6084318.0
21:54:49.660,6084601.0
21:54:49.700,6087104.0
21:54:49.740,6086994.0
21:54:49.780,6085324.0
21:54:49.820,6084392.0
21:54:49.860,6084848.0
21:54:49.900,6084405.0
21:54:49.940,6084567.0
21:54:49.980,6084860.0
21:54:50.020,6084497.0
21:54:50.060,6084746.0
21:54:50.100,6083770.0
21:54:50.140,6083764.0
21:54:50.180,6083618.0
21:54:50.220,6082377.0
21:54:50.260,6081471.0
21:54:50.300,6083671.0
21:54:50.340,6083874.0
21:54:50.380,6084402.0
21:54:50.420,6082806.0
21:54:50.460,6084075.0
21:54:50.500,6083494.0
21:54:50.540,6081294.0
21:54:50.580,6080559.0
21:54:50.620,6080599.0
21:54:50.660,6080636.0
21:54:50.700,6080544.0
21:54:50.740,6080459.0
21:54:50.780,6080809.0
21:54:50.820,6081076.0
21:54:50.860,6080351.0
21:54:50.900,6080252.0
21:54:50.940,6080631.0
21:54:50.980,6079899.0
21:54:51.020,6081183.0
21:54:51.060,6081247.0
21:54:51.100,6081724.0
21:54:51.140,6082310.0
21:54:51.180,6083182.0
21:54:51.220,6082810.0
21:54:51.260,6081134.0
21:54:51.300,6080953.0
21:54:51.340,6080864.0
21:54:51.380,6081192.0
21:54:51.420,6081146.0
21:54:51.460,6081209.0
21:54:51.500,6081442.0
21:54:51.540,6080912.0
21:54:51.580,6080676.0
21:54:51.620,6080680.0
21:54:51.660,6083092.0
21:54:51.700,6081820.0
21:54:51.740,6081730.0
21:54:51.780,6082169.0
21:54:51.820,6082766.0
21:54:51.860,6083620.0
21:54:51.900,6083916.0
21:54:51.940,6082417.0
21:54:51.980,6081541.0
21:54:52.020,6081334.0
21:54:52.060,6081413.0
21:54:52.100,6081507.0
21:54:52.140,6081510.0
21:54:52.180,6081471.0
21:54:52.220,6081540.0
21:54:52.260,6082010.0
21:54:52.300,6081473.0
21:54:52.340,6081156.0
21:54:52.380,6081481.0
21:54:52.420,6079974.0
21:54:52.460,6082205.0
21:54:52.500,6082303.0
21:54:52.540,6082642.0
21:54:52.580,6084082.0
21:54:52.620,6084893.0
21:54:52.660,6084460.0
21:54:52.700,6082762.0
21:54:52.740,6081604.0
21:54:52.780,6082540.0
21:54:52.820,6082725.0
21:54:52.860,6082330.0
21:54:52.900,6082578.0
21:54:52.940,6082775.0
21:54:52.980,6082272.0
21:54:53.020,6081881.0
21:54:53.060,6081879.0
21:54:53.100,6082196.0
21:54:53.140,6080327.0
21:54:53.180,6082803.0
21:54:53.220,6083157.0
21:54:53.260,6083740.0
21:54:53.300,6084787.0
21:54:53.340,6085718.0
21:54:53.380,6085205.0
21:54:53.420,6083168.0
21:54:53.460,6082743.0
21:54:53.500,6082830.0
21:54:53.540,6082775.0
21:54:53.580,6082748.0
21:54:53.620,6083060.0
21:54:53.949,6083274.0
21:54:53.989,6083103.0
21:54:54.029,6083505.0
21:54:54.069,6083658.0
21:54:54.109,6084281.0
21:54:54.149,6085064.0
21:54:54.189,6085779.0
21:54:54.229,6084692.0
21:54:54.269,6083585.0
21:54:54.309,6083524.0
21:54:54.349,6083659.0
21:54:54.389,6083644.0
21:54:54.429,6083906.0
21:54:54.469,6083947.0
21:54:54.509,6083648.0
21:54:54.549,6083468.0
21:54:54.589,6083360.0
21:54:54.629,6085301.0
21:54:54.669,6084760.0
21:54:54.709,6084223.0
21:54:54.749,6084597.0
21:54:54.789,6085086.0
21:54:54.829,6086054.0
21:54:54.869,6086390.0
21:54:54.909,6085232.0
21:54:54.949,6084379.0
21:54:54.989,6084352.0
21:54:55.029,6084389.0
21:54:55.069,6084511.0
21:54:55.109,6084564.0
21:54:55.149,6084857.0
21:54:55.189,6084308.0
21:54:55.229,6084148.0
21:54:55.269,6084103.0
21:54:55.309,6086431.0
21:54:55.349,6085066.0
21:54:55.389,6084912.0
21:54:55.429,6085387.0
21:54:55.469,6085733.0
21:54:55.509,6086696.0
21:54:55.549,6087269.0
21:54:55.589,6085904.0
21:54:55.629,6084910.0
21:54:55.669,6084765.0
21:54:55.709,6084845.0
21:54:55.749,6084883.0
21:54:55.789,6084852.0
21:54:55.829,6085187.0
21:54:55.869,6085265.0
21:54:55.909,6084682.0
21:54:55.949,6084486.0
21:54:55.989,6084959.0
21:54:56.029,6083647.0
21:54:56.069,6085289.0
21:54:56.109,6085615.0
21:54:56.149,6086071.0
21:54:56.189,6086856.0
21:54:56.229,6087783.0
21:54:56.269,6087205.0
21:54:56.309,6085678.0
21:54:56.349,6085258.0
21:54:56.389,6085267.0
21:54:56.429,6085227.0
21:54:56.469,6085133.0
21:54:56.509,6085187.0
21:54:56.549,6085539.0
21:54:56.589,6084895.0
21:54:56.629,6084676.0
21:54:56.669,6084762.0
21:54:56.709,6086853.0
21:54:56.749,6085087.0
21:54:56.789,6085501.0
21:54:56.829,6086037.0
21:54:56.869,6086414.0
21:54:56.909,6087590.0
21:54:56.949,6088167.0
21:54:56.989,6086922.0
21:54:57.029,6085717.0
21:54:57.069,6085654.0
21:54:57.109,6085643.0
21:54:57.149,6085731.0
21:54:57.189,6085635.0
21:54:57.229,6086017.0
21:54:57.269,6086162.0
21:54:57.309,6085512.0
21:54:57.349,6085329.0
21:54:57.389,6085259.0
21:54:57.429,6085121.0
21:54:57.469,6086459.0
21:54:57.509,6086248.0
21:54:57.549,6086759.0
21:54:57.589,6087381.0
21:54:57.629,6088400.0
21:54:57.669,6088475.0
21:54:57.709,6086648.0
21:54:57.749,6085961.0
21:54:57.789,6085918.0
21:54:57.829,6086159.0
21:54:57.869,6086096.0
21:54:57.909,6086056.0
21:54:58.226,6086343.0
21:54:58.266,6084007.0
21:54:58.306,6086623.0
21:54:58.346,6086896.0
21:54:58.386,6087241.0
21:54:58.426,6088054.0
21:54:58.466,6088992.0
21:54:58.506,6088594.0
21:54:58.546,6086930.0
21:54:58.586,6086231.0
21:54:58.626,6086444.0
21:54:58.666,6086366.0
21:54:58.706,6086324.0
21:54:58.746,6085907.0
21:54:58.786,6086410.0
21:54:58.826,6086489.0
21:54:58.866,6085858.0
21:54:58.906,6085745.0
21:54:58.946,6085990.0
21:54:58.986,6084618.0
21:54:59.026,6086646.0
21:54:59.066,6086734.0
21:54:59.106,6087045.0
21:54:59.146,6087923.0
21:54:59.186,6088849.0
21:54:59.226,6088520.0
21:54:59.266,6086758.0
21:54:59.306,6086273.0
21:54:59.346,6086282.0
21:54:59.386,6086499.0
21:54:59.426,6086515.0
21:54:59.466,6086664.0
21:54:59.506,6086862.0
21:54:59.546,6086374.0
21:54:59.586,6086154.0
21:54:59.626,6086066.0
21:54:59.666,6088631.0
21:54:59.706,6087160.0
21:54:59.746,6086883.0
21:54:59.786,6087142.0
21:54:59.826,6087670.0
21:54:59.866,6088638.0
21:54:59.906,6089077.0
21:54:59.946,6087501.0
21:54:59.986,6086555.0
21:55:00.026,6086463.0
21:55:00.066,6086504.0
21:55:00.106,6086668.0
21:55:00.146,6086603.0
21:55:00.186,6086579.0
21:55:00.226,6087013.0
21:55:00.266,6086975.0
21:55:00.306,6086475.0
21:55:00.346,6086274.0
21:55:00.386,6087078.0
21:55:00.426,6085778.0
21:55:00.466,6087060.0
21:55:00.506,6087376.0
21:55:00.546,6087803.0
21:55:00.586,6088579.0
21:55:00.626,6089246.0
21:55:00.666,6088686.0
21:55:00.706,6087246.0
21:55:00.746,6086924.0
21:55:00.786,6087033.0
21:55:00.826,6086969.0
21:55:00.866,6087078.0
21:55:00.906,6086926.0
21:55:00.946,6087177.0
21:55:00.986,6087403.0
21:55:01.026,6086723.0
21:55:01.066,6086639.0
21:55:01.106,6086522.0
21:55:01.146,6086941.0
21:55:01.186,6087808.0
21:55:01.226,6087319.0
21:55:01.266,6087810.0
21:55:01.306,6088426.0
21:55:01.346,6089238.0
21:55:01.386,6089602.0
21:55:01.426,6087838.0
21:55:01.466,6087151.0
21:55:01.506,6087045.0
21:55:01.546,6087161.0
21:55:01.586,6087195.0
21:55:01.626,6087152.0
21:55:01.666,6087462.0
21:55:01.706,6087607.0
21:55:01.746,6087030.0
21:55:01.786,6086681.0
21:55:01.826,6086681.0
21:55:01.866,6089195.0
21:55:01.906,6087990.0
21:55:01.946,6087342.0
21:55:01.986,6087679.0
21:55:02.026,6088422.0
21:55:02.066,6089479.0
21:55:02.106,6089690.0
21:55:02.146,6088162.0
21:55:02.186,6087142.0
21:55:02.486,6086873.0
21:55:02.526,6086989.0
21:55:02.566,6086820.0
21:55:02.606,6086662.0
21:55:02.646,6088797.0
21:55:02.686,6088216.0
21:55:02.726,6087601.0
21:55:02.766,6087745.0
21:55:02.806,6088456.0
21:55:02.846,6089382.0
21:55:02.886,6089801.0
21:55:02.926,6088114.0
21:55:02.966,6087283.0
21:55:03.006,6087203.0
21:55:03.046,6087152.0
21:55:03.086,6087258.0
21:55:03.126,6087316.0
21:55:03.166,6087314.0
21:55:03.206,6087606.0
21:55:03.246,6087738.0
21:55:03.286,6087142.0
21:55:03.326,6087162.0
21:55:03.366,6087045.0
21:55:03.406,6089914.0
21:55:03.446,6088297.0
21:55:03.486,6088262.0
21:55:03.526,6088380.0
21:55:03.566,6088848.0
21:55:03.606,6089449.0
21:55:03.646,6089997.0
21:55:03.686,6088831.0
21:55:03.726,6087685.0
21:55:03.766,6087486.0
21:55:03.806,6087533.0
21:55:03.846,6087498.0
21:55:03.886,6087523.0
21:55:03.926,6087445.0
21:55:03.966,6087551.0
21:55:04.006,6087890.0
21:55:04.046,6087556.0
21:55:04.086,6087156.0
21:55:04.126,6087018.0
21:55:04.166,6087808.0
21:55:04.206,6085782.0
21:55:04.246,6087768.0
21:55:04.286,6088022.0
21:55:04.326,6088494.0
21:55:04.366,6089221.0
21:55:04.406,6090164.0
21:55:04.446,6089621.0
21:55:04.486,6087943.0
21:55:04.526,6087419.0
21:55:04.566,6087540.0
21:55:04.606,6087547.0
21:55:04.646,6087553.0
21:55:04.686,6087428.0
21:55:04.726,6087352.0
21:55:04.766,6087236.0
21:55:04.806,6087489.0
21:55:04.846,6087736.0
21:55:04.886,6087093.0
21:55:04.926,6086943.0
21:55:04.966,6087139.0
21:55:05.006,6087044.0
21:55:05.046,6088239.0
21:55:05.086,6087843.0
21:55:05.126,6088212.0
21:55:05.166,6088758.0
21:55:05.206,6089590.0
21:55:05.246,6089761.0
21:55:05.286,6088121.0
21:55:05.326,6087488.0
21:55:05.366,6087353.0
21:55:05.406,6087585.0
21:55:05.446,6087487.0
21:55:05.486,6087533.0
21:55:05.526,6087446.0
21:55:05.566,6087757.0
21:55:05.606,6087919.0
21:55:05.646,6087283.0
21:55:05.686,6086987.0
21:55:05.726,6087022.0
21:55:05.766,6087254.0
21:55:05.806,6088107.0
21:55:05.846,6087782.0
21:55:05.886,6088155.0
21:55:05.926,6088765.0
21:55:05.966,6089752.0
21:55:06.006,6089612.0
21:55:06.046,6088256.0
21:55:06.086,6087594.0
21:55:06.126,6087583.0
21:55:06.166,6087733.0
21:55:06.206,6087704.0
21:55:06.246,6087720.0
21:55:06.286,6087646.0
21:55:06.326,6087816.0
21:55:06.366,6088103.0
21:55:06.406,6087659.0
21:55:06.446,6087539.0
21:55:06.721,6087385.0
21:55:06.761,6089057.0
21:55:06.801,6089856.0
21:55:06.841,6090272.0
21:55:06.881,6089051.0
21:55:06.921,6087953.0
21:55:06.961,6087817.0
21:55:07.001,6087754.0
21:55:07.041,6087956.0
21:55:07.081,6087935.0
21:55:07.121,6088099.0
21:55:07.161,6088208.0
21:55:07.201,6087631.0
21:55:07.241,6087629.0
21:55:07.281,6087509.0
21:55:07.321,6090037.0
21:55:07.361,6088192.0
21:55:07.401,6088121.0
21:55:07.441,6088567.0
21:55:07.481,6089051.0
21:55:07.521,6090017.0
21:55:07.561,6090577.0
21:55:07.601,6089285.0
21:55:07.641,6087964.0
21:55:07.681,6087746.0
21:55:07.721,6087926.0
21:55:07.761,6087911.0
21:55:07.801,6087963.0
21:55:07.841,6088216.0
21:55:07.881,6088243.0
21:55:07.921,6087810.0
21:55:07.961,6087547.0
21:55:08.001,6087372.0
21:55:08.041,6090167.0
21:55:08.081,6088641.0
21:55:08.121,6088386.0
21:55:08.161,6088655.0
21:55:08.201,6089209.0
21:55:08.241,6090237.0
21:55:08.281,6090839.0
21:55:08.321,6089323.0
21:55:08.361,6088022.0
21:55:08.401,6087857.0
21:55:08.441,6087950.0
21:55:08.481,6087925.0
21:55:08.521,6087965.0
21:55:08.561,6087992.0
21:55:08.601,6088481.0
21:55:08.641,6088171.0
21:55:08.681,6087811.0
21:55:08.721,6087513.0
21:55:08.761,6089154.0
21:55:08.801,6087010.0
21:55:08.841,6088125.0
21:55:08.881,6088303.0
21:55:08.921,6088777.0
21:55:08.961,6089591.0
21:55:09.001,6090338.0
21:55:09.041,6089561.0
21:55:09.081,6087957.0
21:55:09.121,6087611.0
21:55:09.161,6087680.0
21:55:09.201,6087624.0
21:55:09.241,6087707.0
21:55:09.281,6087879.0
21:55:09.321,6088203.0
21:55:09.361,6087519.0
21:55:09.401,6087335.0
21:55:09.441,6087316.0
21:55:09.481,6088624.0
21:55:09.521,6088600.0
21:55:09.561,6088222.0
21:55:09.601,6088477.0
21:55:09.641,6089058.0
21:55:09.681,6090125.0
21:55:09.721,6090410.0
21:55:09.761,6088595.0
21:55:09.801,6087858.0
21:55:09.841,6087763.0
21:55:09.881,6087910.0
21:55:09.921,6087972.0
21:55:09.961,6087907.0
21:55:10.001,6088331.0
21:55:10.041,6088128.0
21:55:10.081,6087523.0
21:55:10.121,6087480.0
21:55:10.161,6088323.0
21:55:10.201,6086710.0
21:55:10.241,6088012.0
21:55:10.281,6088370.0
21:55:10.321,6088847.0
21:55:10.361,6089532.0
21:55:10.401,6090584.0
21:55:10.441,6089841.0
21:55:10.481,6088199.0
21:55:10.521,6087942.0
21:55:10.561,6087929.0
21:55:10.601,6088027.0
21:55:10.641,6087937.0
21:55:10.681,6088226.0
21:55:11.017,6088373.0
21:55:11.057,6086375.0
21:55:11.097,6088316.0
21:55:11.137,6088237.0
21:55:11.177,6088784.0
21:55:11.217,6089371.0
21:55:11.257,6090346.0
21:55:11.297,6090161.0
21:55:11.337,6088400.0
21:55:11.377,6087775.0
21:55:11.417,6087810.0
21:55:11.457,6087778.0
21:55:11.497,6087844.0
21:55:11.537,6087799.0
21:55:11.577,6088025.0
21:55:11.617,6088105.0
21:55:11.657,6087513.0
21:55:11.697,6087197.0
21:55:11.737,6087192.0
21:55:11.777,6086755.0
21:55:11.817,6088384.0
21:55:11.857,6088033.0
21:55:11.897,6088428.0
21:55:11.937,6089068.0
21:55:11.977,6089979.0
21:55:12.017,6089690.0
21:55:12.057,6088104.0
21:55:12.097,6087596.0
21:55:12.137,6087381.0
21:55:12.177,6087600.0
21:55:12.217,6087601.0
21:55:12.257,6087637.0
21:55:12.297,6087779.0
21:55:12.337,6087964.0
21:55:12.377,6087492.0
21:55:12.417,6087302.0
21:55:12.457,6087323.0
21:55:12.497,6086644.0
21:55:12.537,6088383.0
21:55:12.577,6088097.0
21:55:12.617,6088532.0
21:55:12.657,6089078.0
21:55:12.697,6090056.0
21:55:12.737,6090070.0
21:55:12.777,6088340.0
21:55:12.817,6087693.0
21:55:12.857,6087650.0
21:55:12.897,6087725.0
21:55:12.937,6087715.0
21:55:12.977,6087735.0
21:55:13.017,6087716.0
21:55:13.057,6088039.0
21:55:13.097,6087950.0
21:55:13.137,6087523.0
21:55:13.177,6087367.0
21:55:13.217,6087512.0
21:55:13.257,6086154.0
21:55:13.297,6088176.0
21:55:13.337,6088123.0
21:55:13.377,6088571.0
21:55:13.417,6089309.0
21:55:13.457,6090239.0
21:55:13.497,6089924.0
21:55:13.537,6088218.0
21:55:13.577,6087772.0
21:55:13.617,6087696.0
21:55:13.657,6087788.0
21:55:13.697,6087838.0
21:55:13.737,6087802.0
21:55:13.777,6087724.0
21:55:13.817,6088000.0
21:55:13.857,6088007.0
21:55:13.897,6087624.0
21:55:13.937,6087311.0
21:55:13.977,6087367.0
21:55:14.017,6086792.0
21:55:14.057,6088289.0
21:55:14.097,6088085.0
21:55:14.137,6088405.0
21:55:14.177,6089087.0
21:55:14.217,6089894.0
21:55:14.257,6090039.0
21:55:14.297,6088332.0
21:55:14.337,6087666.0
21:55:14.377,6087659.0
21:55:14.417,6087691.0
21:55:14.457,6087637.0
21:55:14.497,6087659.0
21:55:14.537,6087766.0
21:55:14.577,6087997.0
21:55:14.617,6087507.0
21:55:14.657,6087234.0
21:55:14.697,6087334.0
21:55:14.737,6086401.0
21:55:14.777,6088250.0
21:55:14.817,6088032.0
21:55:14.857,6088388.0
21:55:14.897,6089161.0
21:55:14.937,6090025.0
21:55:14.977,6089934.0
21:55:15.372,6088297.0
21:55:15.412,6088838.0
21:55:15.452,6088590.0
21:55:15.492,6087913.0
21:55:15.532,6088056.0
21:55:15.572,6088601.0
21:55:15.612,6086688.0
21:55:15.652,6088603.0
21:55:15.692,6088719.0
21:55:15.732,6089194.0
21:55:15.772,6089943.0
21:55:15.812,6090863.0
21:55:15.852,6089671.0
21:55:15.892,6088808.0
21:55:15.932,6088483.0
21:55:15.972,6088505.0
21:55:16.012,6088096.0
21:55:16.052,6088627.0
21:55:16.092,6088986.0
21:55:16.132,6089079.0
21:55:16.172,6088235.0
21:55:16.212,6088408.0
21:55:16.252,6088127.0
21:55:16.292,6090545.0
21:55:16.332,6088707.0
21:55:16.372,6089000.0
21:55:16.412,6089014.0
21:55:16.452,6089705.0
21:55:16.492,6090487.0
21:55:16.532,6090580.0
21:55:16.572,6089756.0
21:55:16.612,6088388.0
21:55:16.652,6088619.0
21:55:16.692,6088650.0
21:55:16.732,6088201.0
21:55:16.772,6088568.0
21:55:16.812,6088636.0
21:55:16.852,6089163.0
21:55:16.892,6088733.0
21:55:16.932,6088428.0
21:55:16.972,6088125.0
21:55:17.012,6088780.0
21:55:17.052,6087074.0
21:55:17.092,6088876.0
21:55:17.132,6089044.0
21:55:17.172,6089330.0
21:55:17.212,6090568.0
21:55:17.252,6090883.0
21:55:17.292,6090517.0
21:55:17.332,6088962.0
21:55:17.372,6088474.0
21:55:17.412,6088323.0
21:55:17.452,6088569.0
21:55:17.492,6088337.0
21:55:17.532,6088539.0
21:55:17.572,6088897.0
21:55:17.612,6087994.0
21:55:17.652,6088265.0
21:55:17.692,6088093.0
21:55:17.732,6089201.0
21:55:17.772,6088168.0
21:55:17.812,6088846.0
21:55:17.852,6088932.0
21:55:17.892,6089369.0
21:55:17.932,6090091.0
21:55:17.972,6090838.0
21:55:18.012,6089983.0
21:55:18.052,6088629.0
21:55:18.092,6088357.0
21:55:18.132,6088444.0
21:55:18.172,6088291.0
21:55:18.212,6088550.0
21:55:18.252,6088690.0
21:55:18.292,6088802.0
21:55:18.332,6088878.0
21:55:18.372,6088375.0
21:55:18.412,6088177.0
21:55:18.452,6088273.0
21:55:18.492,6087114.0
21:55:18.532,6088964.0
21:55:18.572,6088725.0
21:55:18.612,6089389.0
21:55:18.652,6089845.0
21:55:18.692,6090740.0
21:55:18.732,6090685.0
21:55:18.772,6088841.0
21:55:18.812,6088371.0
21:55:18.852,6088539.0
21:55:18.892,6088419.0
21:55:18.932,6088735.0
21:55:18.972,6088617.0
21:55:19.012,6088491.0
21:55:19.052,6088724.0
21:55:19.092,6089045.0
21:55:19.132,6088353.0
21:55:19.172,6087882.0
21:55:19.212,6088315.0
21:55:19.252,6088184.0
21:55:19.292,6089288.0
21:55:19.332,6089013.0
21:55:19.612,6089367.0
21:55:19.652,6088552.0
21:55:19.692,6088519.0
21:55:19.732,6088610.0
21:55:19.772,6088583.0
21:55:19.812,6088606.0
21:55:19.852,6088931.0
21:55:19.892,6088782.0
21:55:19.932,6088310.0
21:55:19.972,6088108.0
21:55:20.012,6088634.0
21:55:20.052,6086545.0
21:55:20.092,6088829.0
21:55:20.132,6088906.0
21:55:20.172,6089262.0
21:55:20.212,6089875.0
21:55:20.252,6090739.0
21:55:20.292,6090448.0
21:55:20.332,6088818.0
21:55:20.372,6088299.0
21:55:20.412,6088315.0
21:55:20.452,6088179.0
21:55:20.492,6088283.0
21:55:20.532,6088469.0
21:55:20.572,6088738.0
21:55:20.612,6088182.0
21:55:20.652,6088042.0
21:55:20.692,6087899.0
21:55:20.732,6089544.0
21:55:20.772,6088029.0
21:55:20.812,6088498.0
21:55:20.852,6088765.0
21:55:20.892,6089154.0
21:55:20.932,6089910.0
21:55:20.972,6090644.0
21:55:21.012,6089772.0
21:55:21.052,6088534.0
21:55:21.092,6088323.0
21:55:21.132,6088437.0
21:55:21.172,6088419.0
21:55:21.212,6088530.0
21:55:21.252,6088787.0
21:55:21.292,6088860.0
21:55:21.332,6088343.0
21:55:21.372,6088236.0
21:55:21.412,6088409.0
21:55:21.452,6091268.0
21:55:21.492,6089125.0
21:55:21.532,6089034.0
21:55:21.572,6089050.0
21:55:21.612,6089638.0
21:55:21.652,6090528.0
21:55:21.692,6090910.0
21:55:21.732,6089724.0
21:55:21.772,6088481.0
21:55:21.812,6088302.0
21:55:21.852,6088570.0
21:55:21.892,6088619.0
21:55:21.932,6088516.0
21:55:21.972,6088997.0
21:55:22.012,6089446.0
21:55:22.052,6088782.0
21:55:22.092,6088544.0
21:55:22.132,6088608.0
21:55:22.172,6087780.0
21:55:22.212,6089260.0
21:55:22.252,6089279.0
21:55:22.292,6089392.0
21:55:22.332,6089989.0
21:55:22.372,6091180.0
21:55:22.412,6090936.0
21:55:22.452,6089342.0
21:55:22.492,6088837.0
21:55:22.532,6088753.0
21:55:22.572,6088701.0
21:55:22.612,6088836.0
21:55:22.652,6089018.0
21:55:22.692,6089008.0
21:55:22.732,6088488.0
21:55:22.772,6088384.0
21:55:22.812,6088130.0
21:55:22.852,6090737.0
21:55:22.892,6088813.0
21:55:22.932,6088892.0
21:55:22.972,6089180.0
21:55:23.012,6089834.0
21:55:23.052,6090736.0
21:55:23.092,6091081.0
21:55:23.132,6090163.0
21:55:23.172,6088681.0
21:55:23.212,6088636.0
21:55:23.252,6088573.0
21:55:23.292,6088620.0
21:55:23.332,6088461.0
21:55:23.372,6088850.0
21:55:23.412,6088724.0
21:55:23.452,6088177.0
21:55:23.492,6087963.0
21:55:23.532,6088568.0
21:55:23.572,6087660.0
21:55:23.908,6088888.0
21:55:23.948,6088632.0
21:55:23.988,6088197.0
21:55:24.028,6088199.0
21:55:24.068,6088419.0
21:55:24.108,6088355.0
21:55:24.148,6088520.0
21:55:24.188,6088458.0
21:55:24.228,6088042.0
21:55:24.268,6087822.0
21:55:24.308,6087963.0
21:55:24.348,6087306.0
21:55:24.388,6088741.0
21:55:24.428,6088549.0
21:55:24.468,6088976.0
21:55:24.508,6089610.0
21:55:24.548,6090526.0
21:55:24.588,6090303.0
21:55:24.628,6088791.0
21:55:24.668,6088186.0
21:55:24.708,6088077.0
21:55:24.748,6088261.0
21:55:24.788,6088349.0
21:55:24.828,6088446.0
21:55:24.868,6088684.0
21:55:24.908,6088021.0
21:55:24.948,6087940.0
21:55:24.988,6087737.0
21:55:25.028,6089462.0
21:55:25.068,6088953.0
21:55:25.108,6088570.0
21:55:25.148,6088754.0
21:55:25.188,6089439.0
21:55:25.228,6090195.0
21:55:25.268,6090640.0
21:55:25.308,6089067.0
21:55:25.348,6088301.0
21:55:25.388,6088222.0
21:55:25.428,6088115.0
21:55:25.468,6088349.0
21:55:25.508,6088193.0
21:55:25.548,6088442.0
21:55:25.588,6088490.0
21:55:25.628,6088131.0
21:55:25.668,6087950.0
21:55:25.708,6087847.0
21:55:25.748,6090634.0
21:55:25.788,6088568.0
21:55:25.828,6088537.0
21:55:25.868,6088526.0
21:55:25.908,6089240.0
21:55:25.948,6090154.0
21:55:25.988,6090824.0
21:55:26.028,6089537.0
21:55:26.068,6088355.0
21:55:26.108,6088132.0
21:55:26.148,6088244.0
21:55:26.188,6088378.0
21:55:26.228,6088263.0
21:55:26.268,6088433.0
21:55:26.308,6088834.0
21:55:26.348,6088361.0
21:55:26.388,6088234.0
21:55:26.428,6087874.0
21:55:26.468,6089606.0
21:55:26.508,6087944.0
21:55:26.548,6088422.0
21:55:26.588,6088867.0
21:55:26.628,6089071.0
21:55:26.668,6089918.0
21:55:26.708,6090836.0
21:55:26.748,6089867.0
21:55:26.788,6088439.0
21:55:26.828,6088189.0
21:55:26.868,6087838.0
21:55:26.908,6088412.0
21:55:26.948,6088333.0
21:55:26.988,6088397.0
21:55:27.028,6088711.0
21:55:27.068,6088050.0
21:55:27.108,6087822.0
21:55:27.148,6088047.0
21:55:27.188,6089285.0
21:55:27.228,6089107.0
21:55:27.268,6088802.0
21:55:27.308,6088978.0
21:55:27.348,6089571.0
21:55:27.388,6090447.0
21:55:27.428,6090890.0
21:55:27.468,6089263.0
21:55:27.508,6088616.0
21:55:27.548,6088429.0
21:55:27.588,6088274.0
21:55:27.628,6088455.0
21:55:27.668,6088503.0
21:55:27.708,6088717.0
21:55:27.748,6088890.0
21:55:27.788,6088211.0
21:55:27.828,6088041.0
21:55:27.868,6088343.0
21:55:28.165,6087656.0
21:55:28.205,6090940.0
21:55:28.245,6089480.0
21:55:28.285,6088508.0
21:55:28.325,6088558.0
21:55:28.365,6088626.0
21:55:28.405,6088602.0
21:55:28.445,6088544.0
21:55:28.485,6088535.0
21:55:28.525,6088671.0
21:55:28.565,6088839.0
21:55:28.605,6088411.0
21:55:28.645,6087991.0
21:55:28.685,6088131.0
21:55:28.725,6089062.0
21:55:28.765,6089218.0
21:55:28.805,6088931.0
21:55:28.845,6089215.0
21:55:28.885,6089884.0
21:55:28.925,6090804.0
21:55:28.965,6091212.0
21:55:29.005,6089486.0
21:55:29.045,6088470.0
21:55:29.085,6088223.0
21:55:29.125,6088510.0
21:55:29.165,6088514.0
21:55:29.205,6088351.0
21:55:29.245,6088292.0
21:55:29.285,6088525.0
21:55:29.325,6088697.0
21:55:29.365,6088137.0
21:55:29.405,6087945.0
21:55:29.445,6087999.0
21:55:29.485,6088367.0
21:55:29.525,6089251.0
21:55:29.565,6088605.0
21:55:29.605,6089037.0
21:55:29.645,6089519.0
21:55:29.685,6090497.0
21:55:29.725,6090789.0
21:55:29.765,6088981.0
21:55:29.805,6088348.0
21:55:29.845,6088083.0
21:55:29.885,6088209.0
21:55:29.925,6088402.0
21:55:29.965,6088180.0
21:55:30.005,6088220.0
21:55:30.045,6088750.0
21:55:30.085,6088071.0
21:55:30.125,6088012.0
21:55:30.165,6087899.0
21:55:30.205,6089670.0
21:55:30.245,6089255.0
21:55:30.285,6088494.0
21:55:30.325,6088714.0
21:55:30.365,6089357.0
21:55:30.405,6090310.0
21:55:30.445,6090765.0
21:55:30.485,6089122.0
21:55:30.525,6088212.0
21:55:30.565,6087976.0
21:55:30.605,6088174.0
21:55:30.645,6088332.0
21:55:30.685,6088163.0
21:55:30.725,6088346.0
21:55:30.765,6088668.0
21:55:30.805,6088307.0
21:55:30.845,6087981.0
21:55:30.885,6087826.0
21:55:30.925,6089056.0
21:55:30.965,6088095.0
21:55:31.005,6088378.0
21:55:31.045,6088635.0
21:55:31.085,6088924.0
21:55:31.125,6089812.0
21:55:31.165,6090449.0
21:55:31.205,6089861.0
21:55:31.245,6088325.0
21:55:31.285,6088122.0
21:55:31.325,6088146.0
21:55:31.365,6088102.0
21:55:31.405,6088182.0
21:55:31.445,6088127.0
21:55:31.485,6088008.0
21:55:31.525,6088423.0
21:55:31.565,6088302.0
21:55:31.605,6088045.0
21:55:31.645,6087825.0
21:55:31.685,6087750.0
21:55:31.725,6088061.0
21:55:31.765,6088868.0
21:55:31.805,6088426.0
21:55:31.845,6088681.0
21:55:31.885,6089393.0
21:55:31.925,6090384.0
21:55:31.965,6090338.0
21:55:32.005,6089024.0
21:55:32.045,6087987.0
21:55:32.085,6087939.0
21:55:32.125,6087947.0
21:55:32.504,6087967.0
21:55:32.544,6087478.0
21:55:32.584,6087401.0
21:55:32.624,6089446.0
21:55:32.664,6087637.0
21:55:32.704,6088158.0
21:55:32.744,6088434.0
21:55:32.784,6088691.0
21:55:32.824,6089760.0
21:55:32.864,6090317.0
21:55:32.904,6089279.0
21:55:32.944,6088001.0
21:55:32.984,6087880.0
21:55:33.024,6087919.0
21:55:33.064,6088021.0
21:55:33.104,6087893.0
21:55:33.144,6088125.0
21:55:33.184,6088438.0
21:55:33.224,6087927.0
21:55:33.264,6087774.0
21:55:33.304,6087924.0
21:55:33.344,6089535.0
21:55:33.384,6088831.0
21:55:33.424,6088517.0
21:55:33.464,6088619.0
21:55:33.504,6089348.0
21:55:33.544,6090168.0
21:55:33.584,6090276.0
21:55:33.624,6088755.0
21:55:33.664,6087841.0
21:55:33.704,6088176.0
21:55:33.744,6088075.0
21:55:33.784,6088058.0
21:55:33.824,6087938.0
21:55:33.864,6088289.0
21:55:33.904,6088257.0
21:55:33.944,6088047.0
21:55:33.984,6087780.0
21:55:34.024,6087805.0
21:55:34.064,6089589.0
21:55:34.104,6088758.0
21:55:34.144,6088455.0
21:55:34.184,6088728.0
21:55:34.224,6089054.0
21:55:34.264,6089824.0
21:55:34.304,6089955.0
21:55:34.344,6089015.0
21:55:34.384,6088298.0
21:55:34.424,6088180.0
21:55:34.464,6088172.0
21:55:34.504,6088251.0
21:55:34.544,6088132.0
21:55:34.584,6088344.0
21:55:34.624,6088673.0
21:55:34.664,6088081.0
21:55:34.704,6087994.0
21:55:34.744,6087990.0
21:55:34.784,6088770.0
21:55:34.824,6088869.0
21:55:34.864,6088736.0
21:55:34.904,6088879.0
21:55:34.944,6089547.0
21:55:34.984,6090236.0
21:55:35.024,6090454.0
21:55:35.064,6089153.0
21:55:35.104,6088419.0
21:55:35.144,6088330.0
21:55:35.184,6088350.0
21:55:35.224,6088463.0
21:55:35.264,6088353.0
21:55:35.304,6088658.0
21:55:35.344,6088654.0
21:55:35.384,6088304.0
21:55:35.424,6088095.0
21:55:35.464,6088045.0
21:55:35.504,6090326.0
21:55:35.544,6088951.0
21:55:35.584,6088783.0
21:55:35.624,6088992.0
21:55:35.664,6089349.0
21:55:35.704,6090240.0
21:55:35.744,6090685.0
21:55:35.784,6089271.0
21:55:35.824,6088243.0
21:55:35.864,6088188.0
21:55:35.904,6088283.0
21:55:35.944,6088480.0
21:55:35.984,6088498.0
21:55:36.024,6088823.0
21:55:36.064,6089222.0
21:55:36.104,6088416.0
21:55:36.144,6088304.0
21:55:36.184,6088217.0
21:55:36.224,6088087.0
21:55:36.264,6089078.0
21:55:36.304,6088870.0
21:55:36.344,6089312.0
21:55:36.384,6089991.0
21:55:36.424,6090863.0
21:55:36.464,6090832.0
21:55:36.772,6089344.0
21:55:36.812,6088962.0
21:55:36.852,6089217.0
21:55:36.892,6088496.0
21:55:36.932,6088257.0
21:55:36.972,6088124.0
21:55:37.012,6089866.0
21:55:37.052,6089596.0
21:55:37.092,6089211.0
21:55:37.132,6089544.0
21:55:37.172,6090278.0
21:55:37.212,6091304.0
21:55:37.252,6091452.0
21:55:37.292,6090066.0
21:55:37.332,6089085.0
21:55:37.372,6089027.0
21:55:37.412,6089282.0
21:55:37.452,6089127.0
21:55:37.492,6088988.0
21:55:37.532,6089322.0
21:55:37.572,6089522.0
21:55:37.612,6088703.0
21:55:37.652,6088532.0
21:55:37.692,6088653.0
21:55:37.732,6087798.0
21:55:37.772,6089503.0
21:55:37.812,6089555.0
21:55:37.852,6089908.0
21:55:37.892,6090640.0
21:55:37.932,6091753.0
21:55:37.972,6091566.0
21:55:38.012,6089589.0
21:55:38.052,6089010.0
21:55:38.092,6089116.0
21:55:38.132,6089128.0
21:55:38.172,6089098.0
21:55:38.212,6089186.0
21:55:38.252,6089535.0
21:55:38.292,6089039.0
21:55:38.332,6088664.0
21:55:38.372,6088403.0
21:55:38.412,6090777.0
21:55:38.452,6088734.0
21:55:38.492,6089035.0
21:55:38.532,6089389.0
21:55:38.572,6089928.0
21:55:38.612,6090992.0
21:55:38.652,6091597.0
21:55:38.692,6090433.0
21:55:38.732,6088358.0
21:55:38.772,6088608.0
21:55:38.812,6088369.0
21:55:38.852,6088487.0
21:55:38.892,6088637.0
21:55:38.932,6088810.0
21:55:38.972,6088062.0
21:55:39.012,6087676.0
21:55:39.052,6087294.0
21:55:39.092,6089832.0
21:55:39.132,6087568.0
21:55:39.172,6087716.0
21:55:39.212,6087993.0
21:55:39.252,6088534.0
21:55:39.292,6089343.0
21:55:39.332,6089986.0
21:55:39.372,6088540.0
21:55:39.412,6087058.0
21:55:39.452,6086962.0
21:55:39.492,6086787.0
21:55:39.532,6086915.0
21:55:39.572,6086980.0
21:55:39.612,6086273.0
21:55:39.652,6086102.0
21:55:39.692,6086055.0
21:55:39.732,6088202.0
21:55:39.772,6086522.0
21:55:39.812,6086803.0
21:55:39.852,6086936.0
21:55:39.892,6087539.0
21:55:39.932,6088442.0
21:55:39.972,6088934.0
21:55:40.012,6087553.0
21:55:40.052,6086598.0
21:55:40.092,6086573.0
21:55:40.132,6086745.0
21:55:40.172,6087280.0
21:55:40.212,6087386.0
21:55:40.252,6086612.0
21:55:40.292,6086497.0
21:55:40.332,6086724.0
21:55:40.372,6086355.0
21:55:40.412,6087740.0
21:55:40.452,6087722.0
21:55:40.492,6088117.0
21:55:40.532,6088817.0
21:55:40.572,6089647.0
21:55:40.612,6089565.0
21:55:40.652,6087884.0
21:55:40.692,6087576.0
21:55:40.732,6087686.0
21:55:41.069,6087774.0
21:55:41.109,6086027.0
21:55:41.149,6088033.0
21:55:41.189,6088378.0
21:55:41.229,6088726.0
21:55:41.269,6089572.0
21:55:41.309,6090472.0
21:55:41.349,6089983.0
21:55:41.389,6088166.0
21:55:41.429,6087817.0
21:55:41.469,6087893.0
21:55:41.509,6087933.0
21:55:41.549,6088302.0
21:55:41.589,6088556.0
21:55:41.629,6087879.0
21:55:41.669,6087701.0
21:55:41.709,6087583.0
21:55:41.749,6089884.0
21:55:41.789,6087963.0
21:55:41.829,6088358.0
21:55:41.869,6088814.0
21:55:41.909,6089315.0
21:55:41.949,6090335.0
21:55:41.989,6090785.0
21:55:42.029,6089774.0
21:55:42.069,6088539.0
21:55:42.109,6088148.0
21:55:42.149,6088144.0
21:55:42.189,6087933.0
21:55:42.229,6087869.0
21:55:42.269,6087952.0
21:55:42.309,6088182.0
21:55:42.349,6087764.0
21:55:42.389,6087050.0
21:55:42.429,6086772.0
21:55:42.469,6087771.0
21:55:42.509,6085626.0
21:55:42.549,6087012.0
21:55:42.589,6087214.0
21:55:42.629,6087592.0
21:55:42.669,6088307.0
21:55:42.709,6089006.0
21:55:42.749,6088116.0
21:55:42.789,6086350.0
21:55:42.829,6086022.0
21:55:42.869,6086125.0
21:55:42.909,6086115.0
21:55:42.949,6086178.0
21:55:42.989,6086523.0
21:55:43.029,6086164.0
21:55:43.069,6085567.0
21:55:43.109,6085317.0
21:55:43.149,6086687.0
21:55:43.189,6084203.0
21:55:43.229,6085999.0
21:55:43.269,6086293.0
21:55:43.309,6086705.0
21:55:43.349,6087515.0
21:55:43.389,6088330.0
21:55:43.429,6087293.0
21:55:43.469,6085827.0
21:55:43.509,6085738.0
21:55:43.549,6085510.0
21:55:43.589,6085685.0
21:55:43.629,6085540.0
21:55:43.669,6086070.0
21:55:43.709,6085881.0
21:55:43.749,6085291.0
21:55:43.789,6085244.0
21:55:43.829,6086615.0
21:55:43.869,6085169.0
21:55:43.909,6085974.0
21:55:43.949,6086255.0
21:55:43.989,6086773.0
21:55:44.029,6087601.0
21:55:44.069,6088351.0
21:55:44.109,6087617.0
21:55:44.149,6086333.0
21:55:44.189,6086220.0
21:55:44.229,6086292.0
21:55:44.269,6086380.0
21:55:44.309,6086776.0
21:55:44.349,6086863.0
21:55:44.389,6086153.0
21:55:44.429,6086154.0
21:55:44.469,6086006.0
21:55:44.509,6086617.0
21:55:44.549,6087300.0
21:55:44.589,6086909.0
21:55:44.629,6087238.0
21:55:44.669,6087938.0
21:55:44.709,6088879.0
21:55:44.749,6088830.0
21:55:44.789,6087242.0
21:55:44.829,6086725.0
21:55:44.869,6086724.0
21:55:44.909,6086750.0
21:55:44.949,6086914.0
21:55:44.989,6087205.0
21:55:45.029,6087426.0
21:55:45.396,6086674.0
21:55:45.436,6087858.0
21:55:45.476,6088471.0
21:55:45.516,6089448.0
21:55:45.556,6089409.0
21:55:45.596,6087704.0
21:55:45.636,6087165.0
21:55:45.676,6087273.0
21:55:45.716,6087335.0
21:55:45.756,6087454.0
21:55:45.796,6087421.0
21:55:45.836,6087711.0
21:55:45.876,6088043.0
21:55:45.916,6087337.0
21:55:45.956,6087162.0
21:55:45.996,6087217.0
21:55:46.036,6089891.0
21:55:46.076,6088890.0
21:55:46.116,6088312.0
21:55:46.156,6088690.0
21:55:46.196,6089188.0
21:55:46.236,6090107.0
21:55:46.276,6090426.0
21:55:46.316,6088940.0
21:55:46.356,6088030.0
21:55:46.396,6087923.0
21:55:46.436,6088000.0
21:55:46.476,6088064.0
21:55:46.516,6087978.0
21:55:46.556,6088083.0
21:55:46.596,6088487.0
21:55:46.636,6088079.0
21:55:46.676,6087570.0
21:55:46.716,6087376.0
21:55:46.756,6089261.0
21:55:46.796,6086757.0
21:55:46.836,6088082.0
21:55:46.876,6088470.0
21:55:46.916,6089027.0
21:55:46.956,6089788.0
21:55:46.996,6090538.0
21:55:47.036,6089551.0
21:55:47.076,6087834.0
21:55:47.116,6087624.0
21:55:47.156,6087604.0
21:55:47.196,6087737.0
21:55:47.236,6087705.0
21:55:47.276,6087885.0
21:55:47.316,6087928.0
21:55:47.356,6087544.0
21:55:47.396,6087088.0
21:55:47.436,6087323.0
21:55:47.476,6089868.0
21:55:47.516,6088248.0
21:55:47.556,6087963.0
21:55:47.596,6088229.0
21:55:47.636,6088787.0
21:55:47.676,6089731.0
21:55:47.716,6090210.0
21:55:47.756,6088762.0
21:55:47.796,6087802.0
21:55:47.836,6087746.0
21:55:47.876,6087922.0
21:55:47.916,6088006.0
21:55:47.956,6088184.0
21:55:47.996,6088331.0
21:55:48.036,6087868.0
21:55:48.076,6087794.0
21:55:48.116,6087754.0
21:55:48.156,6089725.0
21:55:48.196,6088299.0
21:55:48.236,6088490.0
21:55:48.276,6088674.0
21:55:48.316,6089160.0
21:55:48.356,6089858.0
21:55:48.396,6090212.0
21:55:48.436,6089213.0
21:55:48.476,6088303.0
21:55:48.516,6088252.0
21:55:48.556,6088280.0
21:55:48.596,6088422.0
21:55:48.636,6088290.0
21:55:48.676,6088494.0
21:55:48.716,6088698.0
21:55:48.756,6088169.0
21:55:48.796,6088199.0
21:55:48.836,6088323.0
21:55:48.876,6087298.0
21:55:48.916,6088601.0
21:55:48.956,6088929.0
21:55:48.996,6089184.0
21:55:49.036,6089801.0
21:55:49.076,6090533.0
21:55:49.116,6090122.0
21:55:49.156,6088661.0
21:55:49.196,6088322.0
21:55:49.236,6088327.0
21:55:49.276,6088233.0
21:55:49.316,6088260.0
21:55:49.356,6088101.0
21:55:49.597,6088479.0
21:55:49.637,6088555.0
21:55:49.677,6088655.0
21:55:49.717,6088833.0
21:55:49.757,6089203.0
21:55:49.797,6090170.0
21:55:49.837,6090567.0
21:55:49.877,6089537.0
21:55:49.917,6088572.0
21:55:49.957,6088606.0
21:55:49.997,6088625.0
21:55:50.037,6088652.0
21:55:50.077,6088700.0
21:55:50.117,6088582.0
21:55:50.157,6088992.0
21:55:50.197,6088858.0
21:55:50.237,6088337.0
21:55:50.277,6088110.0
21:55:50.317,6089748.0
21:55:50.357,6087944.0
21:55:50.397,6089029.0
21:55:50.437,6089325.0
21:55:50.477,6089724.0
21:55:50.517,6090494.0
21:55:50.557,6091199.0
21:55:50.597,6090393.0
21:55:50.637,6088956.0
21:55:50.677,6088701.0
21:55:50.717,6088814.0
21:55:50.757,6088806.0
21:55:50.797,6088829.0
21:55:50.837,6088959.0
21:55:50.877,6089358.0
21:55:50.917,6088963.0
21:55:50.957,6088458.0
21:55:50.997,6088390.0
21:55:51.037,6090479.0
21:55:51.077,6088443.0
21:55:51.117,6089265.0
21:55:51.157,6089531.0
21:55:51.197,6089991.0
21:55:51.237,6090860.0
21:55:51.277,6091506.0
21:55:51.317,6090457.0
21:55:51.357,6088842.0
21:55:51.397,6088611.0
21:55:51.437,6088722.0
21:55:51.477,6088728.0
21:55:51.517,6088670.0
21:55:51.557,6088785.0
21:55:51.597,6088938.0
21:55:51.637,6088289.0
21:55:51.677,6088136.0
21:55:51.717,6088015.0
21:55:51.757,6090162.0
21:55:51.797,6089550.0
21:55:51.837,6089023.0
21:55:51.877,6089348.0
21:55:51.917,6089900.0
21:55:51.957,6090823.0
21:55:51.997,6091144.0
21:55:52.037,6089780.0
21:55:52.077,6088735.0
21:55:52.117,6088689.0
21:55:52.157,6088665.0
21:55:52.197,6088749.0
21:55:52.237,6088935.0
21:55:52.277,6089206.0
21:55:52.317,6088779.0
21:55:52.357,6088455.0
21:55:52.397,6088269.0
21:55:52.437,6090334.0
21:55:52.477,6088970.0
21:55:52.517,6089224.0
21:55:52.557,6089525.0
21:55:52.597,6090003.0
21:55:52.637,6090947.0
21:55:52.677,6091571.0
21:55:52.717,6090179.0
21:55:52.757,6089000.0
21:55:52.797,6088827.0
21:55:52.837,6088889.0
21:55:52.877,6088986.0
21:55:52.917,6089151.0
21:55:52.957,6089229.0
21:55:52.997,6088624.0
21:55:53.037,6088509.0
21:55:53.077,6088406.0
21:55:53.117,6090654.0
21:55:53.157,6089556.0
21:55:53.197,6089209.0
21:55:53.237,6089593.0
21:55:53.277,6090065.0
21:55:53.317,6091119.0
21:55:53.357,6091490.0
21:55:53.397,6089976.0
21:55:53.437,6089024.0
21:55:53.477,6089078.0
21:55:53.517,6088862.0
21:55:53.557,6089099.0
21:55:53.918,6089029.0
21:55:53.958,6088762.0
21:55:53.998,6088167.0
21:55:54.038,6089402.0
21:55:54.078,6089623.0
21:55:54.118,6089894.0
21:55:54.158,6090822.0
21:55:54.198,6091687.0
21:55:54.238,6091395.0
21:55:54.278,6089617.0
21:55:54.318,6089073.0
21:55:54.358,6089145.0
21:55:54.398,6089264.0
21:55:54.438,6089141.0
21:55:54.478,6089340.0
21:55:54.518,6089588.0
21:55:54.558,6088862.0
21:55:54.598,6088751.0
21:55:54.638,6088575.0
21:55:54.678,6091238.0
21:55:54.718,6089479.0
21:55:54.758,6089409.0
21:55:54.798,6089856.0
21:55:54.838,6090240.0
21:55:54.878,6091476.0
21:55:54.918,6092022.0
21:55:54.958,6090548.0
21:55:54.998,6089195.0
21:55:55.038,6089101.0
21:55:55.078,6089001.0
21:55:55.118,6089181.0
21:55:55.158,6089097.0
21:55:55.198,6089277.0
21:55:55.238,6089604.0
21:55:55.278,6088923.0
21:55:55.318,6088792.0
21:55:55.358,6088633.0
21:55:55.398,6090985.0
21:55:55.438,6089344.0
21:55:55.478,6089218.0
21:55:55.518,6089493.0
21:55:55.558,6089846.0
21:55:55.598,6090765.0
21:55:55.638,6091247.0
21:55:55.678,6089792.0
21:55:55.718,6088681.0
21:55:55.758,6088567.0
21:55:55.798,6088634.0
21:55:55.838,6088652.0
21:55:55.878,6088495.0
21:55:55.918,6088571.0
21:55:55.958,6088984.0
21:55:55.998,6088320.0
21:55:56.038,6088094.0
21:55:56.078,6088177.0
21:55:56.118,6087601.0
21:55:56.158,6088954.0
21:55:56.198,6088929.0
21:55:56.238,6089312.0
21:55:56.278,6089939.0
21:55:56.318,6090813.0
21:55:56.358,6090629.0
21:55:56.398,6089043.0
21:55:56.438,6088623.0
21:55:56.478,6088676.0
21:55:56.518,6088824.0
21:55:56.558,6088726.0
21:55:56.598,6089016.0
21:55:56.638,6089349.0
21:55:56.678,6088638.0
21:55:56.718,6088511.0
21:55:56.758,6088487.0
21:55:56.798,6089074.0
21:55:56.838,6089552.0
21:55:56.878,6089167.0
21:55:56.918,6089502.0
21:55:56.958,6090159.0
21:55:56.998,6091148.0
21:55:57.038,6090962.0
21:55:57.078,6089215.0
21:55:57.118,6088620.0
21:55:57.158,6088540.0
21:55:57.198,6088654.0
21:55:57.238,6088649.0
21:55:57.278,6088591.0
21:55:57.318,6088800.0
21:55:57.358,6089150.0
21:55:57.398,6088397.0
21:55:57.438,6088106.0
21:55:57.478,6088052.0
21:55:57.518,6089360.0
21:55:57.558,6089282.0
21:55:57.598,6088955.0
21:55:57.638,6089257.0
21:55:57.678,6089691.0
21:55:57.718,6090967.0
21:55:57.758,6090982.0
21:55:57.798,6089181.0
21:55:57.838,6088540.0
21:55:57.878,6088251.0
21:55:58.191,6088525.0
21:55:58.231,6088299.0
21:55:58.271,6088130.0
21:55:58.311,6088046.0
21:55:58.351,6088443.0
21:55:58.391,6089333.0
21:55:58.431,6088830.0
21:55:58.471,6089081.0
21:55:58.511,6089752.0
21:55:58.551,6090370.0
21:55:58.591,6090595.0
21:55:58.631,6088961.0
21:55:58.671,6088293.0
21:55:58.711,6088272.0
21:55:58.751,6088365.0
21:55:58.791,6088320.0
21:55:58.831,6088268.0
21:55:58.871,6088439.0
21:55:58.911,6088497.0
21:55:58.951,6088149.0
21:55:58.991,6087953.0
21:55:59.031,6087915.0
21:55:59.071,6090088.0
21:55:59.111,6088265.0
21:55:59.151,6088646.0
21:55:59.191,6089113.0
21:55:59.231,6089460.0
21:55:59.271,6090395.0
21:55:59.311,6090894.0
21:55:59.351,6089642.0
21:55:59.391,6088490.0
21:55:59.431,6088312.0
21:55:59.471,6088447.0
21:55:59.511,6088416.0
21:55:59.551,6088395.0
21:55:59.591,6088683.0
21:55:59.631,6088827.0
21:55:59.671,6088360.0
21:55:59.711,6088086.0
21:55:59.751,6088044.0
21:55:59.791,6090538.0
21:55:59.831,6089144.0
21:55:59.871,6088787.0
21:55:59.911,6088976.0
21:55:59.951,6089475.0
21:55:59.991,6090463.0
21:56:00.031,6090883.0
21:56:00.071,6089353.0
21:56:00.111,6088450.0
21:56:00.151,6088346.0
21:56:00.191,6088426.0
21:56:00.231,6088515.0
21:56:00.271,6088492.0
21:56:00.311,6088458.0
21:56:00.351,6088669.0
21:56:00.391,6088980.0
21:56:00.431,6088343.0
21:56:00.471,6088108.0
21:56:00.511,6088046.0
21:56:00.551,6089730.0
21:56:00.591,6089070.0
21:56:00.631,6088595.0
21:56:00.671,6089122.0
21:56:00.711,6089701.0
21:56:00.751,6090667.0
21:56:00.791,6090828.0
21:56:00.831,6089197.0
21:56:00.871,6088466.0
21:56:00.911,6088354.0
21:56:00.951,6088582.0
21:56:00.991,6088479.0
21:56:01.031,6088437.0
21:56:01.071,6088423.0
21:56:01.111,6088310.0
21:56:01.151,6088717.0
21:56:01.191,6088772.0
21:56:01.231,6088230.0
21:56:01.271,6088142.0
21:56:01.311,6088140.0
21:56:01.351,6087725.0
21:56:01.391,6089203.0
21:56:01.431,6088893.0
21:56:01.471,6089205.0
21:56:01.511,6089734.0
21:56:01.551,6090825.0
21:56:01.591,6090771.0
21:56:01.631,6088989.0
21:56:01.671,6088438.0
21:56:01.711,6088479.0
21:56:01.751,6088551.0
21:56:01.791,6088614.0
21:56:01.831,6088550.0
21:56:01.871,6088840.0
21:56:01.911,6088923.0
21:56:01.951,6088648.0
21:56:01.991,6088363.0
21:56:02.031,6088288.0
21:56:02.071,6089719.0
21:56:02.111,6088384.0
21:56:02.151,6088913.0
21:56:02.496,6089069.0
21:56:02.536,6088721.0
21:56:02.576,6088685.0
21:56:02.616,6088650.0
21:56:02.656,6088713.0
21:56:02.696,6088693.0
21:56:02.736,6088678.0
21:56:02.776,6089012.0
21:56:02.816,6088927.0
21:56:02.856,6088365.0
21:56:02.896,6088221.0
21:56:02.936,6088698.0
21:56:02.976,6087250.0
21:56:03.016,6088983.0
21:56:03.056,6089049.0
21:56:03.096,6089497.0
21:56:03.136,6090239.0
21:56:03.176,6091097.0
21:56:03.216,6090680.0
21:56:03.256,6089083.0
21:56:03.296,6088645.0
21:56:03.336,6088566.0
21:56:03.376,6088682.0
21:56:03.416,6088819.0
21:56:03.456,6088768.0
21:56:03.496,6088620.0
21:56:03.536,6088855.0
21:56:03.576,6089138.0
21:56:03.616,6088333.0
21:56:03.656,6088382.0
21:56:03.696,6088326.0
21:56:03.736,6089842.0
21:56:03.776,6089521.0
21:56:03.816,6089281.0
21:56:03.856,6089590.0
21:56:03.896,6090036.0
21:56:03.936,6091185.0
21:56:03.976,6091179.0
21:56:04.016,6089665.0
21:56:04.056,6088917.0
21:56:04.096,6088960.0
21:56:04.136,6088740.0
21:56:04.176,6088704.0
21:56:04.216,6088794.0
21:56:04.256,6088572.0
21:56:04.296,6088629.0
21:56:04.336,6088971.0
21:56:04.376,6088986.0
21:56:04.416,6087968.0
21:56:04.456,6088474.0
21:56:04.496,6088503.0
21:56:04.536,6087312.0
21:56:04.576,6089358.0
21:56:04.616,6089105.0
21:56:04.656,6089599.0
21:56:04.696,6090228.0
21:56:04.736,6090914.0
21:56:04.776,6091018.0
21:56:04.816,6089290.0
21:56:04.856,6088685.0
21:56:04.896,6088702.0
21:56:04.936,6088700.0
21:56:04.976,6088800.0
21:56:05.016,6088728.0
21:56:05.056,6088725.0
21:56:05.096,6089249.0
21:56:05.136,6088839.0
21:56:05.176,6088542.0
21:56:05.216,6088317.0
21:56:05.256,6090239.0
21:56:05.296,6088556.0
21:56:05.336,6089002.0
21:56:05.376,6089255.0
21:56:05.416,6089732.0
21:56:05.456,6090552.0
21:56:05.496,6091161.0
21:56:05.536,6090287.0
21:56:05.576,6088995.0
21:56:05.616,6088853.0
21:56:05.656,6088791.0
21:56:05.696,6088911.0
21:56:05.736,6088901.0
21:56:05.776,6088831.0
21:56:05.816,6089120.0
21:56:05.856,6089095.0
21:56:05.896,6088596.0
21:56:05.936,6088330.0
21:56:05.976,6088596.0
21:56:06.016,6087005.0
21:56:06.056,6089234.0
21:56:06.096,6089374.0
21:56:06.136,6089691.0
21:56:06.176,6090410.0
21:56:06.216,6091271.0
21:56:06.256,6090922.0
21:56:06.296,6089380.0
21:56:06.336,6088814.0
21:56:06.376,6088706.0
21:56:06.416,6088878.0
21:56:06.456,6088880.0
21:56:06.824,6088712.0
21:56:06.864,6088221.0
21:56:06.904,6088827.0
21:56:06.944,6089573.0
21:56:06.984,6089284.0
21:56:07.024,6089325.0
21:56:07.064,6089922.0
21:56:07.104,6090973.0
21:56:07.144,6091093.0
21:56:07.184,6089622.0
21:56:07.224,6088711.0
21:56:07.264,6088722.0
21:56:07.304,6088820.0
21:56:07.344,6088923.0
21:56:07.384,6088794.0
21:56:07.424,6088882.0
21:56:07.464,6089032.0
21:56:07.504,6088643.0
21:56:07.544,6088307.0
21:56:07.584,6088877.0
21:56:07.624,6087376.0
21:56:07.664,6089272.0
21:56:07.704,6089154.0
21:56:07.744,6089681.0
21:56:07.784,6090407.0
21:56:07.824,6091213.0
21:56:07.864,6090684.0
21:56:07.904,6089272.0
21:56:07.944,6088840.0
21:56:07.984,6088619.0
21:56:08.024,6088965.0
21:56:08.064,6088931.0
21:56:08.104,6088893.0
21:56:08.144,6089273.0
21:56:08.184,6089195.0
21:56:08.224,6088649.0
21:56:08.264,6088478.0
21:56:08.304,6089143.0
21:56:08.344,6087751.0
21:56:08.384,6089268.0
21:56:08.424,6089369.0
21:56:08.464,6089699.0
21:56:08.504,6090548.0
21:56:08.544,6091344.0
21:56:08.584,6090871.0
21:56:08.624,6089302.0
21:56:08.664,6088819.0
21:56:08.704,6088946.0
21:56:08.744,6089015.0
21:56:08.784,6089035.0
21:56:08.824,6088888.0
21:56:08.864,6089097.0
21:56:08.904,6089497.0
21:56:08.944,6088612.0
21:56:08.984,6088544.0
21:56:09.024,6088571.0
21:56:09.064,6090454.0
21:56:09.104,6089719.0
21:56:09.144,6089257.0
21:56:09.184,6089731.0
21:56:09.224,6090197.0
21:56:09.264,6091151.0
21:56:09.304,6091326.0
21:56:09.344,6089863.0
21:56:09.384,6089031.0
21:56:09.424,6088924.0
21:56:09.464,6089075.0
21:56:09.504,6089082.0
21:56:09.544,6088995.0
21:56:09.584,6089314.0
21:56:09.624,6089354.0
21:56:09.664,6088899.0
21:56:09.704,6088732.0
21:56:09.744,6088681.0
21:56:09.784,6090894.0
21:56:09.824,6089331.0
21:56:09.864,6089320.0
21:56:09.904,6089537.0
21:56:09.944,6089993.0
21:56:09.984,6090939.0
21:56:10.024,6091474.0
21:56:10.064,6090333.0
21:56:10.104,6089259.0
21:56:10.144,6088991.0
21:56:10.184,6089158.0
21:56:10.224,6089075.0
21:56:10.264,6089182.0
21:56:10.304,6089592.0
21:56:10.344,6089528.0
21:56:10.384,6088920.0
21:56:10.424,6088861.0
21:56:10.464,6089361.0
21:56:10.504,6088394.0
21:56:10.544,6089697.0
21:56:10.584,6089745.0
21:56:10.624,6090053.0
21:56:10.664,6090651.0
21:56:10.704,6091630.0
21:56:10.744,6091164.0
21:56:10.784,6089552.0
21:56:11.058,6089196.0
21:56:11.098,6089166.0
21:56:11.138,6088865.0
21:56:11.178,6088908.0
21:56:11.218,6089143.0
21:56:11.258,6089935.0
21:56:11.298,6089708.0
21:56:11.338,6089943.0
21:56:11.378,6090589.0
21:56:11.418,6091595.0
21:56:11.458,6091482.0
21:56:11.498,6089947.0
21:56:11.538,6089344.0
21:56:11.578,6089161.0
21:56:11.618,6089368.0
21:56:11.658,6089441.0
21:56:11.698,6089614.0
21:56:11.738,6089867.0
21:56:11.778,6089487.0
21:56:11.818,6088865.0
21:56:11.858,6088888.0
21:56:11.898,6090502.0
21:56:11.938,6088738.0
21:56:11.978,6089570.0
21:56:12.018,6090048.0
21:56:12.058,6090338.0
21:56:12.098,6091232.0
21:56:12.138,6092014.0
21:56:12.178,6091177.0
21:56:12.218,6089761.0
21:56:12.258,6089092.0
21:56:12.298,6089705.0
21:56:12.338,6089489.0
21:56:12.378,6089610.0
21:56:12.418,6089696.0
21:56:12.458,6089806.0
21:56:12.498,6089336.0
21:56:12.538,6088958.0
21:56:12.578,6088940.0
21:56:12.618,6090751.0
21:56:12.658,6089000.0
21:56:12.698,6089651.0
21:56:12.738,6089739.0
21:56:12.778,6090212.0
21:56:12.818,6091045.0
21:56:12.858,6091763.0
21:56:12.898,6090791.0
21:56:12.938,6089402.0
21:56:12.978,6089069.0
21:56:13.018,6089192.0
21:56:13.058,6089403.0
21:56:13.098,6089325.0
21:56:13.138,6089625.0
21:56:13.178,6089772.0
21:56:13.218,6089130.0
21:56:13.258,6088999.0
21:56:13.298,6089127.0
21:56:13.338,6088453.0
21:56:13.378,6089970.0
21:56:13.418,6089671.0
21:56:13.458,6089949.0
21:56:13.498,6090759.0
21:56:13.538,6091636.0
21:56:13.578,6091514.0
21:56:13.618,6089872.0
21:56:13.658,6089323.0
21:56:13.698,6089429.0
21:56:13.738,6089386.0
21:56:13.778,6089544.0
21:56:13.818,6089900.0
21:56:13.858,6089917.0
21:56:13.898,6089406.0
21:56:13.938,6089244.0
21:56:13.978,6089045.0
21:56:14.018,6091152.0
21:56:14.058,6089624.0
21:56:14.098,6089828.0
21:56:14.138,6090112.0
21:56:14.178,6090441.0
21:56:14.218,6091212.0
21:56:14.258,6091956.0
21:56:14.298,6090773.0
21:56:14.338,6089448.0
21:56:14.378,6089361.0
21:56:14.418,6089438.0
21:56:14.458,6089521.0
21:56:14.498,6089604.0
21:56:14.538,6089693.0
21:56:14.578,6090106.0
21:56:14.618,6089695.0
21:56:14.658,6089098.0
21:56:14.698,6089001.0
21:56:14.738,6089579.0
21:56:14.778,6088121.0
21:56:14.818,6089625.0
21:56:14.858,6089862.0
21:56:14.898,6090236.0
21:56:14.938,6090994.0
21:56:14.978,6091939.0
21:56:15.018,6091119.0
21:56:17.069,6089569.0
21:56:17.109,6089114.0
21:56:17.149,6089530.0
21:56:17.189,6089751.0
21:56:17.229,6089127.0
21:56:17.269,6088860.0
21:56:17.309,6088765.0
21:56:17.349,6090964.0
21:56:17.389,6090229.0
21:56:17.429,6089615.0
21:56:17.469,6089794.0
21:56:17.509,6090307.0
21:56:17.549,6091133.0
21:56:17.589,6091497.0
21:56:17.629,6090147.0
21:56:17.669,6089250.0
21:56:17.709,6089065.0
21:56:17.749,6089112.0
21:56:17.789,6089174.0
21:56:17.829,6089280.0
21:56:17.869,6089392.0
21:56:17.909,6089509.0
21:56:17.949,6089001.0
21:56:17.989,6088826.0
21:56:18.029,6088931.0
21:56:18.069,6088617.0
21:56:18.109,6089862.0
21:56:18.149,6089776.0
21:56:18.189,6090129.0
21:56:18.229,6090819.0
21:56:18.269,6091653.0
21:56:18.309,6091640.0
21:56:18.349,6090038.0
21:56:18.389,6089580.0
21:56:18.429,6089521.0
21:56:18.469,6089685.0
21:56:18.509,6089670.0
21:56:18.549,6089617.0
21:56:18.589,6089822.0
21:56:18.629,6090182.0
21:56:18.669,6089411.0
21:56:18.709,6089176.0
21:56:18.749,6089182.0
21:56:18.789,6090571.0
21:56:18.829,6090235.0
21:56:18.869,6089882.0
21:56:18.909,6090153.0
21:56:18.949,6090704.0
21:56:18.989,6091636.0
21:56:19.029,6091809.0
21:56:19.069,6090351.0
21:56:19.109,6089468.0
21:56:19.149,6089515.0
21:56:19.189,6089579.0
21:56:19.229,6089706.0
21:56:19.269,6089533.0
21:56:19.309,6089779.0
21:56:19.349,6090125.0
21:56:19.389,6089336.0
21:56:19.429,6089167.0
21:56:19.469,6089116.0
21:56:19.509,6091479.0
21:56:19.549,6090375.0
21:56:19.589,6089927.0
21:56:19.629,6090157.0
21:56:19.669,6090634.0
21:56:19.709,6091510.0
21:56:19.749,6091763.0
21:56:19.789,6090424.0
21:56:19.829,6089416.0
21:56:19.869,6089303.0
21:56:19.909,6089334.0
21:56:19.949,6089519.0
21:56:19.989,6089304.0
21:56:20.029,6089290.0
21:56:20.069,6089628.0
21:56:20.109,6089431.0
21:56:20.149,6089097.0
21:56:20.189,6088937.0
21:56:20.229,6089263.0
21:56:20.269,6088118.0
21:56:20.309,6089485.0
21:56:20.349,6089617.0
21:56:20.389,6089944.0
21:56:20.429,6090703.0
21:56:20.469,6091424.0
21:56:20.509,6091061.0
21:56:20.549,6089518.0
21:56:20.589,6089149.0
21:56:20.629,6089203.0
21:56:20.669,6089316.0
21:56:20.709,6089293.0
21:56:20.749,6089430.0
21:56:20.789,6089608.0
21:56:20.829,6089182.0
21:56:20.869,6088958.0
21:56:20.909,6088817.0
21:56:20.949,6090520.0
21:56:20.989,6089224.0
21:56:21.029,6089482.0
21:56:21.397,6089769.0
21:56:21.437,6089191.0
21:56:21.477,6089541.0
21:56:21.517,6089414.0
21:56:21.557,6088894.0
21:56:21.597,6088849.0
21:56:21.637,6088980.0
21:56:21.677,6087502.0
21:56:21.717,6089646.0
21:56:21.757,6089507.0
21:56:21.797,6089820.0
21:56:21.837,6090486.0
21:56:21.877,6091393.0
21:56:21.917,6091176.0
21:56:21.957,6089669.0
21:56:21.997,6089093.0
21:56:22.037,6089231.0
