Time,Ecg
21:17:48.042,6142755.0
21:17:48.082,6143288.0
21:17:48.122,6144067.0
21:17:48.162,6144663.0
21:17:48.202,6145355.0
21:17:48.242,6146029.0
21:17:48.282,6146802.0
21:17:48.322,6147544.0
21:17:48.362,6147664.0
21:17:48.402,6147628.0
21:17:48.442,6148037.0
21:17:48.482,6148835.0
21:17:48.522,6148095.0
21:17:48.562,6148099.0
21:17:48.602,6148063.0
21:17:48.642,6148117.0
21:17:48.682,6150506.0
21:17:48.722,6151699.0
21:17:48.762,6154113.0
21:17:48.802,6155450.0
21:17:48.842,6155948.0
21:17:48.882,6156912.0
21:17:48.922,6157945.0
21:17:48.962,6156379.0
21:17:49.002,6155034.0
21:17:49.042,6152578.0
21:17:49.082,6144790.0
21:17:49.122,6144368.0
21:17:49.162,6143819.0
21:17:49.202,6143175.0
21:17:49.242,6141932.0
21:17:49.282,6138951.0
21:17:49.322,6139180.0
21:17:49.362,6140808.0
21:17:49.402,6141277.0
21:17:49.442,6142909.0
21:17:49.482,6143508.0
21:17:49.522,6140173.0
21:17:49.562,6141968.0
21:17:49.602,6143940.0
21:17:49.642,6144631.0
21:17:49.682,6145004.0
21:17:49.722,6145198.0
21:17:49.762,6144721.0
21:17:49.802,6145221.0
21:17:49.842,6145295.0
21:17:49.882,6144624.0
21:17:49.922,6143296.0
21:17:49.962,6142993.0
21:17:50.002,6144005.0
21:17:50.042,6147954.0
21:17:50.082,6146901.0
21:17:50.122,6147657.0
21:17:50.162,6148402.0
21:17:50.202,6150144.0
21:17:50.242,6151504.0
21:17:50.282,6151336.0
21:17:50.322,6150272.0
21:17:50.362,6149572.0
21:17:50.402,6149012.0
21:17:50.442,6148827.0
21:17:50.482,6148870.0
21:17:50.522,6148484.0
21:17:50.562,6148488.0
21:17:50.602,6148620.0
21:17:50.642,6148274.0
21:17:50.682,6147424.0
21:17:50.722,6147041.0
21:17:50.762,6147014.0
21:17:50.802,6147688.0
21:17:50.842,6146565.0
21:17:50.882,6146197.0
21:17:50.922,6146205.0
21:17:50.962,6146680.0
21:17:51.002,6147253.0
21:17:51.042,6146173.0
21:17:51.082,6145053.0
21:17:51.122,6144612.0
21:17:51.162,6144035.0
21:17:51.202,6143191.0
21:17:51.242,6141467.0
21:17:51.282,6139668.0
21:17:51.322,6138598.0
21:17:51.362,6137490.0
21:17:51.402,6136409.0
21:17:51.442,6135356.0
21:17:51.482,6137597.0
21:17:51.522,6134907.0
21:17:51.562,6134171.0
21:17:51.602,6134322.0
21:17:51.642,6135175.0
21:17:51.682,6136182.0
21:17:51.722,6136053.0
21:17:51.762,6134979.0
21:17:51.802,6134687.0
21:17:51.842,6134791.0
21:17:51.882,6134731.0
21:17:51.922,6134545.0
21:17:51.962,6133847.0
21:17:52.002,6133741.0
21:17:52.351,6134457.0
21:17:52.391,6133781.0
21:17:52.431,6133736.0
21:17:52.471,6134068.0
21:17:52.511,6134837.0
21:17:52.551,6135002.0
21:17:52.591,6134214.0
21:17:52.631,6133737.0
21:17:52.671,6133652.0
21:17:52.711,6133529.0
21:17:52.751,6133623.0
21:17:52.791,6133898.0
21:17:52.831,6134330.0
21:17:52.871,6134324.0
21:17:52.911,6134699.0
21:17:52.951,6135078.0
21:17:52.991,6137392.0
21:17:53.031,6136426.0
21:17:53.071,6136590.0
21:17:53.111,6137187.0
21:17:53.151,6138293.0
21:17:53.191,6139974.0
21:17:53.231,6140833.0
21:17:53.271,6140671.0
21:17:53.311,6140928.0
21:17:53.351,6141692.0
21:17:53.391,6142190.0
21:17:53.431,6142727.0
21:17:53.471,6143086.0
21:17:53.511,6143376.0
21:17:53.551,6143294.0
21:17:53.591,6143597.0
21:17:53.631,6143663.0
21:17:53.671,6146114.0
21:17:53.711,6144347.0
21:17:53.751,6144607.0
21:17:53.791,6144978.0
21:17:53.831,6145789.0
21:17:53.871,6146710.0
21:17:53.911,6146824.0
21:17:53.951,6146023.0
21:17:53.991,6145985.0
21:17:54.031,6146508.0
21:17:54.071,6146822.0
21:17:54.111,6146767.0
21:17:54.151,6146592.0
21:17:54.191,6146912.0
21:17:54.231,6146368.0
21:17:54.271,6146073.0
21:17:54.311,6146323.0
21:17:54.351,6146361.0
21:17:54.391,6145733.0
21:17:54.431,6145687.0
21:17:54.471,6146026.0
21:17:54.511,6146231.0
21:17:54.551,6146957.0
21:17:54.591,6146078.0
21:17:54.631,6145112.0
21:17:54.671,6144586.0
21:17:54.711,6144341.0
21:17:54.751,6144101.0
21:17:54.791,6143826.0
21:17:54.831,6143636.0
21:17:54.871,6142754.0
21:17:54.911,6142582.0
21:17:54.951,6142174.0
21:17:54.991,6142322.0
21:17:55.031,6141269.0
21:17:55.071,6140746.0
21:17:55.111,6140564.0
21:17:55.151,6140824.0
21:17:55.191,6140917.0
21:17:55.231,6139939.0
21:17:55.271,6139000.0
21:17:55.311,6138832.0
21:17:55.351,6138578.0
21:17:55.391,6138377.0
21:17:55.431,6138187.0
21:17:55.471,6137849.0
21:17:55.511,6137695.0
21:17:55.551,6137201.0
21:17:55.591,6137169.0
21:17:55.631,6136770.0
21:17:55.671,6138919.0
21:17:55.711,6137088.0
21:17:55.751,6136812.0
21:17:55.791,6136998.0
21:17:55.831,6137282.0
21:17:55.871,6137737.0
21:17:55.911,6137118.0
21:17:55.951,6136063.0
21:17:55.991,6135525.0
21:17:56.031,6134202.0
21:17:56.071,6132977.0
21:17:56.111,6131882.0
21:17:56.151,6131465.0
21:17:56.191,6131361.0
21:17:56.231,6131497.0
21:17:56.271,6130991.0
21:17:56.311,6131135.0
21:17:56.552,6130937.0
21:17:56.592,6132897.0
21:17:56.632,6131738.0
21:17:56.672,6131391.0
21:17:56.712,6131482.0
21:17:56.752,6131752.0
21:17:56.792,6131741.0
21:17:56.832,6131608.0
21:17:56.872,6131749.0
21:17:56.912,6132032.0
21:17:56.952,6131829.0
21:17:56.992,6131582.0
21:17:57.032,6131641.0
21:17:57.072,6133825.0
21:17:57.112,6132225.0
21:17:57.152,6131928.0
21:17:57.192,6132076.0
21:17:57.232,6132756.0
21:17:57.272,6133717.0
21:17:57.312,6133438.0
21:17:57.352,6132238.0
21:17:57.392,6131810.0
21:17:57.432,6131728.0
21:17:57.472,6131801.0
21:17:57.512,6131661.0
21:17:57.552,6131607.0
21:17:57.592,6131499.0
21:17:57.632,6131471.0
21:17:57.672,6131562.0
21:17:57.712,6131931.0
21:17:57.752,6131361.0
21:17:57.792,6131153.0
21:17:57.832,6131101.0
21:17:57.872,6133564.0
21:17:57.912,6131996.0
21:17:57.952,6131576.0
21:17:57.992,6131897.0
21:17:58.032,6132342.0
21:17:58.072,6133425.0
21:17:58.112,6133575.0
21:17:58.152,6132622.0
21:17:58.192,6132301.0
21:17:58.232,6132314.0
21:17:58.272,6132254.0
21:17:58.312,6132217.0
21:17:58.352,6132070.0
21:17:58.392,6131965.0
21:17:58.432,6131897.0
21:17:58.472,6131800.0
21:17:58.512,6131653.0
21:17:58.552,6131824.0
21:17:58.592,6131973.0
21:17:58.632,6131428.0
21:17:58.672,6131477.0
21:17:58.712,6131392.0
21:17:58.752,6133842.0
21:17:58.792,6132258.0
21:17:58.832,6132402.0
21:17:58.872,6133028.0
21:17:58.912,6133545.0
21:17:58.952,6134995.0
21:17:58.992,6135115.0
21:17:59.032,6134069.0
21:17:59.072,6135592.0
21:17:59.112,6134657.0
21:17:59.152,6135294.0
21:17:59.192,6135469.0
21:17:59.232,6135614.0
21:17:59.272,6135923.0
21:17:59.312,6136028.0
21:17:59.352,6136040.0
21:17:59.392,6136456.0
21:17:59.432,6135717.0
21:17:59.472,6135833.0
21:17:59.512,6135943.0
21:17:59.552,6137214.0
21:17:59.592,6136302.0
21:17:59.632,6136199.0
21:17:59.672,6136544.0
21:17:59.712,6136911.0
21:17:59.752,6137524.0
21:17:59.792,6136877.0
21:17:59.832,6135763.0
21:17:59.872,6135311.0
21:17:59.912,6135196.0
21:17:59.952,6134992.0
21:17:59.992,6134676.0
21:18:00.032,6134435.0
21:18:00.072,6134218.0
21:18:00.112,6134318.0
21:18:00.152,6134161.0
21:18:00.192,6133528.0
21:18:00.232,6133329.0
21:18:00.272,6134176.0
21:18:00.312,6133783.0
21:18:00.352,6133308.0
21:18:00.392,6133336.0
21:18:00.432,6133485.0
21:18:00.472,6134151.0
21:18:00.512,6134622.0
21:18:01.060,6133632.0
21:18:01.100,6133115.0
21:18:01.140,6133216.0
21:18:01.180,6133415.0
21:18:01.220,6133938.0
21:18:01.260,6134102.0
21:18:01.300,6133902.0
21:18:01.340,6134086.0
21:18:01.380,6134645.0
21:18:01.420,6134401.0
21:18:01.460,6134650.0
21:18:01.500,6135010.0
21:18:01.540,6135335.0
21:18:01.580,6136136.0
21:18:01.620,6136807.0
21:18:01.660,6136000.0
21:18:01.700,6135070.0
21:18:01.740,6134692.0
21:18:01.780,6134533.0
21:18:01.820,6134247.0
21:18:01.860,6133993.0
21:18:01.900,6133733.0
21:18:01.940,6133609.0
21:18:01.980,6133714.0
21:18:02.020,6133080.0
21:18:02.060,6132810.0
21:18:02.100,6132633.0
21:18:02.140,6133205.0
21:18:02.180,6132355.0
21:18:02.220,6132212.0
21:18:02.260,6132254.0
21:18:02.300,6132645.0
21:18:02.340,6133332.0
21:18:02.380,6132461.0
21:18:02.420,6131354.0
21:18:02.460,6130993.0
21:18:02.500,6130804.0
21:18:02.540,6130626.0
21:18:02.580,6130463.0
21:18:02.620,6130115.0
21:18:02.660,6129959.0
21:18:02.700,6129926.0
21:18:02.740,6130008.0
21:18:02.780,6129443.0
21:18:02.820,6129310.0
21:18:02.860,6129570.0
21:18:02.900,6130617.0
21:18:02.940,6129819.0
21:18:02.980,6130184.0
21:18:03.020,6130574.0
21:18:03.060,6131343.0
21:18:03.100,6132193.0
21:18:03.140,6131676.0
21:18:03.180,6130805.0
21:18:03.220,6130786.0
21:18:03.260,6130966.0
21:18:03.300,6131107.0
21:18:03.340,6131151.0
21:18:03.380,6131341.0
21:18:03.420,6131685.0
21:18:03.460,6131676.0
21:18:03.500,6131260.0
21:18:03.540,6131377.0
21:18:03.580,6131197.0
21:18:03.620,6133271.0
21:18:03.660,6131903.0
21:18:03.700,6131840.0
21:18:03.740,6132269.0
21:18:03.780,6132828.0
21:18:03.820,6133683.0
21:18:03.860,6133299.0
21:18:03.900,6132159.0
21:18:03.940,6131733.0
21:18:03.980,6131534.0
21:18:04.020,6131347.0
21:18:04.060,6131294.0
21:18:04.100,6130851.0
21:18:04.140,6130895.0
21:18:04.180,6130842.0
21:18:04.220,6130219.0
21:18:04.260,6130059.0
21:18:04.300,6130487.0
21:18:04.340,6130457.0
21:18:04.380,6129688.0
21:18:04.420,6129745.0
21:18:04.460,6129797.0
21:18:04.500,6130424.0
21:18:04.540,6130895.0
21:18:04.580,6129967.0
21:18:04.620,6129069.0
21:18:04.660,6128929.0
21:18:04.700,6128882.0
21:18:04.740,6128964.0
21:18:04.780,6128934.0
21:18:04.820,6129030.0
21:18:04.860,6128887.0
21:18:04.900,6129441.0
21:18:04.940,6129479.0
21:18:04.980,6129285.0
21:18:05.020,6129275.0
21:18:05.361,6130049.0
21:18:05.401,6130858.0
21:18:05.441,6130414.0
21:18:05.481,6130190.0
21:18:05.521,6130217.0
21:18:05.561,6130104.0
21:18:05.601,6129767.0
21:18:05.641,6129582.0
21:18:05.681,6129474.0
21:18:05.721,6128778.0
21:18:05.761,6128523.0
21:18:05.801,6128121.0
21:18:05.841,6130412.0
21:18:05.881,6128255.0
21:18:05.921,6127892.0
21:18:05.961,6128012.0
21:18:06.001,6128236.0
21:18:06.041,6129055.0
21:18:06.081,6128814.0
21:18:06.121,6127572.0
21:18:06.161,6127062.0
21:18:06.201,6126902.0
21:18:06.241,6126940.0
21:18:06.281,6126910.0
21:18:06.321,6126899.0
21:18:06.361,6127051.0
21:18:06.401,6127092.0
21:18:06.441,6127345.0
21:18:06.481,6128088.0
21:18:06.521,6127691.0
21:18:06.561,6127740.0
21:18:06.601,6127723.0
21:18:06.641,6129750.0
21:18:06.681,6128720.0
21:18:06.721,6128290.0
21:18:06.761,6128488.0
21:18:06.801,6128882.0
21:18:06.841,6129563.0
21:18:06.881,6129837.0
21:18:06.921,6128794.0
21:18:06.961,6128223.0
21:18:07.001,6128170.0
21:18:07.041,6128022.0
21:18:07.081,6127862.0
21:18:07.121,6127397.0
21:18:07.161,6126948.0
21:18:07.201,6126844.0
21:18:07.241,6126657.0
21:18:07.281,6126066.0
21:18:07.321,6125814.0
21:18:07.361,6125971.0
21:18:07.401,6124981.0
21:18:07.441,6124538.0
21:18:07.481,6124151.0
21:18:07.521,6124003.0
21:18:07.561,6124322.0
21:18:07.601,6124464.0
21:18:07.641,6123231.0
21:18:07.681,6121976.0
21:18:07.721,6121429.0
21:18:07.761,6121305.0
21:18:07.801,6121120.0
21:18:07.841,6121036.0
21:18:07.881,6120835.0
21:18:07.921,6120795.0
21:18:07.961,6120772.0
21:18:08.001,6120919.0
21:18:08.041,6121065.0
21:18:08.081,6120652.0
21:18:08.121,6120626.0
21:18:08.161,6120726.0
21:18:08.201,6123673.0
21:18:08.241,6121742.0
21:18:08.281,6121848.0
21:18:08.321,6122469.0
21:18:08.361,6123303.0
21:18:08.401,6124391.0
21:18:08.441,6125007.0
21:18:08.481,6123684.0
21:18:08.521,6123661.0
21:18:08.561,6123749.0
21:18:08.601,6124019.0
21:18:08.641,6124289.0
21:18:08.681,6124386.0
21:18:08.721,6124439.0
21:18:08.761,6124681.0
21:18:08.801,6125002.0
21:18:08.841,6125283.0
21:18:08.881,6125438.0
21:18:08.921,6125178.0
21:18:08.961,6125509.0
21:18:09.001,6125648.0
21:18:09.041,6125464.0
21:18:09.081,6125506.0
21:18:09.121,6125472.0
21:18:09.161,6125742.0
21:18:09.201,6126118.0
21:18:09.241,6125089.0
21:18:09.281,6123850.0
21:18:09.321,6123295.0
21:18:09.863,6123248.0
21:18:09.903,6121580.0
21:18:09.943,6121455.0
21:18:09.983,6122044.0
21:18:10.023,6122079.0
21:18:10.063,6121377.0
21:18:10.103,6121550.0
21:18:10.143,6121986.0
21:18:10.183,6122966.0
21:18:10.223,6123821.0
21:18:10.263,6123243.0
21:18:10.303,6122627.0
21:18:10.343,6122776.0
21:18:10.383,6123028.0
21:18:10.423,6123305.0
21:18:10.463,6123464.0
21:18:10.503,6123520.0
21:18:10.543,6123648.0
21:18:10.583,6124033.0
21:18:10.623,6124449.0
21:18:10.663,6124239.0
21:18:10.703,6124429.0
21:18:10.743,6124553.0
21:18:10.783,6126288.0
21:18:10.823,6125280.0
21:18:10.863,6125278.0
21:18:10.903,6125268.0
21:18:10.943,6125314.0
21:18:10.983,6125752.0
21:18:11.023,6125523.0
21:18:11.063,6123921.0
21:18:11.103,6122988.0
21:18:11.143,6122598.0
21:18:11.183,6122271.0
21:18:11.223,6121892.0
21:18:11.263,6121572.0
21:18:11.303,6121159.0
21:18:11.343,6120942.0
21:18:11.383,6120748.0
21:18:11.423,6120778.0
21:18:11.463,6120259.0
21:18:11.503,6120002.0
21:18:11.543,6120340.0
21:18:11.583,6120897.0
21:18:11.623,6120134.0
21:18:11.663,6120162.0
21:18:11.703,6120527.0
21:18:11.743,6121290.0
21:18:11.783,6122209.0
21:18:11.823,6121776.0
21:18:11.863,6121193.0
21:18:11.903,6121136.0
21:18:11.943,6121355.0
21:18:11.983,6121407.0
21:18:12.023,6121632.0
21:18:12.063,6121623.0
21:18:12.103,6121939.0
21:18:12.143,6122308.0
21:18:12.183,6122073.0
21:18:12.223,6122069.0
21:18:12.263,6122179.0
21:18:12.303,6123893.0
21:18:12.343,6122429.0
21:18:12.383,6121878.0
21:18:12.423,6121565.0
21:18:12.463,6121637.0
21:18:12.503,6122183.0
21:18:12.543,6122094.0
21:18:12.583,6120740.0
21:18:12.623,6119831.0
21:18:12.663,6119569.0
21:18:12.703,6119363.0
21:18:12.743,6119049.0
21:18:12.783,6118609.0
21:18:12.823,6118239.0
21:18:12.863,6118205.0
21:18:12.903,6118142.0
21:18:12.943,6117560.0
21:18:12.983,6117414.0
21:18:13.023,6117416.0
21:18:13.063,6120114.0
21:18:13.103,6118359.0
21:18:13.143,6118333.0
21:18:13.183,6118855.0
21:18:13.223,6119584.0
21:18:13.263,6120842.0
21:18:13.303,6120813.0
21:18:13.343,6120015.0
21:18:13.383,6119838.0
21:18:13.423,6120059.0
21:18:13.463,6120048.0
21:18:13.503,6119959.0
21:18:13.543,6119782.0
21:18:13.583,6119982.0
21:18:13.623,6119994.0
21:18:13.663,6119410.0
21:18:13.703,6119350.0
21:18:13.743,6119791.0
21:18:13.783,6118943.0
21:18:13.823,6119239.0
21:18:14.148,6118870.0
21:18:14.188,6116421.0
21:18:14.228,6116217.0
21:18:14.268,6115972.0
21:18:14.308,6116272.0
21:18:14.348,6116418.0
21:18:14.388,6115765.0
21:18:14.428,6115608.0
21:18:14.468,6115389.0
21:18:14.508,6118199.0
21:18:14.548,6115882.0
21:18:14.588,6115787.0
21:18:14.628,6116098.0
21:18:14.668,6116771.0
21:18:14.708,6117874.0
21:18:14.748,6117840.0
21:18:14.788,6116799.0
21:18:14.828,6116603.0
21:18:14.868,6116771.0
21:18:14.908,6117013.0
21:18:14.948,6117053.0
21:18:14.988,6117073.0
21:18:15.028,6117246.0
21:18:15.068,6117405.0
21:18:15.108,6117709.0
21:18:15.148,6117421.0
21:18:15.188,6117334.0
21:18:15.228,6117608.0
21:18:15.268,6119878.0
21:18:15.308,6118468.0
21:18:15.348,6118559.0
21:18:15.388,6118826.0
21:18:15.428,6119623.0
21:18:15.468,6120604.0
21:18:15.508,6120874.0
21:18:15.548,6119881.0
21:18:15.588,6119607.0
21:18:15.628,6119581.0
21:18:15.668,6119935.0
21:18:15.708,6120115.0
21:18:15.748,6120040.0
21:18:15.788,6120041.0
21:18:15.828,6120340.0
21:18:15.868,6120377.0
21:18:15.908,6120155.0
21:18:15.948,6119989.0
21:18:15.988,6119860.0
21:18:16.028,6122069.0
21:18:16.068,6119922.0
21:18:16.108,6119789.0
21:18:16.148,6119862.0
21:18:16.188,6120214.0
21:18:16.228,6121078.0
21:18:16.268,6120775.0
21:18:16.308,6119294.0
21:18:16.348,6118707.0
21:18:16.388,6118383.0
21:18:16.428,6118198.0
21:18:16.468,6118054.0
21:18:16.508,6117776.0
21:18:16.548,6117491.0
21:18:16.588,6117264.0
21:18:16.628,6117108.0
21:18:16.668,6117344.0
21:18:16.708,6116707.0
21:18:16.748,6116255.0
21:18:16.788,6116134.0
21:18:16.828,6118015.0
21:18:16.868,6116862.0
21:18:16.908,6115867.0
21:18:16.948,6116022.0
21:18:16.988,6116276.0
21:18:17.028,6117104.0
21:18:17.068,6117261.0
21:18:17.108,6116244.0
21:18:17.148,6115511.0
21:18:17.188,6115390.0
21:18:17.228,6115440.0
21:18:17.268,6115357.0
21:18:17.308,6115250.0
21:18:17.348,6115069.0
21:18:17.388,6114907.0
21:18:17.428,6114772.0
21:18:17.468,6114680.0
21:18:17.508,6114574.0
21:18:17.548,6114747.0
21:18:17.588,6114752.0
21:18:17.628,6114425.0
21:18:17.668,6114426.0
21:18:17.708,6114520.0
21:18:17.748,6116584.0
21:18:17.788,6115390.0
21:18:17.828,6115625.0
21:18:17.868,6116154.0
21:18:17.908,6116851.0
21:18:17.948,6117786.0
21:18:17.988,6117615.0
21:18:18.028,6116476.0
21:18:18.068,6116262.0
21:18:18.108,6116140.0
21:18:18.468,6115865.0
21:18:18.508,6110892.0
21:18:18.548,6110261.0
21:18:18.588,6109978.0
21:18:18.628,6111289.0
21:18:18.668,6110408.0
21:18:18.708,6110605.0
21:18:18.748,6110729.0
21:18:18.788,6111175.0
21:18:18.828,6112048.0
21:18:18.868,6111474.0
21:18:18.908,6110732.0
21:18:18.948,6109833.0
21:18:18.988,6109795.0
21:18:19.028,6109945.0
21:18:19.068,6110239.0
21:18:19.108,6110363.0
21:18:19.148,6110482.0
21:18:19.188,6110494.0
21:18:19.228,6110566.0
21:18:19.268,6110828.0
21:18:19.308,6110899.0
21:18:19.348,6110321.0
21:18:19.388,6110118.0
21:18:19.428,6110082.0
21:18:19.468,6112632.0
21:18:19.508,6110821.0
21:18:19.548,6110530.0
21:18:19.588,6111113.0
21:18:19.628,6111800.0
21:18:19.668,6113400.0
21:18:19.708,6113407.0
21:18:19.748,6112673.0
21:18:19.788,6112346.0
21:18:19.828,6112620.0
21:18:19.868,6112962.0
21:18:19.908,6113397.0
21:18:19.948,6113691.0
21:18:19.988,6113988.0
21:18:20.028,6114304.0
21:18:20.068,6114955.0
21:18:20.108,6115549.0
21:18:20.148,6115733.0
21:18:20.188,6116392.0
21:18:20.228,6117526.0
21:18:20.268,6118097.0
21:18:20.308,6119225.0
21:18:20.348,6120817.0
21:18:20.388,6122631.0
21:18:20.428,6124294.0
21:18:20.468,6124428.0
21:18:20.508,6124073.0
21:18:20.548,6124545.0
21:18:20.588,6125572.0
21:18:20.628,6126727.0
21:18:20.668,6127211.0
21:18:20.708,6127176.0
21:18:20.748,6127762.0
21:18:20.788,6128005.0
21:18:20.828,6128494.0
21:18:20.868,6129310.0
21:18:20.908,6131717.0
21:18:20.948,6130863.0
21:18:20.988,6130657.0
21:18:21.028,6131221.0
21:18:21.068,6131493.0
21:18:21.108,6131967.0
21:18:21.148,6132059.0
21:18:21.188,6131077.0
21:18:21.228,6130639.0
21:18:21.268,6130543.0
21:18:21.308,6130424.0
21:18:21.348,6129869.0
21:18:21.388,6128968.0
21:18:21.428,6128307.0
21:18:21.468,6127410.0
21:18:21.508,6126543.0
21:18:21.548,6125273.0
21:18:21.588,6124301.0
21:18:21.628,6123458.0
21:18:21.668,6124023.0
21:18:21.708,6121983.0
21:18:21.748,6121238.0
21:18:21.788,6120872.0
21:18:21.828,6120940.0
21:18:21.868,6120950.0
21:18:21.908,6119877.0
21:18:21.948,6118333.0
21:18:21.988,6117419.0
21:18:22.028,6116881.0
21:18:22.068,6116444.0
21:18:22.108,6115801.0
21:18:22.148,6115161.0
21:18:22.188,6115011.0
21:18:22.228,6114592.0
21:18:22.268,6114034.0
21:18:22.308,6113341.0
21:18:22.348,6112834.0
21:18:22.388,6115005.0
21:18:22.428,6113025.0
21:18:22.971,6112669.0
21:18:23.011,6111648.0
21:18:23.051,6111549.0
21:18:23.091,6111487.0
21:18:23.131,6111260.0
21:18:23.171,6111106.0
21:18:23.211,6111078.0
21:18:23.251,6111686.0
21:18:23.291,6111114.0
21:18:23.331,6110543.0
21:18:23.371,6110279.0
21:18:23.411,6111840.0
21:18:23.451,6110679.0
21:18:23.491,6109798.0
21:18:23.531,6109670.0
21:18:23.571,6110037.0
21:18:23.611,6110553.0
21:18:23.651,6110997.0
21:18:23.691,6110179.0
21:18:23.731,6109321.0
21:18:23.771,6109050.0
21:18:23.811,6108752.0
21:18:23.851,6108643.0
21:18:23.891,6108327.0
21:18:23.931,6108134.0
21:18:23.971,6107772.0
21:18:24.011,6107784.0
21:18:24.051,6107688.0
21:18:24.091,6107005.0
21:18:24.131,6106644.0
21:18:24.171,6106405.0
21:18:24.211,6108418.0
21:18:24.251,6106882.0
21:18:24.291,6106584.0
21:18:24.331,6106777.0
21:18:24.371,6107263.0
21:18:24.411,6108102.0
21:18:24.451,6108224.0
21:18:24.491,6107282.0
21:18:24.531,6106802.0
21:18:24.571,6106770.0
21:18:24.611,6106794.0
21:18:24.651,6106722.0
21:18:24.691,6106606.0
21:18:24.731,6106409.0
21:18:24.771,6106512.0
21:18:24.811,6106553.0
21:18:24.851,6106121.0
21:18:24.891,6105905.0
21:18:24.931,6105778.0
21:18:24.971,6107745.0
21:18:25.011,6106492.0
21:18:25.051,6106110.0
21:18:25.091,6106258.0
21:18:25.131,6106679.0
21:18:25.171,6107584.0
21:18:25.211,6108008.0
21:18:25.251,6106716.0
21:18:25.291,6106268.0
21:18:25.331,6106285.0
21:18:25.371,6106421.0
21:18:25.411,6106228.0
21:18:25.451,6106149.0
21:18:25.491,6106087.0
21:18:25.531,6106139.0
21:18:25.571,6106580.0
21:18:25.611,6105895.0
21:18:25.651,6105569.0
21:18:25.691,6105446.0
21:18:25.731,6107483.0
21:18:25.771,6106361.0
21:18:25.811,6105782.0
21:18:25.851,6105833.0
21:18:25.891,6106215.0
21:18:25.931,6107070.0
21:18:25.971,6107453.0
21:18:26.011,6106375.0
21:18:26.051,6105850.0
21:18:26.091,6105797.0
21:18:26.131,6105880.0
21:18:26.171,6105741.0
21:18:26.211,6105829.0
21:18:26.251,6105661.0
21:18:26.291,6105641.0
21:18:26.331,6105817.0
21:18:26.371,6105847.0
21:18:26.411,6105252.0
21:18:26.451,6105168.0
21:18:26.491,6105314.0
21:18:26.531,6106015.0
21:18:26.571,6105241.0
21:18:26.611,6105401.0
21:18:26.651,6105689.0
21:18:26.691,6106287.0
21:18:26.731,6107116.0
21:18:26.771,6106731.0
21:18:26.811,6105659.0
21:18:26.851,6105610.0
21:18:26.891,6105665.0
21:18:26.931,6105739.0
21:18:27.256,6105692.0
21:18:27.296,6106488.0
21:18:27.336,6105509.0
21:18:27.376,6105752.0
21:18:27.416,6106229.0
21:18:27.456,6106981.0
21:18:27.496,6108021.0
21:18:27.536,6107729.0
21:18:27.576,6106953.0
21:18:27.616,6106829.0
21:18:27.656,6106963.0
21:18:27.696,6107221.0
21:18:27.736,6107467.0
21:18:27.776,6107432.0
21:18:27.816,6107536.0
21:18:27.856,6107726.0
21:18:27.896,6108284.0
21:18:27.936,6107776.0
21:18:27.976,6107998.0
21:18:28.016,6107926.0
21:18:28.056,6109872.0
21:18:28.096,6108660.0
21:18:28.136,6108327.0
21:18:28.176,6106648.0
21:18:28.216,6109498.0
21:18:28.256,6109693.0
21:18:28.296,6110360.0
21:18:28.336,6110807.0
21:18:28.376,6109273.0
21:18:28.416,6110484.0
21:18:28.456,6110840.0
21:18:28.496,6110548.0
21:18:28.536,6109914.0
21:18:28.576,6110498.0
21:18:28.616,6110496.0
21:18:28.656,6111722.0
21:18:28.696,6109815.0
21:18:28.736,6111274.0
21:18:28.776,6111262.0
21:18:28.816,6113275.0
21:18:28.856,6113394.0
21:18:28.896,6111952.0
21:18:28.936,6112607.0
21:18:28.976,6114088.0
21:18:29.016,6113764.0
21:18:29.056,6115065.0
21:18:29.096,6115028.0
21:18:29.136,6114378.0
21:18:29.176,6113425.0
21:18:29.216,6112629.0
21:18:29.256,6114088.0
21:18:29.296,6115124.0
21:18:29.336,6114507.0
21:18:29.376,6114779.0
21:18:29.416,6114744.0
21:18:29.456,6114479.0
21:18:29.496,6114933.0
21:18:29.536,6117744.0
21:18:29.576,6116094.0
21:18:29.616,6115586.0
21:18:29.656,6116468.0
21:18:29.696,6116924.0
21:18:29.736,6117580.0
21:18:29.776,6118403.0
21:18:29.816,6116983.0
21:18:29.856,6116291.0
21:18:29.896,6116552.0
21:18:29.936,6116961.0
21:18:29.976,6117046.0
21:18:30.016,6117337.0
21:18:30.056,6117017.0
21:18:30.096,6116984.0
21:18:30.136,6117739.0
21:18:30.176,6117466.0
21:18:30.216,6116971.0
21:18:30.256,6117302.0
21:18:30.296,6118782.0
21:18:30.336,6118380.0
21:18:30.376,6117487.0
21:18:30.416,6117758.0
21:18:30.456,6118420.0
21:18:30.496,6118381.0
21:18:30.536,6118907.0
21:18:30.576,6118015.0
21:18:30.616,6117416.0
21:18:30.656,6117514.0
21:18:30.696,6117668.0
21:18:30.736,6117923.0
21:18:30.776,6117703.0
21:18:30.816,6117026.0
21:18:30.856,6117535.0
21:18:30.896,6118000.0
21:18:30.936,6117359.0
21:18:30.976,6117440.0
21:18:31.016,6117755.0
21:18:31.056,6119057.0
21:18:31.096,6118139.0
21:18:31.136,6117944.0
21:18:31.176,6117641.0
21:18:31.216,6118040.0
21:18:31.986,6119219.0
21:18:32.026,6117809.0
21:18:32.066,6117539.0
21:18:32.106,6117912.0
21:18:32.146,6118293.0
21:18:32.186,6117922.0
21:18:32.226,6117775.0
21:18:32.266,6118116.0
21:18:32.306,6118294.0
21:18:32.346,6118603.0
21:18:32.386,6119586.0
21:18:32.426,6118596.0
21:18:32.466,6118131.0
21:18:32.506,6117736.0
21:18:32.546,6117781.0
21:18:32.586,6117616.0
21:18:32.626,6117944.0
21:18:32.666,6117831.0
21:18:32.706,6118333.0
21:18:32.746,6117934.0
21:18:32.786,6117589.0
21:18:32.826,6117636.0
21:18:32.866,6118141.0
21:18:32.906,6117723.0
21:18:32.946,6117883.0
21:18:32.986,6117888.0
21:18:33.026,6118469.0
21:18:33.066,6118838.0
21:18:33.106,6118788.0
21:18:33.146,6118473.0
21:18:33.186,6117729.0
21:18:33.226,6117750.0
21:18:33.266,6117716.0
21:18:33.306,6117761.0
21:18:33.346,6117429.0
21:18:33.386,6117598.0
21:18:33.426,6117234.0
21:18:33.466,6117518.0
21:18:33.506,6117460.0
21:18:33.546,6117331.0
21:18:33.586,6118002.0
21:18:33.626,6117066.0
21:18:33.666,6119562.0
21:18:33.706,6117622.0
21:18:33.746,6117783.0
21:18:33.786,6117853.0
21:18:33.826,6118061.0
21:18:33.866,6118388.0
21:18:33.906,6118561.0
21:18:33.946,6117692.0
21:18:33.986,6117754.0
21:18:34.026,6117974.0
21:18:34.066,6117135.0
21:18:34.106,6117882.0
21:18:34.146,6117857.0
21:18:34.186,6117847.0
21:18:34.226,6118058.0
21:18:34.266,6117827.0
21:18:34.306,6118444.0
21:18:34.346,6118843.0
21:18:34.386,6118349.0
21:18:34.426,6118271.0
21:18:34.466,6118140.0
21:18:34.506,6120488.0
21:18:34.546,6118843.0
21:18:34.586,6118918.0
21:18:34.626,6118713.0
21:18:34.666,6119098.0
21:18:34.706,6119771.0
21:18:34.746,6120081.0
21:18:34.786,6118874.0
21:18:34.826,6118072.0
21:18:34.866,6118269.0
21:18:34.906,6118917.0
21:18:34.946,6118699.0
21:18:34.986,6118306.0
21:18:35.026,6117950.0
21:18:35.066,6118598.0
21:18:35.106,6118722.0
21:18:35.146,6118392.0
21:18:35.186,6118044.0
21:18:35.226,6118031.0
21:18:35.266,6120218.0
21:18:35.306,6118815.0
21:18:35.346,6118596.0
21:18:35.386,6118923.0
21:18:35.426,6119204.0
21:18:35.466,6119930.0
21:18:35.506,6119972.0
21:18:35.546,6119053.0
21:18:35.586,6118849.0
21:18:35.626,6118860.0
21:18:35.666,6118883.0
21:18:35.706,6119000.0
21:18:35.746,6118870.0
21:18:35.786,6118598.0
21:18:35.826,6118857.0
21:18:35.866,6119515.0
21:18:35.906,6118890.0
21:18:35.946,6118478.0
21:18:36.083,6118549.0
21:18:36.123,6119312.0
21:18:36.163,6119157.0
21:18:36.203,6118951.0
21:18:36.243,6119507.0
21:18:36.283,6119002.0
21:18:36.323,6118989.0
21:18:36.363,6118794.0
21:18:36.403,6119001.0
21:18:36.443,6119213.0
21:18:36.483,6118682.0
21:18:36.523,6118643.0
21:18:36.563,6118230.0
21:18:36.603,6120274.0
21:18:36.643,6119324.0
21:18:36.683,6118812.0
21:18:36.723,6118751.0
21:18:36.763,6119540.0
21:18:36.803,6120159.0
21:18:36.843,6120264.0
21:18:36.883,6119286.0
21:18:36.923,6118785.0
21:18:36.963,6119021.0
21:18:37.003,6118904.0
21:18:37.043,6118469.0
21:18:37.083,6118652.0
21:18:37.123,6118610.0
21:18:37.163,6119254.0
21:18:37.203,6118810.0
21:18:37.243,6118378.0
21:18:37.283,6118363.0
21:18:37.323,6118817.0
21:18:37.363,6118324.0
21:18:37.403,6118702.0
21:18:37.443,6119180.0
21:18:37.483,6119083.0
21:18:37.523,6119650.0
21:18:37.563,6120006.0
21:18:37.603,6119246.0
21:18:37.643,6118299.0
21:18:37.683,6118787.0
21:18:37.723,6118390.0
21:18:37.763,6118545.0
21:18:37.803,6118608.0
21:18:37.843,6118506.0
21:18:37.883,6118385.0
21:18:37.923,6118553.0
21:18:37.963,6117759.0
21:18:38.003,6118244.0
21:18:38.043,6118187.0
21:18:38.083,6119018.0
21:18:38.123,6118295.0
21:18:38.163,6118739.0
21:18:38.203,6118942.0
21:18:38.243,6118916.0
21:18:38.283,6120165.0
21:18:38.323,6119475.0
21:18:38.363,6118782.0
21:18:38.403,6118502.0
21:18:38.443,6118663.0
21:18:38.483,6118836.0
21:18:38.523,6118801.0
21:18:38.563,6118299.0
21:18:38.603,6118872.0
21:18:38.643,6119156.0
21:18:38.683,6117978.0
21:18:38.723,6118240.0
21:18:38.763,6117919.0
21:18:38.803,6120495.0
21:18:38.843,6118812.0
21:18:38.883,6118734.0
21:18:38.923,6118724.0
21:18:38.963,6119412.0
21:18:39.003,6120083.0
21:18:39.043,6120004.0
21:18:39.083,6118874.0
21:18:39.123,6118701.0
21:18:39.163,6118669.0
21:18:39.203,6118929.0
21:18:39.243,6118558.0
21:18:39.283,6118472.0
21:18:39.323,6118789.0
21:18:39.363,6118731.0
21:18:39.403,6118928.0
21:18:39.443,6118635.0
21:18:39.483,6118484.0
21:18:39.523,6118180.0
21:18:39.563,6120271.0
21:18:39.603,6118932.0
21:18:39.643,6118833.0
21:18:39.683,6118612.0
21:18:39.723,6119175.0
21:18:39.763,6120218.0
21:18:39.803,6120228.0
21:18:39.843,6119075.0
21:18:39.883,6118780.0
21:18:39.923,6118777.0
21:18:39.963,6118617.0
21:18:40.003,6118809.0
21:18:40.043,6118602.0
21:18:40.390,6118035.0
21:18:40.430,6118904.0
21:18:40.470,6118620.0
21:18:40.510,6119472.0
21:18:40.550,6120268.0
21:18:40.590,6119794.0
21:18:40.630,6119008.0
21:18:40.670,6118198.0
21:18:40.710,6118600.0
21:18:40.750,6118787.0
21:18:40.790,6118841.0
21:18:40.830,6118817.0
21:18:40.870,6119002.0
21:18:40.910,6118268.0
21:18:40.950,6118535.0
21:18:40.990,6118876.0
21:18:41.030,6118384.0
21:18:41.070,6121076.0
21:18:41.110,6119153.0
21:18:41.150,6119282.0
21:18:41.190,6119517.0
21:18:41.230,6119408.0
21:18:41.270,6120189.0
21:18:41.310,6120683.0
21:18:41.350,6119802.0
21:18:41.390,6119113.0
21:18:41.430,6119901.0
21:18:41.470,6119066.0
21:18:41.510,6118978.0
21:18:41.550,6118962.0
21:18:41.590,6119321.0
21:18:41.630,6119158.0
21:18:41.670,6119163.0
21:18:41.710,6119752.0
21:18:41.750,6119639.0
21:18:41.790,6119364.0
21:18:41.830,6119224.0
21:18:41.870,6119151.0
21:18:41.910,6118976.0
21:18:41.950,6120025.0
21:18:41.990,6119879.0
21:18:42.030,6119355.0
21:18:42.070,6120056.0
21:18:42.110,6120250.0
21:18:42.150,6121269.0
21:18:42.190,6120875.0
21:18:42.230,6119644.0
21:18:42.270,6119155.0
21:18:42.310,6119907.0
21:18:42.350,6119729.0
21:18:42.390,6119605.0
21:18:42.430,6119768.0
21:18:42.470,6119820.0
21:18:42.510,6119898.0
21:18:42.550,6120213.0
21:18:42.590,6119888.0
21:18:42.630,6119410.0
21:18:42.670,6119384.0
21:18:42.710,6118927.0
21:18:42.750,6121344.0
21:18:42.790,6119138.0
21:18:42.830,6119662.0
21:18:42.870,6119611.0
21:18:42.910,6120178.0
21:18:42.950,6120618.0
21:18:42.990,6120715.0
21:18:43.030,6119675.0
21:18:43.070,6119536.0
21:18:43.110,6119361.0
21:18:43.150,6119851.0
21:18:43.190,6119193.0
21:18:43.230,6119425.0
21:18:43.270,6119489.0
21:18:43.310,6119618.0
21:18:43.350,6119643.0
21:18:43.390,6119711.0
21:18:43.430,6119297.0
21:18:43.470,6119386.0
21:18:43.510,6119411.0
21:18:43.550,6120050.0
21:18:43.590,6119474.0
21:18:43.630,6119455.0
21:18:43.670,6119617.0
21:18:43.710,6120083.0
21:18:43.750,6121055.0
21:18:43.790,6120204.0
21:18:43.830,6119604.0
21:18:43.870,6119231.0
21:18:43.910,6119289.0
21:18:43.950,6119468.0
21:18:43.990,6119588.0
21:18:44.030,6119301.0
21:18:44.070,6119226.0
21:18:44.110,6119353.0
21:18:44.150,6119070.0
21:18:44.190,6118810.0
21:18:44.230,6119209.0
21:18:44.270,6119276.0
21:18:44.310,6118655.0
21:18:44.350,6118885.0
21:18:44.761,6118458.0
21:18:44.801,6119428.0
21:18:44.841,6120545.0
21:18:44.881,6119956.0
21:18:44.921,6118654.0
21:18:44.961,6119030.0
21:18:45.001,6118370.0
21:18:45.041,6119554.0
21:18:45.081,6119046.0
21:18:45.121,6118741.0
21:18:45.161,6118580.0
21:18:45.201,6118146.0
21:18:45.241,6118503.0
21:18:45.281,6118313.0
21:18:45.321,6118895.0
21:18:45.361,6118759.0
21:18:45.401,6118390.0
21:18:45.441,6118362.0
21:18:45.481,6118280.0
21:18:45.521,6118080.0
21:18:45.561,6120323.0
21:18:45.601,6118402.0
21:18:45.641,6118455.0
21:18:45.681,6118430.0
21:18:45.721,6118621.0
21:18:45.761,6119734.0
21:18:45.801,6119633.0
21:18:45.841,6118287.0
21:18:45.881,6118290.0
21:18:45.921,6117942.0
21:18:45.961,6117998.0
21:18:46.001,6118252.0
21:18:46.041,6118313.0
21:18:46.081,6117688.0
21:18:46.121,6118030.0
21:18:46.161,6117748.0
21:18:46.201,6118124.0
21:18:46.241,6117964.0
21:18:46.281,6118254.0
21:18:46.321,6118379.0
21:18:46.361,6117630.0
21:18:46.401,6117509.0
21:18:46.441,6118026.0
21:18:46.481,6118859.0
21:18:46.521,6118088.0
21:18:46.561,6118169.0
21:18:46.601,6118428.0
21:18:46.641,6118908.0
21:18:46.681,6119387.0
21:18:46.721,6118756.0
21:18:46.761,6117942.0
21:18:46.801,6118016.0
21:18:46.841,6117912.0
21:18:46.881,6118109.0
21:18:46.921,6117835.0
21:18:46.961,6118236.0
21:18:47.001,6117924.0
21:18:47.041,6117833.0
21:18:47.081,6118040.0
21:18:47.121,6118446.0
21:18:47.161,6117850.0
21:18:47.201,6117885.0
21:18:47.241,6117476.0
21:18:47.281,6119713.0
21:18:47.321,6117998.0
21:18:47.361,6117838.0
21:18:47.401,6118417.0
21:18:47.441,6118991.0
21:18:47.481,6119563.0
21:18:47.521,6119103.0
21:18:47.561,6118143.0
21:18:47.601,6118015.0
21:18:47.641,6117809.0
21:18:47.681,6118097.0
21:18:47.721,6117938.0
21:18:47.761,6117867.0
21:18:47.801,6118011.0
21:18:47.841,6118402.0
21:18:47.881,6118252.0
21:18:47.921,6117908.0
21:18:47.961,6117918.0
21:18:48.001,6117705.0
21:18:48.041,6119950.0
21:18:48.081,6118309.0
21:18:48.121,6118190.0
21:18:48.161,6118448.0
21:18:48.201,6119004.0
21:18:48.241,6119619.0
21:18:48.281,6119607.0
21:18:48.321,6118837.0
21:18:48.361,6118242.0
21:18:48.401,6118188.0
21:18:48.441,6118291.0
21:18:48.481,6118618.0
21:18:48.521,6118447.0
21:18:48.561,6118255.0
21:18:48.601,6118374.0
21:18:48.641,6118507.0
21:18:48.681,6118176.0
21:18:48.721,6118369.0
21:18:48.983,6118083.0
21:18:49.023,6118555.0
21:18:49.063,6118919.0
21:18:49.103,6120276.0
21:18:49.143,6120773.0
21:18:49.183,6119363.0
21:18:49.223,6118508.0
21:18:49.263,6118468.0
21:18:49.303,6118656.0
21:18:49.343,6118611.0
21:18:49.383,6118877.0
21:18:49.423,6118378.0
21:18:49.463,6118223.0
21:18:49.503,6119135.0
21:18:49.543,6118179.0
21:18:49.583,6118712.0
21:18:49.623,6118929.0
21:18:49.663,6118451.0
21:18:49.703,6120634.0
21:18:49.743,6118547.0
21:18:49.783,6119148.0
21:18:49.823,6118775.0
21:18:49.863,6119393.0
21:18:49.903,6120206.0
21:18:49.943,6120378.0
21:18:49.983,6119030.0
21:18:50.023,6118638.0
21:18:50.063,6118127.0
21:18:50.103,6118806.0
21:18:50.143,6119078.0
21:18:50.183,6118725.0
21:18:50.223,6118720.0
21:18:50.263,6118686.0
21:18:50.303,6119482.0
21:18:50.343,6119243.0
21:18:50.383,6119151.0
21:18:50.423,6118678.0
21:18:50.463,6118871.0
21:18:50.503,6120367.0
21:18:50.543,6119782.0
21:18:50.583,6119089.0
21:18:50.623,6119463.0
21:18:50.663,6119517.0
21:18:50.703,6119762.0
21:18:50.743,6120620.0
21:18:50.783,6119624.0
21:18:50.823,6119248.0
21:18:50.863,6119352.0
21:18:50.903,6119050.0
21:18:50.943,6118992.0
21:18:50.983,6119134.0
21:18:51.023,6118131.0
21:18:51.063,6118891.0
21:18:51.103,6119290.0
21:18:51.143,6119708.0
21:18:51.183,6119221.0
21:18:51.223,6118614.0
21:18:51.263,6119341.0
21:18:51.303,6120500.0
21:18:51.343,6119169.0
21:18:51.383,6119389.0
21:18:51.423,6119588.0
21:18:51.463,6120467.0
21:18:51.503,6121256.0
21:18:51.543,6120995.0
21:18:51.583,6119770.0
21:18:51.623,6119454.0
21:18:51.663,6119541.0
21:18:51.703,6119485.0
21:18:51.743,6119371.0
21:18:51.783,6119265.0
21:18:51.823,6119518.0
21:18:51.863,6119452.0
21:18:51.903,6119186.0
21:18:51.943,6118913.0
21:18:51.983,6120606.0
21:18:52.023,6119231.0
21:18:52.063,6119868.0
21:18:52.103,6119931.0
21:18:52.143,6120055.0
21:18:52.183,6121239.0
21:18:52.223,6121509.0
21:18:52.263,6120594.0
21:18:52.303,6119838.0
21:18:52.343,6120027.0
21:18:52.383,6120310.0
21:18:52.423,6119934.0
21:18:52.463,6119936.0
21:18:52.503,6119785.0
21:18:52.543,6119846.0
21:18:52.583,6120096.0
21:18:52.623,6119426.0
21:18:52.663,6119504.0
21:18:52.703,6120539.0
21:18:52.743,6119810.0
21:18:52.783,6119365.0
21:18:52.823,6119520.0
21:18:52.863,6119540.0
21:18:52.903,6120260.0
21:18:52.943,6120883.0
21:18:53.280,6120170.0
21:18:53.320,6118539.0
21:18:53.360,6119080.0
21:18:53.400,6119155.0
21:18:53.440,6119191.0
21:18:53.480,6119417.0
21:18:53.520,6119558.0
21:18:53.560,6119738.0
21:18:53.600,6120709.0
21:18:53.640,6121060.0
21:18:53.680,6120677.0
21:18:53.720,6119548.0
21:18:53.760,6119978.0
21:18:53.800,6119687.0
21:18:53.840,6120407.0
21:18:53.880,6119904.0
21:18:53.920,6120859.0
21:18:53.960,6120307.0
21:18:54.000,6120138.0
21:18:54.040,6119934.0
21:18:54.080,6121320.0
21:18:54.120,6120570.0
21:18:54.160,6121135.0
21:18:54.200,6121294.0
21:18:54.240,6121507.0
21:18:54.280,6122205.0
21:18:54.320,6122802.0
21:18:54.360,6122050.0
21:18:54.400,6121199.0
21:18:54.440,6121745.0
21:18:54.480,6121689.0
21:18:54.520,6121696.0
21:18:54.560,6122460.0
21:18:54.600,6122030.0
21:18:54.640,6121385.0
21:18:54.680,6121555.0
21:18:54.720,6122070.0
21:18:54.760,6122014.0
21:18:54.800,6122006.0
21:18:54.840,6122426.0
21:18:54.880,6122614.0
21:18:54.920,6123246.0
21:18:54.960,6123814.0
21:18:55.000,6123769.0
21:18:55.040,6122563.0
21:18:55.080,6122715.0
21:18:55.120,6123224.0
21:18:55.160,6123507.0
21:18:55.200,6124030.0
21:18:55.240,6123621.0
21:18:55.280,6123780.0
21:18:55.320,6123229.0
21:18:55.360,6124383.0
21:18:55.400,6123399.0
21:18:55.440,6123653.0
21:18:55.480,6123721.0
21:18:55.520,6123806.0
21:18:55.560,6124276.0
21:18:55.600,6124969.0
21:18:55.640,6123946.0
21:18:55.680,6123527.0
21:18:55.720,6123281.0
21:18:55.760,6123000.0
21:18:55.800,6122791.0
21:18:55.840,6123454.0
21:18:55.880,6122222.0
21:18:55.920,6121647.0
21:18:55.960,6121554.0
21:18:56.000,6122982.0
21:18:56.040,6122243.0
21:18:56.080,6121588.0
21:18:56.120,6121685.0
21:18:56.160,6121869.0
21:18:56.200,6122400.0
21:18:56.240,6122491.0
21:18:56.280,6121799.0
21:18:56.320,6121182.0
21:18:56.360,6121307.0
21:18:56.400,6121073.0
21:18:56.440,6120972.0
21:18:56.480,6121410.0
21:18:56.520,6121123.0
21:18:56.560,6120622.0
21:18:56.600,6120813.0
21:18:56.640,6120515.0
21:18:56.680,6123155.0
21:18:56.720,6121265.0
21:18:56.760,6120775.0
21:18:56.800,6120828.0
21:18:56.840,6121535.0
21:18:56.880,6122259.0
21:18:56.920,6121875.0
21:18:56.960,6121319.0
21:18:57.000,6121003.0
21:18:57.040,6120964.0
21:18:57.080,6121436.0
21:18:57.120,6121236.0
21:18:57.160,6121251.0
21:18:57.200,6122061.0
21:18:57.240,6122225.0
21:18:57.579,6121519.0
21:18:57.619,6122227.0
21:18:57.659,6122748.0
21:18:57.699,6122222.0
21:18:57.739,6120976.0
21:18:57.779,6120867.0
21:18:57.819,6121402.0
21:18:57.859,6121246.0
21:18:57.899,6121021.0
21:18:57.939,6121053.0
21:18:57.979,6121051.0
21:18:58.019,6121673.0
21:18:58.059,6121282.0
21:18:58.099,6120483.0
21:18:58.139,6120752.0
21:18:58.179,6122459.0
21:18:58.219,6121240.0
21:18:58.259,6120708.0
21:18:58.299,6121105.0
21:18:58.339,6121783.0
21:18:58.379,6121802.0
21:18:58.419,6121456.0
21:18:58.459,6120966.0
21:18:58.499,6120650.0
21:18:58.539,6120551.0
21:18:58.579,6120405.0
21:18:58.619,6120303.0
21:18:58.659,6120580.0
21:18:58.699,6120567.0
21:18:58.739,6120045.0
21:18:58.779,6120105.0
21:18:58.819,6120271.0
21:18:58.859,6119588.0
21:18:58.899,6119270.0
21:18:58.939,6119517.0
21:18:58.979,6120758.0
21:18:59.019,6119677.0
21:18:59.059,6119730.0
21:18:59.099,6119957.0
21:18:59.139,6120364.0
21:18:59.179,6120378.0
21:18:59.219,6120642.0
21:18:59.259,6119891.0
21:18:59.299,6119540.0
21:18:59.339,6119353.0
21:18:59.379,6119042.0
21:18:59.419,6119454.0
21:18:59.459,6119355.0
21:18:59.499,6118850.0
21:18:59.539,6119974.0
21:18:59.579,6118895.0
21:18:59.619,6118737.0
21:18:59.659,6118808.0
21:18:59.699,6120881.0
21:18:59.739,6119418.0
21:18:59.779,6119143.0
21:18:59.819,6119196.0
21:18:59.859,6119539.0
21:18:59.899,6119773.0
21:18:59.939,6120414.0
21:18:59.979,6119178.0
21:19:00.019,6118931.0
21:19:00.059,6118744.0
21:19:00.099,6118810.0
21:19:00.139,6118636.0
21:19:00.179,6118712.0
21:19:00.219,6118690.0
21:19:00.259,6119195.0
21:19:00.299,6118395.0
21:19:00.339,6118358.0
21:19:00.379,6118101.0
21:19:00.419,6120043.0
21:19:00.459,6118337.0
21:19:00.499,6119052.0
21:19:00.539,6118905.0
21:19:00.579,6119623.0
21:19:00.619,6119821.0
21:19:00.659,6120300.0
21:19:00.699,6119281.0
21:19:00.739,6118954.0
21:19:00.779,6118913.0
21:19:00.819,6119409.0
21:19:00.859,6119295.0
21:19:00.899,6119210.0
21:19:00.939,6119001.0
21:19:00.979,6119446.0
21:19:01.019,6118692.0
21:19:01.059,6117977.0
21:19:01.099,6118614.0
21:19:01.139,6118419.0
21:19:01.179,6119131.0
21:19:01.219,6118095.0
21:19:01.259,6119584.0
21:19:01.299,6119146.0
21:19:01.339,6119616.0
21:19:01.379,6120125.0
21:19:01.419,6118786.0
21:19:01.459,6118556.0
21:19:01.499,6117862.0
21:19:01.539,6117827.0
21:19:01.967,6117550.0
21:19:02.007,6112933.0
21:19:02.047,6113224.0
21:19:02.087,6112133.0
21:19:02.127,6112694.0
21:19:02.167,6112969.0
21:19:02.207,6113022.0
21:19:02.247,6113777.0
21:19:02.287,6114267.0
21:19:02.327,6113196.0
21:19:02.367,6112184.0
21:19:02.407,6111844.0
21:19:02.447,6112035.0
21:19:02.487,6111744.0
21:19:02.527,6111608.0
21:19:02.567,6111325.0
21:19:02.607,6111252.0
21:19:02.647,6111645.0
21:19:02.687,6111103.0
21:19:02.727,6110775.0
21:19:02.767,6110703.0
21:19:02.807,6112798.0
21:19:02.847,6111641.0
21:19:02.887,6110764.0
21:19:02.927,6110844.0
21:19:02.967,6111056.0
21:19:03.007,6111720.0
21:19:03.047,6111990.0
21:19:03.087,6111144.0
21:19:03.127,6110598.0
21:19:03.167,6110534.0
21:19:03.207,6110530.0
21:19:03.247,6110632.0
21:19:03.287,6110420.0
21:19:03.327,6110444.0
21:19:03.367,6110242.0
21:19:03.407,6110398.0
21:19:03.447,6110434.0
21:19:03.487,6109632.0
21:19:03.527,6109441.0
21:19:03.567,6109658.0
21:19:03.607,6111190.0
21:19:03.647,6109804.0
21:19:03.687,6109860.0
21:19:03.727,6110495.0
21:19:03.767,6111132.0
21:19:03.807,6111988.0
21:19:03.847,6111640.0
21:19:03.887,6111329.0
21:19:03.927,6109887.0
21:19:03.967,6112131.0
21:19:04.007,6111535.0
21:19:04.047,6111218.0
21:19:04.087,6112060.0
21:19:04.127,6111640.0
21:19:04.167,6112271.0
21:19:04.207,6111848.0
21:19:04.247,6112137.0
21:19:04.287,6110959.0
21:19:04.327,6111616.0
21:19:04.367,6114077.0
21:19:04.407,6112217.0
21:19:04.447,6114062.0
21:19:04.487,6112346.0
21:19:04.527,6113660.0
21:19:04.567,6113937.0
21:19:04.607,6114189.0
21:19:04.647,6113102.0
21:19:04.687,6114254.0
21:19:04.727,6113570.0
21:19:04.767,6113805.0
21:19:04.807,6113788.0
21:19:04.847,6113603.0
21:19:04.887,6113505.0
21:19:04.927,6113841.0
21:19:04.967,6112692.0
21:19:05.007,6109121.0
21:19:05.047,6110979.0
21:19:05.087,6113706.0
21:19:05.127,6112804.0
21:19:05.167,6112177.0
21:19:05.207,6112030.0
21:19:05.247,6112230.0
21:19:05.287,6112513.0
21:19:05.327,6113029.0
21:19:05.367,6112326.0
21:19:05.407,6111135.0
21:19:05.447,6111827.0
21:19:05.487,6112751.0
21:19:05.527,6112354.0
21:19:05.567,6111872.0
21:19:05.607,6112688.0
21:19:05.647,6113745.0
21:19:05.687,6112348.0
21:19:05.727,6115726.0
21:19:05.767,6115580.0
21:19:05.807,6113866.0
21:19:05.847,6115964.0
21:19:05.887,6115941.0
21:19:05.927,6114743.0
21:19:06.393,6116719.0
21:19:06.433,6118057.0
21:19:06.473,6117582.0
21:19:06.513,6118138.0
21:19:06.553,6115571.0
21:19:06.593,6115436.0
21:19:06.633,6116711.0
21:19:06.673,6117094.0
21:19:06.713,6114243.0
21:19:06.753,6116439.0
21:19:06.793,6117931.0
21:19:06.833,6118352.0
21:19:06.873,6118519.0
21:19:06.913,6119988.0
21:19:06.953,6121594.0
21:19:06.993,6121031.0
21:19:07.033,6123326.0
21:19:07.073,6123479.0
21:19:07.113,6123960.0
21:19:07.153,6123998.0
21:19:07.193,6123695.0
21:19:07.233,6123897.0
21:19:07.273,6123479.0
21:19:07.313,6125510.0
21:19:07.353,6123692.0
21:19:07.393,6123866.0
21:19:07.433,6123525.0
21:19:07.473,6123485.0
21:19:07.513,6124008.0
21:19:07.553,6123428.0
21:19:07.593,6122762.0
21:19:07.633,6122333.0
21:19:07.673,6122192.0
21:19:07.713,6122361.0
21:19:07.753,6122079.0
21:19:07.793,6121930.0
21:19:07.833,6121983.0
21:19:07.873,6121477.0
21:19:07.913,6121494.0
21:19:07.953,6121076.0
21:19:07.993,6123049.0
21:19:08.033,6121517.0
21:19:08.073,6121091.0
21:19:08.113,6121227.0
21:19:08.153,6121380.0
21:19:08.193,6122002.0
21:19:08.233,6121691.0
21:19:08.273,6121058.0
21:19:08.313,6120703.0
21:19:08.353,6120594.0
21:19:08.393,6120793.0
21:19:08.433,6120587.0
21:19:08.473,6120672.0
21:19:08.513,6120856.0
21:19:08.553,6120679.0
21:19:08.593,6120344.0
21:19:08.633,6120341.0
21:19:08.673,6120974.0
21:19:08.713,6120762.0
21:19:08.753,6120382.0
21:19:08.793,6120414.0
21:19:08.833,6120531.0
21:19:08.873,6120866.0
21:19:08.913,6121156.0
21:19:08.953,6120654.0
21:19:08.993,6120081.0
21:19:09.033,6119908.0
21:19:09.073,6120029.0
21:19:09.113,6120069.0
21:19:09.153,6120031.0
21:19:09.193,6120062.0
21:19:09.233,6119939.0
21:19:09.273,6120317.0
21:19:09.313,6120060.0
21:19:09.353,6119906.0
21:19:09.393,6119921.0
21:19:09.433,6120770.0
21:19:09.473,6120617.0
21:19:09.513,6120059.0
21:19:09.553,6120167.0
21:19:09.593,6120332.0
21:19:09.633,6120784.0
21:19:09.673,6120946.0
21:19:09.713,6120393.0
21:19:09.753,6119827.0
21:19:09.793,6119767.0
21:19:09.833,6119792.0
21:19:09.873,6119796.0
21:19:09.913,6119709.0
21:19:09.953,6119601.0
21:19:09.993,6119733.0
21:19:10.033,6119651.0
21:19:10.073,6119707.0
21:19:10.113,6119789.0
21:19:10.153,6119929.0
21:19:10.193,6119923.0
21:19:10.233,6119609.0
21:19:10.273,6119567.0
21:19:10.313,6121393.0
21:19:10.353,6119923.0
21:19:11.307,6119760.0
21:19:11.347,6119496.0
21:19:11.387,6119477.0
21:19:11.427,6119365.0
21:19:11.467,6119353.0
21:19:11.507,6119270.0
21:19:11.547,6119180.0
21:19:11.587,6119403.0
21:19:11.627,6119431.0
21:19:11.667,6119023.0
21:19:11.707,6119030.0
21:19:11.747,6118983.0
21:19:11.787,6120003.0
21:19:11.827,6119005.0
21:19:11.867,6119060.0
21:19:11.907,6119102.0
21:19:11.947,6119413.0
21:19:11.987,6120000.0
21:19:12.027,6119771.0
21:19:12.067,6119062.0
21:19:12.107,6118894.0
21:19:12.147,6118967.0
21:19:12.187,6119067.0
21:19:12.227,6119052.0
21:19:12.267,6118999.0
21:19:12.307,6118961.0
21:19:12.347,6119044.0
21:19:12.387,6119065.0
21:19:12.427,6118866.0
21:19:12.467,6118725.0
21:19:12.507,6118652.0
21:19:12.547,6120550.0
21:19:12.587,6119034.0
21:19:12.627,6118853.0
21:19:12.667,6118904.0
21:19:12.707,6119328.0
21:19:12.747,6119641.0
21:19:12.787,6119410.0
21:19:12.827,6119003.0
21:19:12.867,6118690.0
21:19:12.907,6118934.0
21:19:12.947,6118429.0
21:19:12.987,6118823.0
21:19:13.027,6119273.0
21:19:13.067,6119096.0
21:19:13.107,6119269.0
21:19:13.147,6118566.0
21:19:13.187,6120884.0
21:19:13.227,6118698.0
21:19:13.267,6119267.0
21:19:13.307,6119079.0
21:19:13.347,6119495.0
21:19:13.387,6120748.0
21:19:13.427,6123108.0
21:19:13.467,6120932.0
21:19:13.507,6121702.0
21:19:13.547,6122039.0
21:19:13.587,6122987.0
21:19:13.627,6123478.0
21:19:13.667,6123628.0
21:19:13.707,6122922.0
21:19:13.747,6124213.0
21:19:13.787,6123199.0
21:19:13.827,6123249.0
21:19:13.867,6122801.0
21:19:13.907,6122397.0
21:19:13.947,6123099.0
21:19:13.987,6123033.0
21:19:14.027,6123246.0
21:19:14.067,6123822.0
21:19:14.107,6122535.0
21:19:14.147,6122203.0
21:19:14.187,6125407.0
21:19:14.227,6123938.0
21:19:14.267,6122114.0
21:19:14.307,6123607.0
21:19:14.347,6123918.0
21:19:14.387,6124109.0
21:19:14.427,6124528.0
21:19:14.467,6124425.0
21:19:14.507,6123560.0
21:19:14.547,6123523.0
21:19:14.587,6123849.0
21:19:14.627,6123132.0
21:19:14.667,6124501.0
21:19:14.707,6124896.0
21:19:14.747,6124710.0
21:19:14.787,6124763.0
21:19:14.827,6124866.0
21:19:14.867,6126272.0
21:19:14.907,6125747.0
21:19:14.947,6125584.0
21:19:14.987,6125547.0
21:19:15.027,6125868.0
21:19:15.067,6126260.0
21:19:15.107,6126405.0
21:19:15.147,6125571.0
21:19:15.187,6124912.0
21:19:15.227,6124861.0
21:19:15.267,6124736.0
21:19:15.603,6124681.0
21:19:15.643,6123079.0
21:19:15.683,6122831.0
21:19:15.723,6122948.0
21:19:15.763,6122975.0
21:19:15.803,6123284.0
21:19:15.843,6122773.0
21:19:15.883,6122176.0
21:19:15.923,6122126.0
21:19:15.963,6124309.0
21:19:16.003,6122297.0
21:19:16.043,6122052.0
21:19:16.083,6122116.0
21:19:16.123,6122571.0
21:19:16.163,6122971.0
21:19:16.203,6122930.0
21:19:16.243,6126309.0
21:19:16.283,6128049.0
21:19:16.323,6130812.0
21:19:16.363,6132148.0
21:19:16.403,6133764.0
21:19:16.443,6133719.0
21:19:16.483,6135429.0
21:19:16.523,6135993.0
21:19:16.563,6141587.0
21:19:16.603,6144131.0
21:19:16.643,6146683.0
21:19:16.683,6146898.0
21:19:16.723,6142464.0
21:19:16.763,6135527.0
21:19:16.803,6134344.0
21:19:16.843,6133684.0
21:19:16.883,6139158.0
21:19:16.923,6143733.0
21:19:16.963,6144142.0
21:19:17.003,6138898.0
21:19:17.043,6134899.0
21:19:17.083,6134133.0
21:19:17.123,6134809.0
21:19:17.163,6131641.0
21:19:17.203,6130874.0
21:19:17.243,6132041.0
21:19:17.283,6131700.0
21:19:17.323,6131387.0
21:19:17.363,6130713.0
21:19:17.403,6129732.0
21:19:17.443,6130996.0
21:19:17.483,6128507.0
21:19:17.523,6128252.0
21:19:17.563,6128686.0
21:19:17.603,6127821.0
21:19:17.643,6128360.0
21:19:17.683,6127560.0
21:19:17.723,6125414.0
21:19:17.763,6124792.0
21:19:17.803,6123884.0
21:19:17.843,6123568.0
21:19:17.883,6123467.0
21:19:17.923,6123209.0
21:19:17.963,6123283.0
21:19:18.003,6124765.0
21:19:18.043,6123360.0
21:19:18.083,6122889.0
21:19:18.123,6123074.0
21:19:18.163,6125255.0
21:19:18.203,6123885.0
21:19:18.243,6123142.0
21:19:18.283,6124293.0
21:19:18.323,6122707.0
21:19:18.363,6125159.0
21:19:18.403,6124875.0
21:19:18.443,6124773.0
21:19:18.483,6123817.0
21:19:18.523,6124540.0
21:19:18.563,6122897.0
21:19:18.603,6123439.0
21:19:18.643,6123725.0
21:19:18.683,6124136.0
21:19:18.723,6124794.0
21:19:18.763,6124191.0
21:19:18.803,6122285.0
21:19:18.843,6122989.0
21:19:18.883,6124390.0
21:19:18.923,6123157.0
21:19:18.963,6121065.0
21:19:19.003,6121551.0
21:19:19.043,6122272.0
21:19:19.083,6122234.0
21:19:19.123,6122015.0
21:19:19.163,6120880.0
21:19:19.203,6120335.0
21:19:19.243,6120094.0
21:19:19.283,6120187.0
21:19:19.323,6120138.0
21:19:19.363,6119429.0
21:19:19.403,6118986.0
21:19:19.443,6118474.0
21:19:19.483,6118854.0
21:19:19.523,6118583.0
21:19:19.563,6118110.0
21:19:19.938,6117878.0
21:19:19.978,6119296.0
21:19:20.018,6119096.0
21:19:20.058,6118101.0
21:19:20.098,6117815.0
21:19:20.138,6118109.0
21:19:20.178,6118033.0
21:19:20.218,6117879.0
21:19:20.258,6117799.0
21:19:20.298,6117784.0
21:19:20.338,6118147.0
21:19:20.378,6118122.0
21:19:20.418,6117744.0
21:19:20.458,6117743.0
21:19:20.498,6118075.0
21:19:20.538,6118103.0
21:19:20.578,6118124.0
21:19:20.618,6118143.0
21:19:20.658,6118620.0
21:19:20.698,6119235.0
21:19:20.738,6119632.0
21:19:20.778,6119171.0
21:19:20.818,6118170.0
21:19:20.858,6117957.0
21:19:20.898,6118208.0
21:19:20.938,6118246.0
21:19:20.978,6118280.0
21:19:21.018,6118258.0
21:19:21.058,6118817.0
21:19:21.098,6118398.0
21:19:21.138,6118034.0
21:19:21.178,6118077.0
21:19:21.218,6119595.0
21:19:21.258,6118657.0
21:19:21.298,6118572.0
21:19:21.338,6118934.0
21:19:21.378,6119048.0
21:19:21.418,6119694.0
21:19:21.458,6120021.0
21:19:21.498,6118989.0
21:19:21.538,6118194.0
21:19:21.578,6118090.0
21:19:21.618,6118257.0
21:19:21.658,6118312.0
21:19:21.698,6118118.0
21:19:21.738,6118293.0
21:19:21.778,6118592.0
21:19:21.818,6118343.0
21:19:21.858,6118133.0
21:19:21.898,6118133.0
21:19:21.938,6119638.0
21:19:21.978,6119296.0
21:19:22.018,6118361.0
21:19:22.058,6118333.0
21:19:22.098,6118693.0
21:19:22.138,6119132.0
21:19:22.178,6119678.0
21:19:22.218,6118837.0
21:19:22.258,6118292.0
21:19:22.298,6118226.0
21:19:22.338,6118293.0
21:19:22.378,6118195.0
21:19:22.418,6118118.0
21:19:22.458,6118242.0
21:19:22.498,6117876.0
21:19:22.538,6118204.0
21:19:22.578,6118662.0
21:19:22.618,6118101.0
21:19:22.658,6118175.0
21:19:22.698,6118402.0
21:19:22.738,6120217.0
21:19:22.778,6118647.0
21:19:22.818,6118728.0
21:19:22.858,6118977.0
21:19:22.898,6119481.0
21:19:22.938,6119973.0
21:19:22.978,6119671.0
21:19:23.018,6118583.0
21:19:23.058,6118262.0
21:19:23.098,6118310.0
21:19:23.138,6118298.0
21:19:23.178,6118231.0
21:19:23.218,6118097.0
21:19:23.258,6118144.0
21:19:23.298,6118404.0
21:19:23.338,6118501.0
21:19:23.378,6117895.0
21:19:23.418,6117777.0
21:19:23.458,6118056.0
21:19:23.498,6118605.0
21:19:23.538,6118034.0
21:19:23.578,6118226.0
21:19:23.618,6118525.0
21:19:23.658,6119106.0
21:19:23.698,6119646.0
21:19:23.738,6119116.0
21:19:23.778,6118113.0
21:19:23.818,6118021.0
21:19:23.858,6117936.0
21:19:23.898,6117992.0
21:19:24.414,6118037.0
21:19:24.454,6118042.0
21:19:24.494,6117835.0
21:19:24.534,6117919.0
21:19:24.574,6118388.0
21:19:24.614,6119096.0
21:19:24.654,6119567.0
21:19:24.694,6118741.0
21:19:24.734,6117959.0
21:19:24.774,6117939.0
21:19:24.814,6118002.0
21:19:24.854,6118061.0
21:19:24.894,6117929.0
21:19:24.934,6117879.0
21:19:24.974,6117942.0
21:19:25.014,6118248.0
21:19:25.054,6117855.0
21:19:25.094,6117589.0
21:19:25.134,6117574.0
21:19:25.174,6119621.0
21:19:25.214,6118386.0
21:19:25.254,6117834.0
21:19:25.294,6118000.0
21:19:25.334,6118328.0
21:19:25.374,6118969.0
21:19:25.414,6119149.0
21:19:25.454,6118098.0
21:19:25.494,6117470.0
21:19:25.534,6117446.0
21:19:25.574,6117550.0
21:19:25.614,6117373.0
21:19:25.654,6117405.0
21:19:25.694,6117438.0
21:19:25.734,6117803.0
21:19:25.774,6117539.0
21:19:25.814,6117179.0
21:19:25.854,6117153.0
21:19:25.894,6118284.0
21:19:25.934,6117545.0
21:19:25.974,6117480.0
21:19:26.014,6117559.0
21:19:26.054,6117890.0
21:19:26.094,6118425.0
21:19:26.134,6119000.0
21:19:26.174,6118210.0
21:19:26.214,6117424.0
21:19:26.254,6117178.0
21:19:26.294,6117333.0
21:19:26.334,6117292.0
21:19:26.374,6117243.0
21:19:26.414,6117131.0
21:19:26.454,6117127.0
21:19:26.494,6117098.0
21:19:26.534,6117553.0
21:19:26.574,6117402.0
21:19:26.614,6116869.0
21:19:26.654,6116828.0
21:19:26.694,6117592.0
21:19:26.734,6117374.0
21:19:26.774,6117048.0
21:19:26.814,6117237.0
21:19:26.854,6117432.0
21:19:26.894,6117956.0
21:19:26.934,6118444.0
21:19:26.974,6117906.0
21:19:27.014,6117082.0
21:19:27.054,6116825.0
21:19:27.094,6116927.0
21:19:27.134,6116813.0
21:19:27.174,6116853.0
21:19:27.214,6116737.0
21:19:27.254,6116727.0
21:19:27.294,6116658.0
21:19:27.334,6116628.0
21:19:27.374,6117259.0
21:19:27.414,6116936.0
21:19:27.454,6116508.0
21:19:27.494,6116456.0
21:19:27.534,6117581.0
21:19:27.574,6116969.0
21:19:27.614,6116846.0
21:19:27.654,6116924.0
21:19:27.694,6117281.0
21:19:27.734,6117802.0
21:19:27.774,6118328.0
21:19:27.814,6117625.0
21:19:27.854,6116796.0
21:19:27.894,6116636.0
21:19:27.934,6116577.0
21:19:27.974,6116611.0
21:19:28.014,6116481.0
21:19:28.054,6116244.0
21:19:28.094,6116237.0
21:19:28.134,6116312.0
21:19:28.174,6116432.0
21:19:28.214,6116900.0
21:19:28.254,6116221.0
21:19:28.294,6116105.0
21:19:28.334,6115949.0
21:19:28.374,6117653.0
21:19:28.946,6116783.0
21:19:28.986,6116120.0
21:19:29.026,6116262.0
21:19:29.066,6116023.0
21:19:29.106,6115852.0
21:19:29.146,6115840.0
21:19:29.186,6115805.0
21:19:29.226,6115991.0
21:19:29.266,6116106.0
21:19:29.306,6115682.0
21:19:29.346,6115544.0
21:19:29.386,6115742.0
21:19:29.426,6116478.0
21:19:29.466,6115721.0
21:19:29.506,6115899.0
21:19:29.546,6116105.0
21:19:29.586,6116542.0
21:19:29.626,6117239.0
21:19:29.666,6116835.0
21:19:29.706,6115809.0
21:19:29.746,6115567.0
21:19:29.786,6115618.0
21:19:29.826,6115683.0
21:19:29.866,6115675.0
21:19:29.906,6115631.0
21:19:29.946,6115617.0
21:19:29.986,6115463.0
21:19:30.026,6115353.0
21:19:30.066,6115940.0
21:19:30.106,6115790.0
21:19:30.146,6115004.0
21:19:30.186,6115002.0
21:19:30.226,6115934.0
21:19:30.266,6115059.0
21:19:30.306,6115447.0
21:19:30.346,6115601.0
21:19:30.386,6115715.0
21:19:30.426,6116103.0
21:19:30.466,6116603.0
21:19:30.506,6115930.0
21:19:30.546,6115078.0
21:19:30.586,6114820.0
21:19:30.626,6114968.0
21:19:30.666,6114949.0
21:19:30.706,6114867.0
21:19:30.746,6114718.0
21:19:30.786,6114734.0
21:19:30.826,6114660.0
21:19:30.866,6114971.0
21:19:30.906,6114522.0
21:19:30.946,6114347.0
21:19:30.986,6114360.0
21:19:31.026,6116269.0
21:19:31.066,6115321.0
21:19:31.106,6114617.0
21:19:31.146,6114592.0
21:19:31.186,6114903.0
21:19:31.226,6115532.0
21:19:31.266,6115818.0
21:19:31.306,6114873.0
21:19:31.346,6114320.0
21:19:31.386,6114155.0
21:19:31.426,6114143.0
21:19:31.466,6114285.0
21:19:31.506,6114220.0
21:19:31.546,6114104.0
21:19:31.586,6113945.0
21:19:31.626,6113905.0
21:19:31.666,6113858.0
21:19:31.706,6114132.0
21:19:31.746,6114067.0
21:19:31.786,6113476.0
21:19:31.826,6113437.0
21:19:31.866,6113233.0
21:19:31.906,6115150.0
21:19:31.946,6113752.0
21:19:31.986,6113693.0
21:19:32.026,6114043.0
21:19:32.066,6114380.0
21:19:32.106,6115025.0
21:19:32.146,6114855.0
21:19:32.186,6113784.0
21:19:32.226,6113557.0
21:19:32.266,6113592.0
21:19:32.306,6113588.0
21:19:32.346,6113579.0
21:19:32.386,6113440.0
21:19:32.426,6113379.0
21:19:32.466,6113265.0
21:19:32.506,6113434.0
21:19:32.546,6113729.0
21:19:32.586,6113126.0
21:19:32.626,6112911.0
21:19:32.666,6112834.0
21:19:32.706,6114766.0
21:19:32.746,6113529.0
21:19:32.786,6113050.0
21:19:32.826,6113131.0
21:19:32.866,6113441.0
21:19:32.906,6114053.0
21:19:33.428,6114355.0
21:19:33.468,6112859.0
21:19:33.508,6112737.0
21:19:33.548,6112152.0
21:19:33.588,6112083.0
21:19:33.628,6112707.0
21:19:33.668,6112823.0
21:19:33.708,6112512.0
21:19:33.748,6112590.0
21:19:33.788,6112866.0
21:19:33.828,6113278.0
21:19:33.868,6113920.0
21:19:33.908,6113324.0
21:19:33.948,6112324.0
21:19:33.988,6112109.0
21:19:34.028,6112147.0
21:19:34.068,6112130.0
21:19:34.108,6112037.0
21:19:34.148,6111929.0
21:19:34.188,6111759.0
21:19:34.228,6111886.0
21:19:34.268,6112099.0
21:19:34.308,6112368.0
21:19:34.348,6111800.0
21:19:34.388,6111605.0
21:19:34.428,6111585.0
21:19:34.468,6113896.0
21:19:34.508,6112629.0
21:19:34.548,6111988.0
21:19:34.588,6112106.0
21:19:34.628,6112437.0
21:19:34.668,6113164.0
21:19:34.708,6113461.0
21:19:34.748,6112590.0
21:19:34.788,6111861.0
21:19:34.828,6111635.0
21:19:34.868,6111822.0
21:19:34.908,6111790.0
21:19:34.948,6111770.0
21:19:34.988,6111637.0
21:19:35.028,6111486.0
21:19:35.068,6111434.0
21:19:35.108,6111626.0
21:19:35.148,6111593.0
21:19:35.188,6111202.0
21:19:35.228,6111017.0
21:19:35.268,6110840.0
21:19:35.308,6113390.0
21:19:35.348,6111574.0
21:19:35.388,6111468.0
21:19:35.428,6111666.0
21:19:35.468,6112026.0
21:19:35.508,6112955.0
21:19:35.548,6112971.0
21:19:35.588,6111891.0
21:19:35.628,6111337.0
21:19:35.668,6111224.0
21:19:35.708,6111623.0
21:19:35.748,6111371.0
21:19:35.788,6111371.0
21:19:35.828,6111216.0
21:19:35.868,6111071.0
21:19:35.908,6110985.0
21:19:35.948,6111016.0
21:19:35.988,6111431.0
21:19:36.028,6111101.0
21:19:36.068,6110609.0
21:19:36.108,6110428.0
21:19:36.148,6111824.0
21:19:36.188,6111049.0
21:19:36.228,6110802.0
21:19:36.268,6110946.0
21:19:36.308,6111168.0
21:19:36.348,6111891.0
21:19:36.388,6111984.0
21:19:36.428,6111516.0
21:19:36.468,6110556.0
21:19:36.508,6110367.0
21:19:36.548,6110373.0
21:19:36.588,6110401.0
21:19:36.628,6110361.0
21:19:36.668,6110152.0
21:19:36.708,6110028.0
21:19:36.748,6110079.0
21:19:36.788,6110407.0
21:19:36.828,6110088.0
21:19:36.868,6109747.0
21:19:36.908,6109651.0
21:19:36.948,6111212.0
21:19:36.988,6110516.0
21:19:37.028,6109951.0
21:19:37.068,6110136.0
21:19:37.108,6110341.0
21:19:37.148,6110991.0
21:19:37.188,6111426.0
21:19:37.228,6110468.0
21:19:37.268,6109753.0
21:19:37.308,6109611.0
21:19:37.348,6109758.0
21:19:37.388,6109767.0
21:19:37.725,6109699.0
21:19:37.765,6108965.0
21:19:37.805,6110470.0
21:19:37.845,6109986.0
21:19:37.885,6109245.0
21:19:37.925,6109457.0
21:19:37.965,6109784.0
21:19:38.005,6110358.0
21:19:38.045,6110957.0
21:19:38.085,6110152.0
21:19:38.125,6109301.0
21:19:38.165,6109228.0
21:19:38.205,6109303.0
21:19:38.245,6109244.0
21:19:38.285,6109125.0
21:19:38.325,6109078.0
21:19:38.365,6108913.0
21:19:38.405,6108901.0
21:19:38.445,6108794.0
21:19:38.485,6108715.0
21:19:38.525,6108666.0
21:19:38.565,6108883.0
21:19:38.605,6108939.0
21:19:38.645,6108387.0
21:19:38.685,6108323.0
21:19:38.725,6108409.0
21:19:38.765,6109340.0
21:19:38.805,6108491.0
21:19:38.845,6108534.0
21:19:38.885,6108790.0
21:19:38.925,6109226.0
21:19:38.965,6109913.0
21:19:39.005,6109554.0
21:19:39.045,6108489.0
21:19:39.085,6108098.0
21:19:39.125,6108174.0
21:19:39.165,6108220.0
21:19:39.205,6108185.0
21:19:39.245,6108040.0
21:19:39.285,6107922.0
21:19:39.325,6107799.0
21:19:39.365,6107801.0
21:19:39.405,6107783.0
21:19:39.445,6107872.0
21:19:39.485,6108208.0
21:19:39.525,6107852.0
21:19:39.565,6107533.0
21:19:39.605,6107444.0
21:19:39.645,6109674.0
21:19:39.685,6108395.0
21:19:39.725,6107954.0
21:19:39.765,6108012.0
21:19:39.805,6108397.0
21:19:39.845,6109172.0
21:19:39.885,6109416.0
21:19:39.925,6108401.0
21:19:39.965,6107728.0
21:19:40.005,6107605.0
21:19:40.045,6107659.0
21:19:40.085,6107632.0
21:19:40.125,6107518.0
21:19:40.165,6107377.0
21:19:40.205,6107326.0
21:19:40.245,6107246.0
21:19:40.285,6107239.0
21:19:40.325,6107193.0
21:19:40.365,6107496.0
21:19:40.405,6107491.0
21:19:40.445,6107021.0
21:19:40.485,6106964.0
21:19:40.525,6107016.0
21:19:40.565,6108719.0
21:19:40.605,6107408.0
21:19:40.645,6107533.0
21:19:40.685,6107627.0
21:19:40.725,6108132.0
21:19:40.765,6108788.0
21:19:40.805,6108592.0
21:19:40.845,6107468.0
21:19:40.885,6107062.0
21:19:40.925,6107011.0
21:19:40.965,6107027.0
21:19:41.005,6107007.0
21:19:41.045,6106814.0
21:19:41.085,6106746.0
21:19:41.125,6106689.0
21:19:41.165,6106789.0
21:19:41.205,6107196.0
21:19:41.245,6106744.0
21:19:41.285,6106458.0
21:19:41.325,6106325.0
21:19:41.365,6108240.0
21:19:41.405,6107345.0
21:19:41.445,6106702.0
21:19:41.485,6106904.0
21:19:41.525,6107091.0
21:19:41.565,6107830.0
21:19:41.605,6108260.0
21:19:41.645,6107441.0
21:19:41.685,6106530.0
21:19:42.232,6106367.0
21:19:42.272,6105554.0
21:19:42.312,6105543.0
21:19:42.352,6107799.0
21:19:42.392,6106177.0
21:19:42.432,6105940.0
21:19:42.472,6106084.0
21:19:42.512,6106495.0
21:19:42.552,6107178.0
21:19:42.592,6107487.0
21:19:42.632,6106378.0
21:19:42.672,6105744.0
21:19:42.712,6105698.0
21:19:42.752,6105826.0
21:19:42.792,6105786.0
21:19:42.832,6105601.0
21:19:42.872,6105477.0
21:19:42.912,6105411.0
21:19:42.952,6105895.0
21:19:42.992,6105547.0
21:19:43.032,6105086.0
21:19:43.072,6104954.0
21:19:43.112,6105112.0
21:19:43.152,6105435.0
21:19:43.192,6105054.0
21:19:43.232,6105283.0
21:19:43.272,6105462.0
21:19:43.312,6106032.0
21:19:43.352,6106662.0
21:19:43.392,6106243.0
21:19:43.432,6105136.0
21:19:43.472,6104868.0
21:19:43.512,6104720.0
21:19:43.552,6104843.0
21:19:43.592,6104685.0
21:19:43.632,6104611.0
21:19:43.672,6104463.0
21:19:43.712,6104543.0
21:19:43.752,6104723.0
21:19:43.792,6104161.0
21:19:43.832,6104021.0
21:19:43.872,6103941.0
21:19:43.912,6105864.0
21:19:43.952,6104299.0
21:19:43.992,6104305.0
21:19:44.032,6104311.0
21:19:44.072,6104711.0
21:19:44.112,6105440.0
21:19:44.152,6105391.0
21:19:44.192,6104231.0
21:19:44.232,6103711.0
21:19:44.272,6103666.0
21:19:44.312,6103727.0
21:19:44.352,6103882.0
21:19:44.392,6103653.0
21:19:44.432,6103620.0
21:19:44.472,6103702.0
21:19:44.512,6103644.0
21:19:44.552,6103227.0
21:19:44.592,6103211.0
21:19:44.632,6103166.0
21:19:44.672,6104527.0
21:19:44.712,6103312.0
21:19:44.752,6103435.0
21:19:44.792,6103634.0
21:19:44.832,6103892.0
21:19:44.872,6104751.0
21:19:44.912,6104436.0
21:19:44.952,6103274.0
21:19:44.992,6102941.0
21:19:45.032,6102859.0
21:19:45.072,6103044.0
21:19:45.112,6103081.0
21:19:45.152,6103017.0
21:19:45.192,6102920.0
21:19:45.232,6103173.0
21:19:45.272,6102688.0
21:19:45.312,6102692.0
21:19:45.352,6102486.0
21:19:45.392,6104311.0
21:19:45.432,6102867.0
21:19:45.472,6102849.0
21:19:45.512,6103056.0
21:19:45.552,6103466.0
21:19:45.592,6104212.0
21:19:45.632,6103900.0
21:19:45.672,6102894.0
21:19:45.712,6102476.0
21:19:45.752,6102509.0
21:19:45.792,6102617.0
21:19:45.832,6102633.0
21:19:45.872,6102437.0
21:19:45.912,6102433.0
21:19:45.952,6102511.0
21:19:45.992,6102904.0
21:19:46.032,6102719.0
21:19:46.072,6102353.0
21:19:46.112,6102430.0
21:19:46.152,6103109.0
21:19:46.192,6102974.0
21:19:46.938,6102582.0
21:19:46.978,6102352.0
21:19:47.018,6102296.0
21:19:47.058,6102149.0
21:19:47.098,6102172.0
21:19:47.138,6102227.0
21:19:47.178,6102455.0
21:19:47.218,6102605.0
21:19:47.258,6102234.0
21:19:47.298,6102210.0
21:19:47.338,6102014.0
21:19:47.378,6104339.0
21:19:47.418,6102842.0
21:19:47.458,6102483.0
21:19:47.498,6102690.0
21:19:47.538,6103031.0
21:19:47.578,6103600.0
21:19:47.618,6103719.0
21:19:47.658,6102896.0
21:19:47.698,6102158.0
21:19:47.738,6102157.0
21:19:47.778,6102166.0
21:19:47.818,6102151.0
21:19:47.858,6101994.0
21:19:47.898,6101920.0
21:19:47.938,6101880.0
21:19:47.978,6101891.0
21:19:48.018,6101869.0
21:19:48.058,6101905.0
21:19:48.098,6102410.0
21:19:48.138,6101854.0
21:19:48.178,6101586.0
21:19:48.218,6101600.0
21:19:48.258,6103561.0
21:19:48.298,6102775.0
21:19:48.338,6101895.0
21:19:48.378,6102052.0
21:19:48.418,6102375.0
21:19:48.458,6102878.0
21:19:48.498,6103275.0
21:19:48.538,6102501.0
21:19:48.578,6101975.0
21:19:48.618,6101525.0
21:19:48.658,6101563.0
21:19:48.698,6101601.0
21:19:48.738,6101411.0
21:19:48.778,6101350.0
21:19:48.818,6101296.0
21:19:48.858,6101200.0
21:19:48.898,6101299.0
21:19:48.938,6101425.0
21:19:48.978,6101652.0
21:19:49.018,6101109.0
21:19:49.058,6101037.0
21:19:49.098,6101085.0
21:19:49.138,6103041.0
21:19:49.178,6101842.0
21:19:49.218,6101143.0
21:19:49.258,6101369.0
21:19:49.298,6101570.0
21:19:49.338,6102246.0
21:19:49.378,6102582.0
21:19:49.418,6101513.0
21:19:49.458,6100605.0
21:19:49.498,6100656.0
21:19:49.538,6100565.0
21:19:49.578,6100544.0
21:19:49.618,6100447.0
21:19:49.658,6100181.0
21:19:49.698,6100119.0
21:19:49.738,6100106.0
21:19:49.778,6100662.0
21:19:49.818,6100279.0
21:19:49.858,6099845.0
21:19:49.898,6099858.0
21:19:49.938,6100866.0
21:19:49.978,6099881.0
21:19:50.018,6100103.0
21:19:50.058,6100158.0
21:19:50.098,6100428.0
21:19:50.138,6100941.0
21:19:50.178,6101440.0
21:19:50.218,6100609.0
21:19:50.258,6099724.0
21:19:50.298,6099534.0
21:19:50.338,6099529.0
21:19:50.378,6099507.0
21:19:50.418,6099433.0
21:19:50.458,6099240.0
21:19:50.498,6099186.0
21:19:50.538,6099516.0
21:19:50.578,6099469.0
21:19:50.618,6099110.0
21:19:50.658,6098966.0
21:19:50.698,6099280.0
21:19:50.738,6099775.0
21:19:50.778,6099249.0
21:19:50.818,6099232.0
21:19:50.858,6099481.0
21:19:50.898,6099986.0
21:19:50.946,6100589.0
21:19:50.986,6098876.0
21:19:51.026,6098446.0
21:19:51.066,6098391.0
21:19:51.106,6098873.0
21:19:51.146,6098824.0
21:19:51.186,6098646.0
21:19:51.226,6098820.0
21:19:51.266,6099087.0
21:19:51.306,6099560.0
21:19:51.346,6100207.0
21:19:51.386,6099607.0
21:19:51.426,6098707.0
21:19:51.466,6098548.0
21:19:51.506,6098677.0
21:19:51.546,6098652.0
21:19:51.586,6098635.0
21:19:51.626,6098383.0
21:19:51.666,6098384.0
21:19:51.706,6098368.0
21:19:51.746,6098314.0
21:19:51.786,6098443.0
21:19:51.826,6098629.0
21:19:51.866,6098123.0
21:19:51.906,6098067.0
21:19:51.946,6097918.0
21:19:51.986,6099704.0
21:19:52.026,6098447.0
21:19:52.066,6098428.0
21:19:52.106,6098567.0
21:19:52.146,6099062.0
21:19:52.186,6099780.0
21:19:52.226,6099609.0
21:19:52.266,6098630.0
21:19:52.306,6098260.0
21:19:52.346,6098264.0
21:19:52.386,6098301.0
21:19:52.426,6098350.0
21:19:52.466,6098243.0
21:19:52.506,6098191.0
21:19:52.546,6098081.0
21:19:52.586,6098013.0
21:19:52.626,6098079.0
21:19:52.666,6098666.0
21:19:52.706,6098244.0
21:19:52.746,6097695.0
21:19:52.786,6097719.0
21:19:52.826,6098308.0
21:19:52.866,6098244.0
21:19:52.906,6097970.0
21:19:52.946,6098145.0
21:19:52.986,6098387.0
21:19:53.026,6098899.0
21:19:53.066,6099570.0
21:19:53.106,6099119.0
21:19:53.146,6098117.0
21:19:53.186,6097847.0
21:19:53.226,6097972.0
21:19:53.266,6097978.0
21:19:53.306,6097914.0
21:19:53.346,6097631.0
21:19:53.386,6097574.0
21:19:53.426,6097522.0
21:19:53.466,6097630.0
21:19:53.506,6097721.0
21:19:53.546,6097314.0
21:19:53.586,6097318.0
21:19:53.626,6097037.0
21:19:53.666,6099092.0
21:19:53.706,6097588.0
21:19:53.746,6097286.0
21:19:53.786,6097473.0
21:19:53.826,6097843.0
21:19:53.866,6098518.0
21:19:53.906,6098637.0
21:19:53.946,6097515.0
21:19:53.986,6096872.0
21:19:54.026,6096825.0
21:19:54.066,6096915.0
21:19:54.106,6096831.0
21:19:54.146,6096871.0
21:19:54.186,6096677.0
21:19:54.226,6096625.0
21:19:54.266,6096824.0
21:19:54.306,6096297.0
21:19:54.346,6096227.0
21:19:54.386,6096113.0
21:19:54.426,6098025.0
21:19:54.466,6096511.0
21:19:54.506,6096421.0
21:19:54.546,6096634.0
21:19:54.586,6097028.0
21:19:54.626,6097803.0
21:19:54.666,6097794.0
21:19:54.706,6096500.0
21:19:54.746,6096083.0
21:19:54.786,6096127.0
21:19:54.826,6096125.0
21:19:54.866,6096067.0
21:19:54.906,6096081.0
21:19:55.547,6096191.0
21:19:55.587,6096153.0
21:19:55.627,6096546.0
21:19:55.667,6097295.0
21:19:55.707,6097104.0
21:19:55.747,6095926.0
21:19:55.787,6095593.0
21:19:55.827,6095605.0
21:19:55.867,6095616.0
21:19:55.907,6095579.0
21:19:55.947,6095502.0
21:19:55.987,6095320.0
21:19:56.027,6095211.0
21:19:56.067,6095624.0
21:19:56.107,6095570.0
21:19:56.147,6095087.0
21:19:56.187,6095005.0
21:19:56.227,6095233.0
21:19:56.267,6096419.0
21:19:56.307,6095394.0
21:19:56.347,6095568.0
21:19:56.387,6095777.0
21:19:56.427,6096194.0
21:19:56.467,6096927.0
21:19:56.507,6096493.0
21:19:56.547,6095526.0
21:19:56.587,6095190.0
21:19:56.627,6095189.0
21:19:56.667,6095194.0
21:19:56.707,6095167.0
21:19:56.747,6095131.0
21:19:56.787,6095006.0
21:19:56.827,6095001.0
21:19:56.867,6094927.0
21:19:56.907,6095009.0
21:19:56.947,6095249.0
21:19:56.987,6094822.0
21:19:57.027,6094703.0
21:19:57.067,6094550.0
21:19:57.107,6097276.0
21:19:57.147,6095340.0
21:19:57.187,6095085.0
21:19:57.227,6095275.0
21:19:57.267,6095697.0
21:19:57.307,6096365.0
21:19:57.347,6096467.0
21:19:57.387,6095349.0
21:19:57.427,6095032.0
21:19:57.467,6094890.0
21:19:57.507,6094948.0
21:19:57.547,6094889.0
21:19:57.587,6094707.0
21:19:57.627,6094509.0
21:19:57.667,6094466.0
21:19:57.707,6094447.0
21:19:57.747,6094367.0
21:19:57.787,6094563.0
21:19:57.827,6094990.0
21:19:57.867,6094409.0
21:19:57.907,6094250.0
21:19:57.947,6094158.0
21:19:57.987,6096049.0
21:19:58.027,6095280.0
21:19:58.067,6094556.0
21:19:58.107,6094886.0
21:19:58.147,6095063.0
21:19:58.187,6095707.0
21:19:58.227,6096172.0
21:19:58.267,6095434.0
21:19:58.307,6094626.0
21:19:58.347,6094365.0
21:19:58.387,6094370.0
21:19:58.427,6094465.0
21:19:58.467,6094227.0
21:19:58.507,6094157.0
21:19:58.547,6094084.0
21:19:58.587,6093990.0
21:19:58.627,6093877.0
21:19:58.667,6093941.0
21:19:58.707,6094468.0
21:19:58.747,6093839.0
21:19:58.787,6093608.0
21:19:58.827,6093580.0
21:19:58.867,6095304.0
21:19:58.907,6094375.0
21:19:58.947,6093912.0
21:19:58.987,6094049.0
21:19:59.027,6094287.0
21:19:59.067,6095031.0
21:19:59.107,6095387.0
21:19:59.147,6094491.0
21:19:59.187,6093604.0
21:19:59.227,6093437.0
21:19:59.267,6093374.0
21:19:59.307,6093380.0
21:19:59.347,6093184.0
21:19:59.387,6093029.0
21:19:59.427,6092932.0
21:19:59.467,6092985.0
21:19:59.507,6093453.0
21:20:00.048,6093081.0
21:20:00.088,6092381.0
21:20:00.128,6092326.0
21:20:00.168,6092458.0
21:20:00.208,6092472.0
21:20:00.248,6092245.0
21:20:00.288,6092193.0
21:20:00.328,6092338.0
21:20:00.368,6092464.0
21:20:00.408,6091965.0
21:20:00.448,6092011.0
21:20:00.488,6092126.0
21:20:00.528,6093270.0
21:20:00.568,6092297.0
21:20:00.608,6092414.0
21:20:00.648,6092679.0
21:20:00.688,6093064.0
21:20:00.728,6093744.0
21:20:00.768,6093463.0
21:20:00.808,6092337.0
21:20:00.848,6092009.0
21:20:00.888,6091885.0
21:20:00.928,6092030.0
21:20:00.968,6091974.0
21:20:01.008,6091840.0
21:20:01.048,6091880.0
21:20:01.088,6091837.0
21:20:01.128,6091897.0
21:20:01.168,6092092.0
21:20:01.208,6091685.0
21:20:01.248,6091686.0
21:20:01.288,6091636.0
21:20:01.328,6093741.0
21:20:01.368,6092263.0
21:20:01.408,6091846.0
21:20:01.448,6092109.0
21:20:01.488,6092409.0
21:20:01.528,6093026.0
21:20:01.568,6093357.0
21:20:01.608,6092402.0
21:20:01.648,6091650.0
21:20:01.688,6091589.0
21:20:01.728,6091735.0
21:20:01.768,6091668.0
21:20:01.808,6091567.0
21:20:01.848,6091477.0
21:20:01.888,6091331.0
21:20:01.928,6091307.0
21:20:01.968,6091332.0
21:20:02.008,6091608.0
21:20:02.048,6091454.0
21:20:02.088,6090996.0
21:20:02.128,6091046.0
21:20:02.168,6091157.0
21:20:02.208,6091904.0
21:20:02.248,6091280.0
21:20:02.288,6091416.0
21:20:02.328,6091660.0
21:20:02.368,6091963.0
21:20:02.408,6092723.0
21:20:02.448,6092253.0
21:20:02.488,6091246.0
21:20:02.528,6090851.0
21:20:02.568,6090844.0
21:20:02.608,6090804.0
21:20:02.648,6090665.0
21:20:02.688,6090601.0
21:20:02.728,6090444.0
21:20:02.768,6090392.0
21:20:02.808,6090983.0
21:20:02.848,6090497.0
21:20:02.888,6090108.0
21:20:02.928,6090138.0
21:20:02.968,6091274.0
21:20:03.008,6090297.0
21:20:03.048,6090331.0
21:20:03.088,6090561.0
21:20:03.128,6090792.0
21:20:03.168,6091349.0
21:20:03.208,6091947.0
21:20:03.248,6091185.0
21:20:03.288,6090219.0
21:20:03.328,6089969.0
21:20:03.368,6090067.0
21:20:03.408,6090114.0
21:20:03.448,6090009.0
21:20:03.488,6089822.0
21:20:03.528,6089772.0
21:20:03.568,6089845.0
21:20:03.608,6090128.0
21:20:03.648,6089727.0
21:20:03.688,6089528.0
21:20:03.728,6089564.0
21:20:03.768,6091613.0
21:20:03.808,6090617.0
21:20:03.848,6089878.0
21:20:03.888,6090060.0
21:20:03.928,6090331.0
21:20:03.968,6091003.0
21:20:04.008,6091344.0
21:20:04.570,6090500.0
21:20:04.610,6089312.0
21:20:04.650,6089282.0
21:20:04.690,6089205.0
21:20:04.730,6091527.0
21:20:04.770,6090008.0
21:20:04.810,6089646.0
21:20:04.850,6089791.0
21:20:04.890,6090135.0
21:20:04.930,6090786.0
21:20:04.970,6091095.0
21:20:05.010,6090051.0
21:20:05.050,6089468.0
21:20:05.090,6089369.0
21:20:05.130,6089318.0
21:20:05.170,6089379.0
21:20:05.210,6089200.0
21:20:05.250,6089142.0
21:20:05.290,6089092.0
21:20:05.330,6089013.0
21:20:05.370,6089135.0
21:20:05.410,6089733.0
21:20:05.450,6089195.0
21:20:05.490,6088932.0
21:20:05.530,6088951.0
21:20:05.570,6090655.0
21:20:05.610,6089835.0
21:20:05.650,6089152.0
21:20:05.690,6089446.0
21:20:05.730,6089646.0
21:20:05.770,6090242.0
21:20:05.810,6090740.0
21:20:05.850,6090113.0
21:20:05.890,6089159.0
21:20:05.930,6088912.0
21:20:05.970,6088981.0
21:20:06.010,6088875.0
21:20:06.050,6088833.0
21:20:06.090,6088657.0
21:20:06.130,6088590.0
21:20:06.170,6088571.0
21:20:06.210,6088749.0
21:20:06.250,6088719.0
21:20:06.290,6088282.0
21:20:06.330,6088271.0
21:20:06.370,6088103.0
21:20:06.410,6090317.0
21:20:06.450,6088728.0
21:20:06.490,6088552.0
21:20:06.530,6088795.0
21:20:06.570,6089183.0
21:20:06.610,6089873.0
21:20:06.650,6089789.0
21:20:06.690,6088641.0
21:20:06.730,6088116.0
21:20:06.770,6088119.0
21:20:06.810,6088108.0
21:20:06.850,6088117.0
21:20:06.890,6087928.0
21:20:06.930,6087838.0
21:20:06.970,6087786.0
21:20:07.010,6088271.0
21:20:07.050,6088143.0
21:20:07.090,6087719.0
21:20:07.130,6087710.0
21:20:07.170,6088143.0
21:20:07.210,6087930.0
21:20:07.250,6087899.0
21:20:07.290,6088060.0
21:20:07.330,6088254.0
21:20:07.370,6088769.0
21:20:07.410,6089555.0
21:20:07.450,6088877.0
21:20:07.490,6087896.0
21:20:07.530,6087609.0
21:20:07.570,6087598.0
21:20:07.610,6087608.0
21:20:07.650,6087575.0
21:20:07.690,6087466.0
21:20:07.730,6087434.0
21:20:07.770,6087348.0
21:20:07.810,6087343.0
21:20:07.850,6087701.0
21:20:07.890,6087757.0
21:20:07.930,6087368.0
21:20:07.970,6087272.0
21:20:08.010,6087245.0
21:20:08.050,6089796.0
21:20:08.090,6088104.0
21:20:08.130,6087607.0
21:20:08.170,6087919.0
21:20:08.210,6088274.0
21:20:08.250,6089010.0
21:20:08.290,6089298.0
21:20:08.330,6088173.0
21:20:08.370,6087701.0
21:20:08.410,6087604.0
21:20:08.450,6087694.0
21:20:08.490,6087637.0
21:20:08.530,6087571.0
21:20:08.862,6087475.0
21:20:08.902,6086902.0
21:20:08.942,6089428.0
21:20:08.982,6087577.0
21:20:09.022,6087383.0
21:20:09.062,6087534.0
21:20:09.102,6087843.0
21:20:09.142,6088508.0
21:20:09.182,6088547.0
21:20:09.222,6087519.0
21:20:09.262,6086833.0
21:20:09.302,6086866.0
21:20:09.342,6086945.0
21:20:09.382,6086919.0
21:20:09.422,6086830.0
21:20:09.462,6086789.0
21:20:09.502,6086665.0
21:20:09.542,6086792.0
21:20:09.582,6087242.0
21:20:09.622,6086757.0
21:20:09.662,6086644.0
21:20:09.702,6086397.0
21:20:09.742,6087897.0
21:20:09.782,6086883.0
21:20:09.822,6086665.0
21:20:09.862,6086825.0
21:20:09.902,6087082.0
21:20:09.942,6087604.0
21:20:09.982,6088054.0
21:20:10.022,6087374.0
21:20:10.062,6086503.0
21:20:10.102,6086134.0
21:20:10.142,6086249.0
21:20:10.182,6086272.0
21:20:10.222,6086152.0
21:20:10.262,6086090.0
21:20:10.302,6086060.0
21:20:10.342,6086513.0
21:20:10.382,6086169.0
21:20:10.422,6085825.0
21:20:10.462,6085827.0
21:20:10.502,6086848.0
21:20:10.542,6085674.0
21:20:10.582,6086060.0
21:20:10.622,6086128.0
21:20:10.662,6086461.0
21:20:10.702,6086918.0
21:20:10.742,6087515.0
21:20:10.782,6086778.0
21:20:10.822,6085820.0
21:20:10.862,6085682.0
21:20:10.902,6085593.0
21:20:10.942,6085683.0
21:20:10.982,6085564.0
21:20:11.022,6085478.0
21:20:11.062,6085722.0
21:20:11.102,6085634.0
21:20:11.142,6085362.0
21:20:11.182,6085259.0
21:20:11.222,6085301.0
21:20:11.262,6087410.0
21:20:11.302,6085869.0
21:20:11.342,6085644.0
21:20:11.382,6085762.0
21:20:11.422,6086042.0
21:20:11.462,6086880.0
21:20:11.502,6087006.0
21:20:11.542,6085985.0
21:20:11.582,6085401.0
21:20:11.622,6085184.0
21:20:11.662,6085425.0
21:20:11.702,6085292.0
21:20:11.742,6085175.0
21:20:11.782,6085039.0
21:20:11.822,6085012.0
21:20:11.862,6085343.0
21:20:11.902,6085553.0
21:20:11.942,6084896.0
21:20:11.982,6084988.0
21:20:12.022,6085085.0
21:20:12.062,6086247.0
21:20:12.102,6085337.0
21:20:12.142,6085536.0
21:20:12.182,6085176.0
21:20:12.222,6086521.0
21:20:12.262,6086819.0
21:20:12.302,6086533.0
21:20:12.342,6085514.0
21:20:12.382,6085180.0
21:20:12.422,6085130.0
21:20:12.462,6085237.0
21:20:12.502,6085197.0
21:20:12.542,6085088.0
21:20:12.582,6085056.0
21:20:12.622,6084887.0
21:20:12.662,6085146.0
21:20:12.702,6085277.0
21:20:12.742,6084747.0
21:20:12.782,6084754.0
21:20:12.822,6084900.0
21:20:15.818,6085865.0
21:20:15.858,6086305.0
21:20:15.898,6085233.0
21:20:15.938,6084760.0
21:20:15.978,6084783.0
21:20:16.018,6084755.0
21:20:16.058,6084789.0
21:20:16.098,6084628.0
21:20:16.138,6084493.0
21:20:16.178,6084654.0
21:20:16.218,6084667.0
21:20:16.258,6084255.0
21:20:16.298,6084209.0
21:20:16.338,6084278.0
21:20:16.378,6086370.0
21:20:16.418,6084564.0
21:20:16.458,6084562.0
21:20:16.498,6084749.0
21:20:16.538,6085051.0
21:20:16.578,6085857.0
21:20:16.618,6085986.0
21:20:16.658,6084923.0
21:20:16.698,6084266.0
21:20:16.738,6084187.0
21:20:16.778,6084310.0
21:20:16.818,6084212.0
21:20:16.858,6084155.0
21:20:16.898,6084057.0
21:20:16.938,6084061.0
21:20:16.978,6084487.0
21:20:17.018,6084306.0
21:20:17.058,6083991.0
21:20:17.098,6083872.0
21:20:17.138,6084010.0
21:20:17.178,6085119.0
21:20:17.218,6084205.0
21:20:17.258,6084348.0
21:20:17.298,6084550.0
21:20:17.338,6085020.0
21:20:17.378,6085759.0
21:20:17.418,6085439.0
21:20:17.458,6084468.0
21:20:17.498,6084003.0
21:20:17.538,6084102.0
21:20:17.578,6084185.0
21:20:17.618,6084151.0
21:20:17.658,6084083.0
21:20:17.698,6083985.0
21:20:17.738,6083993.0
21:20:17.778,6084007.0
21:20:17.818,6084078.0
21:20:17.858,6084562.0
21:20:17.898,6084096.0
21:20:17.938,6083791.0
21:20:17.978,6083900.0
21:20:18.018,6085704.0
21:20:18.058,6085053.0
21:20:18.098,6084269.0
21:20:18.138,6084315.0
21:20:18.178,6084664.0
21:20:18.218,6085230.0
21:20:18.258,6085750.0
21:20:18.298,6085045.0
21:20:18.338,6084219.0
21:20:18.378,6084015.0
21:20:18.418,6084250.0
21:20:18.458,6084024.0
21:20:18.498,6083962.0
21:20:18.538,6083822.0
21:20:18.578,6083772.0
21:20:18.618,6083718.0
21:20:18.658,6083863.0
21:20:18.698,6084276.0
21:20:18.738,6083843.0
21:20:18.778,6083589.0
21:20:18.818,6083541.0
21:20:18.858,6084651.0
21:20:18.898,6083842.0
21:20:18.938,6083755.0
21:20:18.978,6084070.0
21:20:19.018,6084271.0
21:20:19.058,6084793.0
21:20:19.098,6085322.0
21:20:19.138,6084685.0
21:20:19.178,6083741.0
21:20:19.218,6083770.0
21:20:19.258,6083625.0
21:20:19.298,6083698.0
21:20:19.338,6083600.0
21:20:19.378,6083470.0
21:20:19.418,6083469.0
21:20:19.458,6083443.0
21:20:19.498,6083798.0
21:20:19.538,6083468.0
21:20:19.578,6083128.0
21:20:19.618,6083078.0
21:20:19.658,6084181.0
21:20:19.698,6083221.0
21:20:19.738,6083286.0
21:20:19.778,6083520.0
21:20:19.104,6083767.0
21:20:19.144,6084807.0
21:20:19.184,6084199.0
21:20:19.224,6083321.0
21:20:19.264,6083194.0
21:20:19.304,6082998.0
21:20:19.344,6083076.0
21:20:19.384,6083213.0
21:20:19.424,6083019.0
21:20:19.464,6082827.0
21:20:19.504,6082903.0
21:20:19.544,6083127.0
21:20:19.584,6083026.0
21:20:19.624,6082549.0
21:20:19.664,6082526.0
21:20:19.704,6082552.0
21:20:19.744,6083227.0
21:20:19.784,6082840.0
21:20:19.824,6082946.0
21:20:19.864,6083083.0
21:20:19.904,6083620.0
21:20:19.944,6084302.0
21:20:19.984,6084039.0
21:20:20.024,6082954.0
21:20:20.064,6082678.0
21:20:20.104,6082627.0
21:20:20.144,6082881.0
21:20:20.184,6082898.0
21:20:20.224,6082199.0
21:20:20.264,6082999.0
21:20:20.304,6082387.0
21:20:20.344,6082979.0
21:20:20.384,6082696.0
21:20:20.424,6082408.0
21:20:20.464,6082257.0
21:20:20.504,6083717.0
21:20:20.544,6083479.0
21:20:20.584,6082566.0
21:20:20.624,6082773.0
21:20:20.664,6082289.0
21:20:20.704,6082998.0
21:20:20.744,6083778.0
21:20:20.784,6083626.0
21:20:20.824,6082963.0
21:20:20.864,6081695.0
21:20:20.904,6081408.0
21:20:20.944,6080997.0
21:20:20.984,6081261.0
21:20:21.024,6085276.0
21:20:21.064,6081139.0
21:20:21.104,6079639.0
21:20:21.144,6080097.0
21:20:21.184,6079274.0
21:20:21.224,6083205.0
21:20:21.264,6078794.0
21:20:21.304,6076338.0
21:20:21.344,6079123.0
21:20:21.384,6081191.0
21:20:21.424,6078878.0
21:20:21.464,6078149.0
21:20:21.504,6076642.0
21:20:21.544,6075783.0
21:20:21.584,6075450.0
21:20:21.624,6075352.0
21:20:21.664,6075318.0
21:20:21.704,6075332.0
21:20:21.744,6075668.0
21:20:21.784,6075682.0
21:20:21.824,6075297.0
21:20:21.864,6075200.0
21:20:21.904,6075124.0
21:20:21.944,6077523.0
21:20:21.984,6075946.0
21:20:22.024,6075696.0
21:20:22.064,6076120.0
21:20:22.104,6076352.0
21:20:22.144,6076795.0
21:20:22.184,6077094.0
21:20:22.224,6076061.0
21:20:22.264,6075906.0
21:20:22.304,6075649.0
21:20:22.344,6075908.0
21:20:22.384,6076009.0
21:20:22.424,6076037.0
21:20:22.464,6076365.0
21:20:22.504,6076405.0
21:20:22.544,6076254.0
21:20:22.584,6076407.0
21:20:22.624,6076162.0
21:20:22.664,6078372.0
21:20:22.704,6076686.0
21:20:22.744,6076803.0
21:20:22.784,6077173.0
21:20:22.824,6077470.0
21:20:22.864,6078157.0
21:20:22.904,6078270.0
21:20:22.944,6077075.0
21:20:22.984,6076881.0
21:20:23.024,6077033.0
21:20:23.064,6077090.0
21:20:23.602,6077140.0
21:20:23.642,6079646.0
21:20:23.682,6078750.0
21:20:23.722,6077592.0
21:20:23.762,6077639.0
21:20:23.802,6078156.0
21:20:23.842,6078155.0
21:20:23.882,6077848.0
21:20:23.922,6078667.0
21:20:23.962,6078548.0
21:20:24.002,6077867.0
21:20:24.042,6078020.0
21:20:24.082,6078819.0
21:20:24.122,6078531.0
21:20:24.162,6078502.0
21:20:24.202,6078801.0
21:20:24.242,6079184.0
21:20:24.282,6079678.0
21:20:24.322,6080729.0
21:20:24.362,6080141.0
21:20:24.402,6079246.0
21:20:24.442,6078863.0
21:20:24.482,6079113.0
21:20:24.522,6079588.0
21:20:24.562,6079369.0
21:20:24.602,6079324.0
21:20:24.642,6079232.0
21:20:24.682,6078942.0
21:20:24.722,6078641.0
21:20:24.762,6078727.0
21:20:24.802,6080862.0
21:20:24.842,6079046.0
21:20:24.882,6078694.0
21:20:24.922,6079025.0
21:20:24.962,6079427.0
21:20:25.002,6080201.0
21:20:25.042,6080163.0
21:20:25.082,6079317.0
21:20:25.122,6078805.0
21:20:25.162,6078857.0
21:20:25.202,6078951.0
21:20:25.242,6079377.0
21:20:25.282,6079126.0
21:20:25.322,6079433.0
21:20:25.362,6078786.0
21:20:25.402,6079014.0
21:20:25.442,6078930.0
21:20:25.482,6080980.0
21:20:25.522,6079780.0
21:20:25.562,6079731.0
21:20:25.602,6080088.0
21:20:25.642,6080606.0
21:20:25.682,6081257.0
21:20:25.722,6081517.0
21:20:25.762,6080637.0
21:20:25.802,6080400.0
21:20:25.842,6080587.0
21:20:25.882,6081155.0
21:20:25.922,6082102.0
21:20:25.962,6082535.0
21:20:26.002,6082509.0
21:20:26.042,6082842.0
21:20:26.082,6083010.0
21:20:26.122,6085478.0
21:20:26.162,6084170.0
21:20:26.202,6084990.0
21:20:26.242,6085935.0
21:20:26.282,6086916.0
21:20:26.322,6087944.0
21:20:26.362,6088110.0
21:20:26.402,6086956.0
21:20:26.442,6085773.0
21:20:26.482,6084982.0
21:20:26.522,6084430.0
21:20:26.562,6083782.0
21:20:26.602,6083261.0
21:20:26.642,6082047.0
21:20:26.682,6081192.0
21:20:26.722,6080586.0
21:20:26.762,6081660.0
21:20:26.802,6080556.0
21:20:26.842,6080154.0
21:20:26.882,6080348.0
21:20:26.922,6080651.0
21:20:26.962,6081298.0
21:20:27.002,6081850.0
21:20:27.042,6081409.0
21:20:27.082,6081037.0
21:20:27.122,6081140.0
21:20:27.162,6081417.0
21:20:27.202,6081527.0
21:20:27.242,6081697.0
21:20:27.282,6081960.0
21:20:27.322,6081800.0
21:20:27.362,6081696.0
21:20:27.402,6081770.0
21:20:27.442,6083269.0
21:20:27.482,6082705.0
21:20:27.522,6082196.0
21:20:27.562,6082456.0
21:20:28.052,6082742.0
21:20:28.092,6083074.0
21:20:28.132,6082810.0
21:20:28.172,6082545.0
21:20:28.212,6082511.0
21:20:28.252,6084681.0
21:20:28.292,6083164.0
21:20:28.332,6082807.0
21:20:28.372,6083096.0
21:20:28.412,6083366.0
21:20:28.452,6084056.0
21:20:28.492,6084277.0
21:20:28.532,6083561.0
21:20:28.572,6082889.0
21:20:28.612,6082895.0
21:20:28.652,6082946.0
21:20:28.692,6082765.0
21:20:28.732,6082851.0
21:20:28.772,6082789.0
21:20:28.812,6082844.0
21:20:28.852,6083146.0
21:20:28.892,6083107.0
21:20:28.932,6082718.0
21:20:28.972,6082938.0
21:20:29.012,6082870.0
21:20:29.052,6084823.0
21:20:29.092,6083301.0
21:20:29.132,6083220.0
21:20:29.172,6083449.0
21:20:29.212,6083714.0
21:20:29.252,6085163.0
21:20:29.292,6084430.0
21:20:29.332,6083654.0
21:20:29.372,6083185.0
21:20:29.412,6083227.0
21:20:29.452,6083376.0
21:20:29.492,6083330.0
21:20:29.532,6083144.0
21:20:29.572,6083239.0
21:20:29.612,6083362.0
21:20:29.652,6083160.0
21:20:29.692,6082830.0
21:20:29.732,6082868.0
21:20:29.772,6084736.0
21:20:29.812,6083378.0
21:20:29.852,6083346.0
21:20:29.892,6083391.0
21:20:29.932,6083701.0
21:20:29.972,6084291.0
21:20:30.012,6084574.0
21:20:30.052,6083621.0
21:20:30.092,6082914.0
21:20:30.132,6082865.0
21:20:30.172,6082988.0
21:20:30.212,6082829.0
21:20:30.252,6082906.0
21:20:30.292,6082818.0
21:20:30.332,6083072.0
21:20:30.372,6083183.0
21:20:30.412,6082750.0
21:20:30.452,6082869.0
21:20:30.492,6082779.0
21:20:30.532,6085158.0
21:20:30.572,6083248.0
21:20:30.612,6083098.0
21:20:30.652,6083215.0
21:20:30.692,6083634.0
21:20:30.732,6084286.0
21:20:30.772,6084247.0
21:20:30.812,6083221.0
21:20:30.852,6082874.0
21:20:30.892,6082793.0
21:20:30.932,6082825.0
21:20:30.972,6082806.0
21:20:31.012,6082709.0
21:20:31.052,6082732.0
21:20:31.092,6082700.0
21:20:31.132,6082882.0
21:20:31.172,6083142.0
21:20:31.212,6082824.0
21:20:31.252,6082639.0
21:20:31.292,6082725.0
21:20:31.332,6084690.0
21:20:31.372,6083338.0
21:20:31.412,6083027.0
21:20:31.452,6083242.0
21:20:31.492,6083443.0
21:20:31.532,6084157.0
21:20:31.572,6084438.0
21:20:31.612,6083677.0
21:20:31.652,6083205.0
21:20:31.692,6083106.0
21:20:31.732,6083072.0
21:20:31.772,6083147.0
21:20:31.812,6083054.0
21:20:31.852,6082970.0
21:20:31.892,6082899.0
21:20:31.932,6082882.0
21:20:31.972,6082820.0
21:20:32.012,6082765.0
21:20:32.818,6083166.0
21:20:32.858,6083254.0
21:20:32.898,6083177.0
21:20:32.938,6083312.0
21:20:32.978,6083448.0
21:20:33.018,6083324.0
21:20:33.058,6083247.0
21:20:33.098,6083279.0
21:20:33.138,6083206.0
21:20:33.178,6083180.0
21:20:33.218,6083327.0
21:20:33.258,6083846.0
21:20:33.298,6083396.0
21:20:33.338,6083097.0
21:20:33.378,6083231.0
21:20:33.418,6085151.0
21:20:33.458,6084117.0
21:20:33.498,6083760.0
21:20:33.538,6083964.0
21:20:33.578,6084416.0
21:20:33.618,6084978.0
21:20:33.658,6085466.0
21:20:33.698,6084843.0
21:20:33.738,6084152.0
21:20:33.778,6083979.0
21:20:33.818,6084193.0
21:20:33.858,6084255.0
21:20:33.898,6084303.0
21:20:33.938,6084375.0
21:20:33.978,6084298.0
21:20:34.018,6084230.0
21:20:34.058,6084568.0
21:20:34.098,6084540.0
21:20:34.138,6084307.0
21:20:34.178,6084245.0
21:20:34.218,6084081.0
21:20:34.258,6085980.0
21:20:34.298,6084382.0
21:20:34.338,6084349.0
21:20:34.378,6084531.0
21:20:34.418,6084902.0
21:20:34.458,6085555.0
21:20:34.498,6085757.0
21:20:34.538,6084732.0
21:20:34.578,6084236.0
21:20:34.618,6084076.0
21:20:34.658,6084280.0
21:20:34.698,6084257.0
21:20:34.738,6084159.0
21:20:34.778,6084133.0
21:20:34.818,6084071.0
21:20:34.858,6084169.0
21:20:34.898,6084620.0
21:20:34.938,6084445.0
21:20:34.978,6084043.0
21:20:35.018,6083950.0
21:20:35.058,6085317.0
21:20:35.098,6084525.0
21:20:35.138,6084287.0
21:20:35.178,6084387.0
21:20:35.218,6084566.0
21:20:35.258,6085185.0
21:20:35.298,6085656.0
21:20:35.338,6084982.0
21:20:35.378,6084371.0
21:20:35.418,6084042.0
21:20:35.458,6084277.0
21:20:35.498,6084106.0
21:20:35.538,6084134.0
21:20:35.578,6084105.0
21:20:35.618,6083969.0
21:20:35.658,6084146.0
21:20:35.698,6084542.0
21:20:35.738,6084219.0
21:20:35.778,6083777.0
21:20:35.818,6083741.0
21:20:35.858,6085485.0
21:20:35.898,6084423.0
21:20:35.938,6084155.0
21:20:35.978,6084232.0
21:20:36.018,6084516.0
21:20:36.058,6085074.0
21:20:36.098,6085629.0
21:20:36.138,6084876.0
21:20:36.178,6084124.0
21:20:36.218,6084044.0
21:20:36.258,6084071.0
21:20:36.298,6084252.0
21:20:36.338,6084153.0
21:20:36.378,6084048.0
21:20:36.418,6084167.0
21:20:36.458,6084521.0
21:20:36.498,6084571.0
21:20:36.538,6084047.0
21:20:36.578,6083944.0
21:20:36.618,6084392.0
21:20:36.658,6084143.0
21:20:36.698,6084266.0
21:20:36.738,6084444.0
21:20:36.778,6084655.0
21:20:37.119,6085123.0
21:20:37.159,6085030.0
21:20:37.199,6084543.0
21:20:37.239,6084293.0
21:20:37.279,6086723.0
21:20:37.319,6085668.0
21:20:37.359,6085880.0
21:20:37.399,6085606.0
21:20:37.439,6086834.0
21:20:37.479,6087369.0
21:20:37.519,6088991.0
21:20:37.559,6086555.0
21:20:37.599,6085788.0
21:20:37.639,6085477.0
21:20:37.679,6086041.0
21:20:37.719,6086277.0
21:20:37.759,6087335.0
21:20:37.799,6087716.0
21:20:37.839,6087425.0
21:20:37.879,6086908.0
21:20:37.919,6086288.0
21:20:37.959,6086849.0
21:20:37.999,6086283.0
21:20:38.039,6086781.0
21:20:38.079,6087577.0
21:20:38.119,6089953.0
21:20:38.159,6088618.0
21:20:38.199,6090058.0
21:20:38.239,6089478.0
21:20:38.279,6089528.0
21:20:38.319,6089299.0
21:20:38.359,6090202.0
21:20:38.399,6090027.0
21:20:38.439,6089846.0
21:20:38.479,6090616.0
21:20:38.519,6090521.0
21:20:38.559,6090705.0
21:20:38.599,6090928.0
21:20:38.639,6090777.0
21:20:38.679,6092639.0
21:20:38.719,6091504.0
21:20:38.759,6091350.0
21:20:38.799,6091420.0
21:20:38.839,6091783.0
21:20:38.879,6092779.0
21:20:38.919,6093528.0
21:20:38.959,6092543.0
21:20:38.999,6092321.0
21:20:39.039,6092052.0
21:20:39.079,6092098.0
21:20:39.119,6092019.0
21:20:39.159,6092164.0
21:20:39.199,6091473.0
21:20:39.239,6091611.0
21:20:39.279,6091087.0
21:20:39.319,6091282.0
21:20:39.359,6090833.0
21:20:39.399,6092815.0
21:20:39.439,6091367.0
21:20:39.479,6091187.0
21:20:39.519,6091492.0
21:20:39.559,6091609.0
21:20:39.599,6092341.0
21:20:39.639,6092197.0
21:20:39.679,6091312.0
21:20:39.719,6090711.0
21:20:39.759,6090401.0
21:20:39.799,6090421.0
21:20:39.839,6090343.0
21:20:39.879,6090079.0
21:20:39.919,6090212.0
21:20:39.959,6090217.0
21:20:39.999,6090163.0
21:20:40.039,6089754.0
21:20:40.079,6089970.0
21:20:40.119,6089833.0
21:20:40.159,6092124.0
21:20:40.199,6090567.0
21:20:40.239,6090177.0
21:20:40.279,6090211.0
21:20:40.319,6090594.0
21:20:40.359,6091126.0
21:20:40.399,6091363.0
21:20:40.439,6090248.0
21:20:40.479,6089910.0
21:20:40.519,6089870.0
21:20:40.559,6090011.0
21:20:40.599,6090018.0
21:20:40.639,6089834.0
21:20:40.679,6089568.0
21:20:40.719,6089632.0
21:20:40.759,6089559.0
21:20:40.799,6089797.0
21:20:40.839,6090005.0
21:20:40.879,6089369.0
21:20:40.919,6089478.0
21:20:40.959,6089365.0
21:20:40.999,6091507.0
21:20:41.039,6089724.0
21:20:41.079,6089650.0
21:20:41.631,6089738.0
21:20:41.671,6089002.0
21:20:41.711,6089205.0
21:20:41.751,6088947.0
21:20:41.791,6088868.0
21:20:41.831,6088849.0
21:20:41.871,6089288.0
21:20:41.911,6088893.0
21:20:41.951,6088800.0
21:20:41.991,6088700.0
21:20:42.031,6088722.0
21:20:42.071,6089773.0
21:20:42.111,6088886.0
21:20:42.151,6088668.0
21:20:42.191,6088945.0
21:20:42.231,6089271.0
21:20:42.271,6089904.0
21:20:42.311,6089594.0
21:20:42.351,6088681.0
21:20:42.391,6088465.0
21:20:42.431,6088485.0
21:20:42.471,6088688.0
21:20:42.511,6088364.0
21:20:42.551,6088432.0
21:20:42.591,6088305.0
21:20:42.631,6088408.0
21:20:42.671,6088260.0
21:20:42.711,6088380.0
21:20:42.751,6088611.0
21:20:42.791,6088026.0
21:20:42.831,6088252.0
21:20:42.871,6088020.0
21:20:42.911,6089649.0
21:20:42.951,6088367.0
21:20:42.991,6088171.0
21:20:43.031,6088538.0
21:20:43.071,6088646.0
21:20:43.111,6089112.0
21:20:43.151,6089405.0
21:20:43.191,6088451.0
21:20:43.231,6088054.0
21:20:43.271,6087994.0
21:20:43.311,6088230.0
21:20:43.351,6088225.0
21:20:43.391,6088232.0
21:20:43.431,6088109.0
21:20:43.471,6088134.0
21:20:43.511,6088171.0
21:20:43.551,6088272.0
21:20:43.591,6087970.0
21:20:43.631,6087888.0
21:20:43.671,6088271.0
21:20:43.711,6088250.0
21:20:43.751,6088149.0
21:20:43.791,6088564.0
21:20:43.831,6088686.0
21:20:43.871,6089000.0
21:20:43.911,6089785.0
21:20:43.951,6089423.0
21:20:43.991,6088427.0
21:20:44.031,6088601.0
21:20:44.071,6088141.0
21:20:44.111,6088517.0
21:20:44.151,6088439.0
21:20:44.191,6088032.0
21:20:44.231,6087800.0
21:20:44.271,6087453.0
21:20:44.311,6087288.0
21:20:44.351,6087759.0
21:20:44.391,6087356.0
21:20:44.431,6087419.0
21:20:44.471,6087435.0
21:20:44.511,6088851.0
21:20:44.551,6087709.0
21:20:44.591,6087796.0
21:20:44.631,6088279.0
21:20:44.671,6088992.0
21:20:44.711,6089685.0
21:20:44.751,6088959.0
21:20:44.791,6087046.0
21:20:44.831,6087113.0
21:20:44.871,6087816.0
21:20:44.911,6088362.0
21:20:44.951,6088400.0
21:20:44.991,6087860.0
21:20:45.031,6087804.0
21:20:45.071,6087871.0
21:20:45.111,6087961.0
21:20:45.151,6087915.0
21:20:45.191,6088365.0
21:20:45.231,6088456.0
21:20:45.271,6088245.0
21:20:45.311,6088237.0
21:20:45.351,6090063.0
21:20:45.391,6088839.0
21:20:45.431,6088586.0
21:20:45.471,6088334.0
21:20:45.511,6088402.0
21:20:45.551,6088939.0
21:20:45.591,6089083.0
21:20:45.938,6088604.0
21:20:45.978,6088029.0
21:20:46.018,6088057.0
21:20:46.058,6087698.0
21:20:46.098,6087554.0
21:20:46.138,6087594.0
21:20:46.178,6089608.0
21:20:46.218,6088210.0
21:20:46.258,6087990.0
21:20:46.298,6088418.0
21:20:46.338,6088476.0
21:20:46.378,6089420.0
21:20:46.418,6089439.0
21:20:46.458,6088553.0
21:20:46.498,6088380.0
21:20:46.538,6088263.0
21:20:46.578,6088372.0
21:20:46.618,6088389.0
21:20:46.658,6088234.0
21:20:46.698,6088136.0
21:20:46.738,6088363.0
21:20:46.778,6087890.0
21:20:46.818,6088045.0
21:20:46.858,6088424.0
21:20:46.898,6088109.0
21:20:46.938,6087970.0
21:20:46.978,6087982.0
21:20:47.018,6089706.0
21:20:47.058,6088497.0
21:20:47.098,6088332.0
21:20:47.138,6088236.0
21:20:47.178,6088785.0
21:20:47.218,6089185.0
21:20:47.258,6089521.0
21:20:47.298,6088616.0
21:20:47.338,6088100.0
21:20:47.378,6088338.0
21:20:47.418,6088241.0
21:20:47.458,6088211.0
21:20:47.498,6088048.0
21:20:47.538,6087983.0
21:20:47.578,6087915.0
21:20:47.618,6087813.0
21:20:47.658,6088257.0
21:20:47.698,6087919.0
21:20:47.738,6087564.0
21:20:47.778,6087623.0
21:20:47.818,6089179.0
21:20:47.858,6088472.0
21:20:47.898,6088201.0
21:20:47.938,6088199.0
21:20:47.978,6088354.0
21:20:48.018,6088821.0
21:20:48.058,6089404.0
21:20:48.098,6088575.0
21:20:48.138,6087944.0
21:20:48.178,6087893.0
21:20:48.218,6087870.0
21:20:48.258,6088090.0
21:20:48.298,6088091.0
21:20:48.338,6087846.0
21:20:48.378,6087859.0
21:20:48.418,6087880.0
21:20:48.458,6087797.0
21:20:48.498,6088099.0
21:20:48.538,6087633.0
21:20:48.578,6087702.0
21:20:48.618,6087538.0
21:20:48.658,6089317.0
21:20:48.698,6088085.0
21:20:48.738,6088142.0
21:20:48.778,6088182.0
21:20:48.818,6088447.0
21:20:48.858,6089119.0
21:20:48.898,6089152.0
21:20:48.938,6088286.0
21:20:48.978,6087939.0
21:20:49.018,6087954.0
21:20:49.058,6088073.0
21:20:49.098,6088138.0
21:20:49.138,6088001.0
21:20:49.178,6087861.0
21:20:49.218,6087926.0
21:20:49.258,6088134.0
21:20:49.298,6088260.0
21:20:49.338,6087739.0
21:20:49.378,6087764.0
21:20:49.418,6087864.0
21:20:49.458,6089737.0
21:20:49.498,6088398.0
21:20:49.538,6088190.0
21:20:49.578,6088393.0
21:20:49.618,6088448.0
21:20:49.658,6089133.0
21:20:49.698,6089426.0
21:20:49.738,6088759.0
21:20:49.778,6088195.0
21:20:49.818,6088267.0
21:20:49.858,6088555.0
21:20:49.898,6088527.0
21:20:50.433,6088339.0
21:20:50.473,6088387.0
21:20:50.513,6088359.0
21:20:50.553,6088459.0
21:20:50.593,6088651.0
21:20:50.633,6089462.0
21:20:50.673,6089451.0
21:20:50.713,6088677.0
21:20:50.753,6088268.0
21:20:50.793,6088389.0
21:20:50.833,6088331.0
21:20:50.873,6088327.0
21:20:50.913,6088259.0
21:20:50.953,6088223.0
21:20:50.993,6088396.0
21:20:51.033,6088733.0
21:20:51.073,6088546.0
21:20:51.113,6088234.0
21:20:51.153,6088131.0
21:20:51.193,6089023.0
21:20:51.233,6088180.0
21:20:51.273,6088448.0
21:20:51.313,6088602.0
21:20:51.353,6088705.0
21:20:51.393,6089212.0
21:20:51.433,6089945.0
21:20:51.473,6089373.0
21:20:51.513,6088759.0
21:20:51.553,6088471.0
21:20:51.593,6088733.0
21:20:51.633,6088722.0
21:20:51.673,6088614.0
21:20:51.713,6088439.0
21:20:51.753,6088614.0
21:20:51.793,6088765.0
21:20:51.833,6088395.0
21:20:51.873,6088345.0
21:20:51.913,6088324.0
21:20:51.953,6090151.0
21:20:51.993,6088544.0
21:20:52.033,6088714.0
21:20:52.073,6088844.0
21:20:52.113,6089134.0
21:20:52.153,6089549.0
21:20:52.193,6089834.0
21:20:52.233,6088962.0
21:20:52.273,6088404.0
21:20:52.313,6088668.0
21:20:52.353,6088818.0
21:20:52.393,6088778.0
21:20:52.433,6088664.0
21:20:52.473,6088727.0
21:20:52.513,6089018.0
21:20:52.553,6088894.0
21:20:52.593,6088470.0
21:20:52.633,6088590.0
21:20:52.673,6089677.0
21:20:52.713,6089201.0
21:20:52.753,6089037.0
21:20:52.793,6088971.0
21:20:52.833,6089235.0
21:20:52.873,6089408.0
21:20:52.913,6089960.0
21:20:52.953,6089518.0
21:20:52.993,6088552.0
21:20:53.033,6088763.0
21:20:53.073,6088922.0
21:20:53.113,6088824.0
21:20:53.153,6089058.0
21:20:53.193,6088909.0
21:20:53.233,6089068.0
21:20:53.273,6089067.0
21:20:53.313,6088824.0
21:20:53.353,6088663.0
21:20:53.393,6088365.0
21:20:53.433,6090745.0
21:20:53.473,6088875.0
21:20:53.513,6088739.0
21:20:53.553,6089112.0
21:20:53.593,6089100.0
21:20:53.633,6089697.0
21:20:53.673,6089762.0
21:20:53.713,6088920.0
21:20:53.753,6088618.0
21:20:53.793,6088565.0
21:20:53.833,6088621.0
21:20:53.873,6088592.0
21:20:53.913,6088482.0
21:20:53.953,6089039.0
21:20:53.993,6088557.0
21:20:54.033,6088334.0
21:20:54.073,6088527.0
21:20:54.113,6089621.0
21:20:54.153,6088901.0
21:20:54.193,6088761.0
21:20:54.233,6088945.0
21:20:54.273,6089099.0
21:20:54.313,6089327.0
21:20:54.353,6089854.0
21:20:54.393,6089300.0
21:20:54.939,6088519.0
21:20:54.979,6090398.0
21:20:55.019,6088661.0
21:20:55.059,6088633.0
21:20:55.099,6088901.0
21:20:55.139,6089224.0
21:20:55.179,6089793.0
21:20:55.219,6089659.0
21:20:55.259,6088981.0
21:20:55.299,6088593.0
21:20:55.339,6088620.0
21:20:55.379,6088610.0
21:20:55.419,6088555.0
21:20:55.459,6088518.0
21:20:55.499,6088561.0
21:20:55.539,6088770.0
21:20:55.579,6088362.0
21:20:55.619,6088223.0
21:20:55.659,6088088.0
21:20:55.699,6089723.0
21:20:55.739,6088624.0
21:20:55.779,6088487.0
21:20:55.819,6088517.0
21:20:55.859,6088856.0
21:20:55.899,6089277.0
21:20:55.939,6089669.0
21:20:55.979,6088909.0
21:20:56.019,6088523.0
21:20:56.059,6088436.0
21:20:56.099,6088472.0
21:20:56.139,6088425.0
21:20:56.179,6088327.0
21:20:56.219,6088465.0
21:20:56.259,6088706.0
21:20:56.299,6088313.0
21:20:56.339,6088282.0
21:20:56.379,6088152.0
21:20:56.419,6089690.0
21:20:56.459,6088536.0
21:20:56.499,6088678.0
21:20:56.539,6088611.0
21:20:56.579,6088969.0
21:20:56.619,6089648.0
21:20:56.659,6089503.0
21:20:56.699,6088721.0
21:20:56.739,6088550.0
21:20:56.779,6088585.0
21:20:56.819,6088731.0
21:20:56.859,6088680.0
21:20:56.899,6088601.0
21:20:56.939,6088829.0
21:20:56.979,6088708.0
21:20:57.019,6088453.0
21:20:57.059,6088340.0
21:20:57.099,6089072.0
21:20:57.139,6089045.0
21:20:57.179,6088689.0
21:20:57.219,6088796.0
21:20:57.259,6088847.0
21:20:57.299,6089364.0
21:20:57.339,6089745.0
21:20:57.379,6089552.0
21:20:57.419,6088723.0
21:20:57.459,6088699.0
21:20:57.499,6088713.0
21:20:57.539,6088674.0
21:20:57.579,6088888.0
21:20:57.619,6088629.0
21:20:57.659,6088795.0
21:20:57.699,6088879.0
21:20:57.739,6088787.0
21:20:57.779,6088553.0
21:20:57.819,6088320.0
21:20:57.859,6090822.0
21:20:57.899,6089174.0
21:20:57.939,6089126.0
21:20:57.979,6089252.0
21:20:58.019,6089694.0
21:20:58.059,6090039.0
21:20:58.099,6090053.0
21:20:58.139,6089357.0
21:20:58.179,6089184.0
21:20:58.219,6089096.0
21:20:58.259,6089169.0
21:20:58.299,6088890.0
21:20:58.339,6088937.0
21:20:58.379,6089103.0
21:20:58.419,6089234.0
21:20:58.459,6089240.0
21:20:58.499,6088857.0
21:20:58.539,6088713.0
21:20:58.579,6088901.0
21:20:58.619,6089246.0
21:20:58.659,6088921.0
21:20:58.699,6088952.0
21:20:58.739,6089169.0
21:20:58.779,6089405.0
21:20:58.819,6090104.0
21:20:58.859,6089810.0
21:20:58.899,6088947.0
21:20:59.443,6088890.0
21:20:59.483,6089151.0
21:20:59.523,6089268.0
21:20:59.563,6089258.0
21:20:59.603,6089390.0
21:20:59.643,6089963.0
21:20:59.683,6090086.0
21:20:59.723,6089498.0
21:20:59.763,6088937.0
21:20:59.803,6088881.0
21:20:59.843,6088979.0
21:20:59.883,6089070.0
21:20:59.923,6088957.0
21:20:59.963,6088887.0
21:21:00.003,6088849.0
21:21:00.043,6089082.0
21:21:00.083,6089132.0
21:21:00.123,6088866.0
21:21:00.163,6088928.0
21:21:00.203,6088706.0
21:21:00.243,6091022.0
21:21:00.283,6089093.0
21:21:00.323,6089018.0
21:21:00.363,6089139.0
21:21:00.403,6089349.0
21:21:00.443,6089870.0
21:21:00.483,6089752.0
21:21:00.523,6089172.0
21:21:00.563,6088795.0
21:21:00.603,6088809.0
21:21:00.643,6088897.0
21:21:00.683,6088855.0
21:21:00.723,6088721.0
21:21:00.763,6088670.0
21:21:00.803,6088781.0
21:21:00.843,6089060.0
21:21:00.883,6088646.0
21:21:00.923,6088704.0
21:21:00.963,6088730.0
21:21:01.003,6089704.0
21:21:01.043,6088975.0
21:21:01.083,6088764.0
21:21:01.123,6089134.0
21:21:01.163,6089179.0
21:21:01.203,6089789.0
21:21:01.243,6089525.0
21:21:01.283,6088948.0
21:21:01.323,6088671.0
21:21:01.363,6088819.0
21:21:01.403,6088782.0
21:21:01.443,6088812.0
21:21:01.483,6088690.0
21:21:01.523,6088793.0
21:21:01.563,6088950.0
21:21:01.603,6088686.0
21:21:01.643,6088718.0
21:21:01.683,6088620.0
21:21:01.723,6090755.0
21:21:01.763,6089361.0
21:21:01.803,6089250.0
21:21:01.843,6089384.0
21:21:01.883,6089599.0
21:21:01.923,6090085.0
21:21:01.963,6090071.0
21:21:02.003,6089515.0
21:21:02.043,6088941.0
21:21:02.083,6088963.0
21:21:02.123,6089008.0
21:21:02.163,6089031.0
21:21:02.203,6088898.0
21:21:02.243,6088928.0
21:21:02.283,6089066.0
21:21:02.323,6089363.0
21:21:02.363,6089015.0
21:21:02.403,6088841.0
21:21:02.443,6088901.0
21:21:02.483,6090677.0
21:21:02.523,6089546.0
21:21:02.563,6089126.0
21:21:02.603,6089186.0
21:21:02.643,6089468.0
21:21:02.683,6089748.0
21:21:02.723,6090228.0
21:21:02.763,6089545.0
21:21:02.803,6089045.0
21:21:02.843,6088869.0
21:21:02.883,6088933.0
21:21:02.923,6089006.0
21:21:02.963,6088884.0
21:21:03.003,6089079.0
21:21:03.043,6088850.0
21:21:03.083,6089322.0
21:21:03.123,6089129.0
21:21:03.163,6088827.0
21:21:03.203,6088818.0
21:21:03.243,6089726.0
21:21:03.283,6089087.0
21:21:03.323,6089044.0
21:21:03.363,6089282.0
21:21:03.403,6089301.0
21:21:04.152,6089781.0
21:21:04.192,6089216.0
21:21:04.232,6088850.0
21:21:04.272,6088977.0
21:21:04.312,6088803.0
21:21:04.352,6090059.0
21:21:04.392,6089021.0
21:21:04.432,6088945.0
21:21:04.472,6089275.0
21:21:04.512,6089633.0
21:21:04.552,6090266.0
21:21:04.592,6090064.0
21:21:04.632,6089336.0
21:21:04.672,6089079.0
21:21:04.712,6089122.0
21:21:04.752,6089279.0
21:21:04.792,6089066.0
21:21:04.832,6088972.0
21:21:04.872,6088945.0
21:21:04.912,6089127.0
21:21:04.952,6089497.0
21:21:04.992,6089144.0
21:21:05.032,6089000.0
21:21:05.072,6088891.0
21:21:05.112,6090229.0
21:21:05.152,6089466.0
21:21:05.192,6089011.0
21:21:05.232,6089220.0
21:21:05.272,6089221.0
21:21:05.312,6089857.0
21:21:05.352,6090036.0
21:21:05.392,6089659.0
21:21:05.432,6089193.0
21:21:05.472,6089017.0
21:21:05.512,6089031.0
21:21:05.552,6089090.0
21:21:05.592,6088981.0
21:21:05.632,6089033.0
21:21:05.672,6089028.0
21:21:05.712,6089613.0
21:21:05.752,6088961.0
21:21:05.792,6088838.0
21:21:05.832,6088784.0
21:21:05.872,6090109.0
21:21:05.912,6089389.0
21:21:05.952,6089068.0
21:21:05.992,6089051.0
21:21:06.032,6089316.0
21:21:06.072,6089790.0
21:21:06.112,6090263.0
21:21:06.152,6089454.0
21:21:06.192,6088983.0
21:21:06.232,6088873.0
21:21:06.272,6089054.0
21:21:06.312,6089196.0
21:21:06.352,6088982.0
21:21:06.392,6088885.0
21:21:06.432,6089024.0
21:21:06.472,6089197.0
21:21:06.512,6089317.0
21:21:06.552,6088917.0
21:21:06.592,6088865.0
21:21:06.632,6088910.0
21:21:06.672,6090854.0
21:21:06.712,6089291.0
21:21:06.752,6089090.0
21:21:06.792,6089263.0
21:21:06.832,6089449.0
21:21:06.872,6089833.0
21:21:06.912,6090103.0
21:21:06.952,6089426.0
21:21:06.992,6089109.0
21:21:07.032,6089123.0
21:21:07.072,6089248.0
21:21:07.112,6089210.0
21:21:07.152,6088837.0
21:21:07.192,6088798.0
21:21:07.232,6089093.0
21:21:07.272,6089235.0
21:21:07.312,6088886.0
21:21:07.352,6088791.0
21:21:07.392,6088772.0
21:21:07.432,6090544.0
21:21:07.472,6089154.0
21:21:07.512,6089263.0
21:21:07.552,6089475.0
21:21:07.592,6089616.0
21:21:07.632,6090075.0
21:21:07.672,6089940.0
21:21:07.712,6089236.0
21:21:07.752,6088791.0
21:21:07.792,6088857.0
21:21:07.832,6088872.0
21:21:07.872,6088902.0
21:21:07.912,6088794.0
21:21:07.952,6088731.0
21:21:07.992,6089135.0
21:21:08.032,6088707.0
21:21:08.072,6088715.0
21:21:08.112,6088544.0
21:21:08.454,6090250.0
21:21:08.494,6088939.0
21:21:08.534,6088921.0
21:21:08.574,6089064.0
21:21:08.614,6088747.0
21:21:08.654,6088722.0
21:21:08.694,6088757.0
21:21:08.734,6090489.0
21:21:08.774,6089290.0
21:21:08.814,6089007.0
21:21:08.854,6088980.0
21:21:08.894,6089419.0
21:21:08.934,6089911.0
21:21:08.974,6090168.0
21:21:09.014,6089446.0
21:21:09.054,6088957.0
21:21:09.094,6088914.0
21:21:09.134,6089104.0
21:21:09.174,6089216.0
21:21:09.214,6088951.0
21:21:09.254,6088863.0
21:21:09.294,6088984.0
21:21:09.334,6089125.0
21:21:09.374,6088954.0
21:21:09.414,6088825.0
21:21:09.454,6088890.0
21:21:09.494,6090627.0
21:21:09.534,6089334.0
21:21:09.574,6088967.0
21:21:09.614,6089135.0
21:21:09.654,6089451.0
21:21:09.694,6089840.0
21:21:09.734,6090127.0
21:21:09.774,6089520.0
21:21:09.814,6088970.0
21:21:09.854,6088971.0
21:21:09.894,6088872.0
21:21:09.934,6089186.0
21:21:09.974,6089030.0
21:21:10.014,6088978.0
21:21:10.054,6088961.0
21:21:10.094,6089040.0
21:21:10.134,6089359.0
21:21:10.174,6088879.0
21:21:10.214,6088801.0
21:21:10.254,6088796.0
21:21:10.294,6090165.0
21:21:10.334,6089408.0
21:21:10.374,6089003.0
21:21:10.414,6089156.0
21:21:10.454,6089267.0
21:21:10.494,6089830.0
21:21:10.534,6090267.0
21:21:10.574,6089674.0
21:21:10.614,6089119.0
21:21:10.654,6089187.0
21:21:10.694,6089115.0
21:21:10.734,6089395.0
21:21:10.774,6089206.0
21:21:10.814,6089222.0
21:21:10.854,6089292.0
21:21:10.894,6089520.0
21:21:10.934,6089092.0
21:21:10.974,6088875.0
21:21:11.014,6088942.0
21:21:11.054,6090373.0
21:21:11.094,6089417.0
21:21:11.134,6089294.0
21:21:11.174,6089335.0
21:21:11.214,6089539.0
21:21:11.254,6090052.0
21:21:11.294,6090345.0
21:21:11.334,6089749.0
21:21:11.374,6089148.0
21:21:11.414,6089171.0
21:21:11.454,6089415.0
21:21:11.494,6089342.0
21:21:11.534,6089457.0
21:21:11.574,6089270.0
21:21:11.614,6089520.0
21:21:11.654,6089760.0
21:21:11.694,6089244.0
21:21:11.734,6089272.0
21:21:11.774,6089423.0
21:21:11.814,6090152.0
21:21:11.854,6089420.0
21:21:11.894,6089572.0
21:21:11.934,6089627.0
21:21:11.974,6089988.0
21:21:12.014,6090442.0
21:21:12.054,6090277.0
21:21:12.094,6089490.0
21:21:12.134,6089172.0
21:21:12.174,6089457.0
21:21:12.214,6089595.0
21:21:12.254,6089557.0
21:21:12.294,6089601.0
21:21:12.334,6089509.0
21:21:12.374,6089675.0
21:21:12.414,6089870.0
21:21:12.965,6089670.0
21:21:13.005,6090752.0
21:21:13.045,6090348.0
21:21:13.085,6089873.0
21:21:13.125,6089553.0
21:21:13.165,6089609.0
21:21:13.205,6089690.0
21:21:13.245,6089487.0
21:21:13.285,6089392.0
21:21:13.325,6089667.0
21:21:13.365,6089668.0
21:21:13.405,6089331.0
21:21:13.445,6089245.0
21:21:13.485,6089135.0
21:21:13.525,6091286.0
21:21:13.565,6089686.0
21:21:13.605,6089574.0
21:21:13.645,6089752.0
21:21:13.685,6090016.0
21:21:13.725,6090507.0
21:21:13.765,6090536.0
21:21:13.805,6089997.0
21:21:13.845,6089719.0
21:21:13.885,6089610.0
21:21:13.925,6089488.0
21:21:13.965,6089744.0
21:21:14.005,6089424.0
21:21:14.045,6089441.0
21:21:14.085,6089753.0
21:21:14.125,6089760.0
21:21:14.165,6089233.0
21:21:14.205,6089332.0
21:21:14.245,6089396.0
21:21:14.285,6089784.0
21:21:14.325,6089383.0
21:21:14.365,6089475.0
21:21:14.405,6089609.0
21:21:14.445,6089935.0
21:21:14.485,6090623.0
21:21:14.525,6090349.0
21:21:14.565,6089655.0
21:21:14.605,6089340.0
21:21:14.645,6089437.0
21:21:14.685,6089557.0
21:21:14.725,6089702.0
21:21:14.765,6089477.0
21:21:14.805,6089651.0
21:21:14.845,6089899.0
21:21:14.885,6089574.0
21:21:14.925,6089324.0
21:21:14.965,6089348.0
21:21:15.005,6090492.0
21:21:15.045,6089848.0
21:21:15.085,6089588.0
21:21:15.125,6089666.0
21:21:15.165,6089852.0
21:21:15.205,6090221.0
21:21:15.245,6090775.0
21:21:15.285,6090171.0
21:21:15.325,6089651.0
21:21:15.365,6089467.0
21:21:15.405,6089541.0
21:21:15.445,6089719.0
21:21:15.485,6089544.0
21:21:15.525,6089613.0
21:21:15.565,6089659.0
21:21:15.605,6089970.0
21:21:15.645,6089563.0
21:21:15.685,6089501.0
21:21:15.725,6089553.0
21:21:15.765,6091622.0
21:21:15.805,6090095.0
21:21:15.845,6089729.0
21:21:15.885,6089836.0
21:21:15.925,6090013.0
21:21:15.965,6090488.0
21:21:16.005,6090877.0
21:21:16.045,6090071.0
21:21:16.085,6089561.0
21:21:16.125,6089525.0
21:21:16.165,6089584.0
21:21:16.205,6089537.0
21:21:16.245,6089440.0
21:21:16.285,6089547.0
21:21:16.325,6089500.0
21:21:16.365,6089795.0
21:21:16.405,6089786.0
21:21:16.445,6089396.0
21:21:16.485,6089364.0
21:21:16.525,6089653.0
21:21:16.565,6090047.0
21:21:16.605,6089533.0
21:21:16.645,6089697.0
21:21:16.685,6089822.0
21:21:16.725,6090350.0
21:21:16.765,6090810.0
21:21:16.805,6090381.0
21:21:16.845,6089748.0
21:21:16.885,6089500.0
21:21:16.925,6089556.0
21:21:17.461,6089706.0
21:21:17.501,6089999.0
21:21:17.541,6089784.0
21:21:17.581,6090117.0
21:21:17.621,6090261.0
21:21:17.661,6090801.0
21:21:17.701,6090826.0
21:21:17.741,6090210.0
21:21:17.781,6089753.0
21:21:17.821,6089632.0
21:21:17.861,6089739.0
21:21:17.901,6089929.0
21:21:17.941,6089807.0
21:21:17.981,6089805.0
21:21:18.021,6089633.0
21:21:18.061,6089993.0
21:21:18.101,6090052.0
21:21:18.141,6089600.0
21:21:18.181,6089600.0
21:21:18.221,6089641.0
21:21:18.261,6091177.0
21:21:18.301,6090033.0
21:21:18.341,6089871.0
21:21:18.381,6090052.0
21:21:18.421,6090296.0
21:21:18.461,6090845.0
21:21:18.501,6090615.0
21:21:18.541,6089884.0
21:21:18.581,6089552.0
21:21:18.621,6089687.0
21:21:18.661,6089477.0
21:21:18.701,6089745.0
21:21:18.741,6089540.0
21:21:18.781,6089623.0
21:21:18.821,6089528.0
21:21:18.861,6089636.0
21:21:18.901,6089975.0
21:21:18.941,6089871.0
21:21:18.981,6089555.0
21:21:19.021,6089499.0
21:21:19.061,6090196.0
21:21:19.101,6089962.0
21:21:19.141,6089777.0
21:21:19.181,6089777.0
21:21:19.221,6089869.0
21:21:19.261,6090406.0
21:21:19.301,6090873.0
21:21:19.341,6090375.0
21:21:19.381,6089807.0
21:21:19.421,6089644.0
21:21:19.461,6089790.0
21:21:19.501,6089668.0
21:21:19.541,6089736.0
21:21:19.581,6089634.0
21:21:19.621,6089640.0
21:21:19.661,6088869.0
21:21:19.701,6089954.0
21:21:19.741,6090185.0
21:21:19.781,6090003.0
21:21:19.821,6089707.0
21:21:19.861,6089656.0
21:21:19.901,6090701.0
21:21:19.941,6089984.0
21:21:19.981,6089861.0
21:21:20.021,6089959.0
21:21:20.061,6090027.0
21:21:20.101,6090454.0
21:21:20.141,6091060.0
21:21:20.181,6090402.0
21:21:20.221,6089815.0
21:21:20.261,6089637.0
21:21:20.301,6089809.0
21:21:20.341,6089879.0
21:21:20.381,6089669.0
21:21:20.421,6089695.0
21:21:20.461,6089615.0
21:21:20.501,6089718.0
21:21:20.541,6089935.0
21:21:20.581,6090045.0
21:21:20.621,6089740.0
21:21:20.661,6089703.0
21:21:20.701,6089614.0
21:21:20.741,6091412.0
21:21:20.781,6090186.0
21:21:20.821,6089971.0
21:21:20.861,6090080.0
21:21:20.901,6090275.0
21:21:20.941,6090720.0
21:21:20.981,6090979.0
21:21:21.021,6090271.0
21:21:21.061,6089799.0
21:21:21.101,6089724.0
21:21:21.141,6089797.0
21:21:21.181,6089918.0
21:21:21.221,6089779.0
21:21:21.261,6089663.0
21:21:21.301,6089733.0
21:21:21.341,6089691.0
21:21:21.381,6089725.0
21:21:21.421,6090038.0
21:21:22.791,6089987.0
21:21:22.831,6090884.0
21:21:22.871,6090283.0
21:21:22.911,6089717.0
21:21:22.951,6089675.0
21:21:22.991,6089854.0
21:21:23.031,6089880.0
21:21:23.071,6089811.0
21:21:23.111,6089857.0
21:21:23.151,6089572.0
21:21:23.191,6089599.0
21:21:23.231,6090138.0
21:21:23.271,6090006.0
21:21:23.311,6089584.0
21:21:23.351,6089577.0
21:21:23.391,6090121.0
21:21:23.431,6089558.0
21:21:23.471,6089893.0
21:21:23.511,6089913.0
21:21:23.551,6090005.0
21:21:23.591,6090451.0
21:21:23.631,6090911.0
21:21:23.671,6090683.0
21:21:23.711,6089886.0
21:21:23.751,6089726.0
21:21:23.791,6089871.0
21:21:23.831,6090012.0
21:21:23.871,6089936.0
21:21:23.911,6089877.0
21:21:23.951,6089895.0
21:21:23.991,6089985.0
21:21:24.031,6090096.0
21:21:24.071,6090086.0
21:21:24.111,6089916.0
21:21:24.151,6089707.0
21:21:24.191,6089683.0
21:21:24.231,6091817.0
21:21:24.271,6090078.0
21:21:24.311,6090000.0
21:21:24.351,6090036.0
21:21:24.391,6090388.0
21:21:24.431,6090706.0
21:21:24.471,6090872.0
21:21:24.511,6090008.0
21:21:24.551,6089707.0
21:21:24.591,6089656.0
21:21:24.631,6089737.0
21:21:24.671,6089772.0
21:21:24.711,6089579.0
21:21:24.751,6089673.0
21:21:24.791,6089614.0
21:21:24.831,6089800.0
21:21:24.871,6089733.0
21:21:24.911,6089502.0
21:21:24.951,6089433.0
21:21:24.991,6089490.0
21:21:25.031,6091280.0
21:21:25.071,6089449.0
21:21:25.111,6089350.0
21:21:25.151,6089472.0
21:21:25.191,6089941.0
21:21:25.231,6090696.0
21:21:25.271,6090788.0
21:21:25.311,6089672.0
21:21:25.351,6089922.0
21:21:25.391,6089766.0
21:21:25.431,6089683.0
21:21:25.471,6089907.0
21:21:25.511,6089921.0
21:21:25.551,6089920.0
21:21:25.591,6089728.0
21:21:25.631,6089793.0
21:21:25.671,6089945.0
21:21:25.711,6089769.0
21:21:25.751,6089706.0
21:21:25.791,6089815.0
21:21:25.831,6091763.0
21:21:25.871,6090703.0
21:21:25.911,6090125.0
21:21:25.951,6090285.0
21:21:25.991,6090234.0
21:21:26.031,6090741.0
21:21:26.071,6090975.0
21:21:26.111,6090235.0
21:21:26.151,6089954.0
21:21:26.191,6090024.0
21:21:26.231,6089963.0
21:21:26.271,6090029.0
21:21:26.311,6089917.0
21:21:26.351,6089951.0
21:21:26.391,6089999.0
21:21:26.431,6089974.0
21:21:26.471,6090130.0
21:21:26.511,6090327.0
21:21:26.551,6089904.0
21:21:26.591,6089717.0
21:21:26.631,6089637.0
21:21:26.671,6092022.0
21:21:26.711,6090132.0
21:21:26.751,6089917.0
21:21:26.279,6090206.0
21:21:26.319,6089776.0
21:21:26.359,6089701.0
21:21:26.399,6089675.0
21:21:26.439,6089797.0
21:21:26.479,6089874.0
21:21:26.519,6089522.0
21:21:26.559,6089422.0
21:21:26.599,6089171.0
21:21:26.639,6091222.0
21:21:26.679,6089656.0
21:21:26.719,6089524.0
21:21:26.759,6089621.0
21:21:26.799,6090052.0
21:21:26.839,6090266.0
21:21:26.879,6090505.0
21:21:26.919,6089732.0
21:21:26.959,6089454.0
21:21:26.999,6089447.0
21:21:27.039,6089297.0
21:21:27.079,6089597.0
21:21:27.119,6089729.0
21:21:27.159,6089271.0
21:21:27.199,6090168.0
21:21:27.239,6089929.0
21:21:27.279,6089484.0
21:21:27.319,6089460.0
21:21:27.359,6089403.0
21:21:27.399,6090708.0
21:21:27.439,6090061.0
21:21:27.479,6089586.0
21:21:27.519,6089672.0
21:21:27.559,6090066.0
21:21:27.599,6090474.0
21:21:27.639,6090813.0
21:21:27.679,6090240.0
21:21:27.719,6089706.0
21:21:27.759,6089693.0
21:21:27.799,6089792.0
21:21:27.839,6089828.0
21:21:27.879,6089693.0
21:21:27.919,6089585.0
21:21:27.959,6090055.0
21:21:27.999,6089828.0
21:21:28.039,6089583.0
21:21:28.079,6089486.0
21:21:28.119,6089846.0
21:21:28.159,6089370.0
21:21:28.199,6089514.0
21:21:28.239,6089595.0
21:21:28.279,6089763.0
21:21:28.319,6090180.0
21:21:28.359,6090779.0
21:21:28.399,6090342.0
21:21:28.439,6089899.0
21:21:28.479,6089623.0
21:21:28.519,6089731.0
21:21:28.559,6089734.0
21:21:28.599,6089789.0
21:21:28.639,6089666.0
21:21:28.679,6090034.0
21:21:28.719,6089941.0
21:21:28.759,6089557.0
21:21:28.799,6089531.0
21:21:28.839,6089816.0
21:21:28.879,6090160.0
21:21:28.919,6089746.0
21:21:28.959,6089746.0
21:21:28.999,6089818.0
21:21:29.039,6090229.0
21:21:29.079,6090569.0
21:21:29.119,6090233.0
21:21:29.159,6089575.0
21:21:29.199,6089337.0
21:21:29.239,6089421.0
21:21:29.279,6089445.0
21:21:29.319,6089428.0
21:21:29.359,6089426.0
21:21:29.399,6089385.0
21:21:29.439,6089422.0
21:21:29.479,6089823.0
21:21:29.519,6089693.0
21:21:29.559,6089368.0
21:21:29.599,6089238.0
21:21:29.639,6089660.0
21:21:29.679,6090154.0
21:21:29.719,6089422.0
21:21:29.759,6089510.0
21:21:29.799,6089615.0
21:21:29.839,6089891.0
21:21:29.879,6090524.0
21:21:29.919,6090074.0
21:21:29.959,6089398.0
21:21:29.999,6089228.0
21:21:30.039,6089250.0
21:21:30.079,6089343.0
21:21:30.119,6089273.0
21:21:30.159,6089227.0
21:21:30.199,6089235.0
21:21:30.239,6089409.0
21:21:30.793,6089589.0
21:21:30.833,6090330.0
21:21:30.873,6089794.0
21:21:30.913,6089095.0
21:21:30.953,6088974.0
21:21:30.993,6089046.0
21:21:31.033,6089001.0
21:21:31.073,6089006.0
21:21:31.113,6088885.0
21:21:31.153,6088905.0
21:21:31.193,6088959.0
21:21:31.233,6089133.0
21:21:31.273,6089174.0
21:21:31.313,6088903.0
21:21:31.353,6088980.0
21:21:31.393,6088753.0
21:21:31.433,6091155.0
21:21:31.473,6089431.0
21:21:31.513,6089181.0
21:21:31.553,6089316.0
21:21:31.593,6089519.0
21:21:31.633,6089923.0
21:21:31.673,6090009.0
21:21:31.713,6089488.0
21:21:31.753,6088903.0
21:21:31.793,6088869.0
21:21:31.833,6088898.0
21:21:31.873,6088982.0
21:21:31.913,6088903.0
21:21:31.953,6088881.0
21:21:31.993,6088955.0
21:21:32.033,6088942.0
21:21:32.073,6089107.0
21:21:32.113,6089292.0
21:21:32.153,6089016.0
21:21:32.193,6089021.0
21:21:32.233,6088915.0
21:21:32.273,6090661.0
21:21:32.313,6089464.0
21:21:32.353,6089271.0
21:21:32.393,6089440.0
21:21:32.433,6089653.0
21:21:32.473,6090161.0
21:21:32.513,6090168.0
21:21:32.553,6089481.0
21:21:32.593,6088925.0
21:21:32.633,6088965.0
21:21:32.673,6089068.0
21:21:32.713,6089116.0
21:21:32.753,6089015.0
21:21:32.793,6088965.0
21:21:32.833,6089015.0
21:21:32.873,6088897.0
21:21:32.913,6089376.0
21:21:32.953,6089024.0
21:21:32.993,6088864.0
21:21:33.033,6088859.0
21:21:33.073,6089560.0
21:21:33.113,6089013.0
21:21:33.153,6089146.0
21:21:33.193,6089242.0
21:21:33.233,6089451.0
21:21:33.273,6089833.0
21:21:33.313,6090233.0
21:21:33.353,6089948.0
21:21:33.393,6089240.0
21:21:33.433,6089138.0
21:21:33.473,6089158.0
21:21:33.513,6089268.0
21:21:33.553,6089346.0
21:21:33.593,6089211.0
21:21:33.633,6089116.0
21:21:33.673,6089152.0
21:21:33.713,6089326.0
21:21:33.753,6089321.0
21:21:33.793,6089039.0
21:21:33.833,6089020.0
21:21:33.873,6088842.0
21:21:33.913,6091300.0
21:21:33.953,6089406.0
21:21:33.993,6089140.0
21:21:34.033,6089291.0
21:21:34.073,6089478.0
21:21:34.113,6089905.0
21:21:34.153,6089913.0
21:21:34.193,6089177.0
21:21:34.233,6088771.0
21:21:34.273,6088747.0
21:21:34.313,6088832.0
21:21:34.353,6088833.0
21:21:34.393,6088831.0
21:21:34.433,6088780.0
21:21:34.473,6088802.0
21:21:34.513,6088809.0
21:21:34.553,6088637.0
21:21:34.593,6088617.0
21:21:34.633,6089030.0
21:21:34.673,6088937.0
21:21:34.713,6088564.0
21:21:34.753,6088531.0
21:21:37.948,6089158.0
21:21:37.988,6088620.0
21:21:38.028,6088585.0
21:21:38.068,6088496.0
21:21:38.108,6088387.0
21:21:38.148,6088309.0
21:21:38.188,6088230.0
21:21:38.228,6088200.0
21:21:38.268,6088337.0
21:21:38.308,6088352.0
21:21:38.348,6088024.0
21:21:38.388,6087938.0
21:21:38.428,6088092.0
21:21:38.468,6090119.0
21:21:38.508,6088549.0
21:21:38.548,6088515.0
21:21:38.588,6088537.0
21:21:38.628,6088796.0
21:21:38.668,6089211.0
21:21:38.708,6089345.0
21:21:38.748,6088634.0
21:21:38.788,6088273.0
21:21:38.828,6088258.0
21:21:38.868,6088262.0
21:21:38.908,6088276.0
21:21:38.948,6088148.0
21:21:38.988,6087994.0
21:21:39.028,6087924.0
21:21:39.068,6088361.0
21:21:39.108,6088135.0
21:21:39.148,6087746.0
21:21:39.188,6087921.0
21:21:39.228,6088766.0
21:21:39.268,6088219.0
21:21:39.308,6088085.0
21:21:39.348,6088236.0
21:21:39.388,6088433.0
21:21:39.428,6088916.0
21:21:39.468,6089361.0
21:21:39.508,6088859.0
21:21:39.548,6088270.0
21:21:39.588,6088116.0
21:21:39.628,6088140.0
21:21:39.668,6088220.0
21:21:39.708,6088129.0
21:21:39.748,6087985.0
21:21:39.788,6088203.0
21:21:39.828,6088187.0
21:21:39.868,6088008.0
21:21:39.908,6088006.0
21:21:39.948,6088083.0
21:21:39.988,6088632.0
21:21:40.028,6088177.0
21:21:40.068,6088349.0
21:21:40.108,6088666.0
21:21:40.148,6089017.0
21:21:40.188,6089475.0
21:21:40.228,6089202.0
21:21:40.268,6088555.0
21:21:40.308,6088189.0
21:21:40.348,6088280.0
21:21:40.388,6088286.0
21:21:40.428,6088317.0
21:21:40.468,6088160.0
21:21:40.508,6088232.0
21:21:40.548,6088249.0
21:21:40.588,6088327.0
21:21:40.628,6088007.0
21:21:40.668,6087975.0
21:21:40.708,6087791.0
21:21:40.748,6089544.0
21:21:40.788,6088171.0
21:21:40.828,6088089.0
21:21:40.868,6088307.0
21:21:40.908,6088495.0
21:21:40.948,6089060.0
21:21:40.988,6089065.0
21:21:41.028,6088208.0
21:21:41.068,6088118.0
21:21:41.108,6088063.0
21:21:41.148,6088155.0
21:21:41.188,6088059.0
21:21:41.228,6088045.0
21:21:41.268,6087965.0
21:21:41.308,6087890.0
21:21:41.348,6087734.0
21:21:41.388,6087960.0
21:21:41.428,6088096.0
21:21:41.468,6087765.0
21:21:41.508,6087672.0
21:21:41.548,6087595.0
21:21:41.588,6088788.0
21:21:41.628,6088428.0
21:21:41.668,6087786.0
21:21:41.708,6087969.0
21:21:41.748,6088188.0
21:21:41.788,6088592.0
21:21:41.828,6088979.0
21:21:41.868,6088489.0
21:21:41.908,6087931.0
21:21:42.452,6087789.0
21:21:42.492,6087036.0
21:21:42.532,6087020.0
21:21:42.572,6087439.0
21:21:42.612,6087101.0
21:21:42.652,6086811.0
21:21:42.692,6086842.0
21:21:42.732,6087664.0
21:21:42.772,6087314.0
21:21:42.812,6086977.0
21:21:42.852,6087080.0
21:21:42.892,6087129.0
21:21:42.932,6087697.0
21:21:42.972,6088204.0
21:21:43.012,6087823.0
21:21:43.052,6087105.0
21:21:43.092,6086993.0
