Time,Ecg1
19:35:18.315,-538.0
19:35:18.355,-673.0
19:35:18.395,-637.0
19:35:18.435,-547.0
19:35:18.475,-513.0
19:35:18.515,-537.0
19:35:18.555,-481.0
19:35:18.595,-321.0
19:35:18.635,-156.0
19:35:18.675,-271.0
19:35:18.715,-378.0
19:35:18.755,1527.0
19:35:18.795,1363.0
19:35:18.835,357.0
19:35:18.875,-88.0
19:35:18.915,-146.0
19:35:18.955,38.0
19:35:18.995,35.0
19:35:19.035,-263.0
19:35:19.075,-466.0
19:35:19.115,-562.0
19:35:19.155,-569.0
19:35:19.195,-521.0
19:35:19.235,-450.0
19:35:19.275,-452.0
19:35:19.315,-449.0
19:35:19.355,-458.0
19:35:19.395,-385.0
19:35:19.435,-112.0
19:35:19.475,-125.0
19:35:19.515,-187.0
19:35:19.555,-446.0
19:35:19.595,767.0
19:35:19.635,273.0
19:35:19.675,-23.0
19:35:19.715,-47.0
19:35:19.755,200.0
19:35:19.795,364.0
19:35:19.835,154.0
19:35:19.875,-94.0
19:35:19.915,-205.0
19:35:19.955,-213.0
19:35:19.995,-165.0
19:35:20.035,-140.0
19:35:20.075,-131.0
19:35:20.115,-186.0
19:35:20.155,-159.0
19:35:20.195,-129.0
19:35:20.235,-56.0
19:35:20.275,176.0
19:35:20.315,-24.0
19:35:20.355,-116.0
19:35:20.395,62.0
19:35:20.435,849.0
19:35:20.475,348.0
19:35:20.515,119.0
19:35:20.555,148.0
19:35:20.595,348.0
19:35:20.635,468.0
19:35:20.675,203.0
19:35:20.715,-40.0
19:35:20.755,-157.0
19:35:20.795,-190.0
19:35:20.835,-167.0
19:35:20.875,-99.0
19:35:20.915,-126.0
19:35:20.955,-126.0
19:35:20.995,-149.0
19:35:21.035,-131.0
19:35:21.075,-38.0
19:35:21.115,178.0
19:35:21.155,-16.0
19:35:21.195,-139.0
19:35:21.235,266.0
19:35:21.275,843.0
19:35:21.315,343.0
19:35:21.355,109.0
19:35:21.395,124.0
19:35:21.435,382.0
19:35:21.475,427.0
19:35:21.515,153.0
19:35:21.555,-117.0
19:35:21.595,-262.0
19:35:21.635,-338.0
19:35:21.675,-300.0
19:35:21.715,-262.0
19:35:21.755,-205.0
19:35:21.795,-215.0
19:35:21.835,-193.0
19:35:21.875,-182.0
19:35:21.915,-27.0
19:35:21.955,-118.0
19:35:21.995,-198.0
19:35:22.035,-461.0
19:35:22.075,578.0
19:35:22.115,163.0
19:35:22.155,-46.0
19:35:22.195,-104.0
19:35:22.235,71.0
19:35:22.275,237.0
19:35:20.187,-51.0
19:35:20.227,-377.0
19:35:20.267,-501.0
19:35:20.307,-494.0
19:35:20.347,-422.0
19:35:20.387,-337.0
19:35:20.427,-331.0
19:35:20.467,-352.0
19:35:20.507,-341.0
19:35:20.547,-267.0
19:35:20.587,-91.0
19:35:20.627,-102.0
19:35:20.667,-186.0
19:35:20.707,-586.0
19:35:20.747,1225.0
19:35:20.787,651.0
19:35:20.827,178.0
19:35:20.867,36.0
19:35:20.907,202.0
19:35:20.947,396.0
19:35:20.987,218.0
19:35:21.027,-54.0
19:35:21.067,-181.0
19:35:21.107,-229.0
19:35:21.147,-190.0
19:35:21.187,-91.0
19:35:21.227,-89.0
19:35:21.267,-122.0
19:35:21.307,-160.0
19:35:21.347,-155.0
19:35:21.387,-129.0
19:35:21.427,15.0
19:35:21.467,53.0
19:35:21.507,-46.0
19:35:21.547,-504.0
19:35:21.587,1685.0
19:35:21.627,1129.0
19:35:21.667,404.0
19:35:21.707,159.0
19:35:21.747,259.0
19:35:21.787,486.0
19:35:21.827,361.0
19:35:21.867,86.0
19:35:21.907,-105.0
19:35:21.947,-188.0
19:35:21.987,-159.0
19:35:22.027,-164.0
19:35:22.067,-206.0
19:35:22.107,-249.0
19:35:22.147,-268.0
19:35:22.187,-210.0
19:35:22.227,-143.0
19:35:22.267,-62.0
19:35:22.307,186.0
19:35:22.347,11.0
19:35:22.387,-82.0
19:35:22.427,11.0
19:35:22.467,846.0
19:35:22.507,447.0
19:35:22.547,218.0
19:35:22.587,169.0
19:35:22.627,391.0
19:35:22.667,464.0
19:35:22.707,202.0
19:35:22.747,-81.0
19:35:22.787,-274.0
19:35:22.827,-319.0
19:35:22.867,-317.0
19:35:22.907,-245.0
19:35:22.947,-222.0
19:35:22.987,-251.0
19:35:23.027,-277.0
19:35:23.067,-294.0
19:35:23.107,-260.0
19:35:23.147,-298.0
19:35:23.187,-388.0
19:35:23.227,-706.0
19:35:23.267,1602.0
19:35:23.307,860.0
19:35:23.347,73.0
19:35:23.387,-235.0
19:35:23.427,-190.0
19:35:23.467,29.0
19:35:23.507,-81.0
19:35:23.547,-314.0
19:35:23.587,-426.0
19:35:23.627,-440.0
19:35:23.667,-412.0
19:35:23.707,-293.0
19:35:23.747,-250.0
19:35:23.787,-245.0
19:35:23.827,-272.0
19:35:23.867,-246.0
19:35:23.907,-206.0
19:35:23.947,-82.0
19:35:23.987,-34.0
19:35:24.027,-111.0
19:35:24.067,-435.0
19:35:24.107,2038.0
19:35:24.147,1295.0
19:35:22.455,474.0
19:35:22.495,331.0
19:35:22.535,490.0
19:35:22.575,413.0
19:35:22.615,118.0
19:35:22.655,-81.0
19:35:22.695,-147.0
19:35:22.735,-136.0
19:35:22.775,-51.0
19:35:22.815,-5.0
19:35:22.855,-11.0
19:35:22.895,-21.0
19:35:22.935,-17.0
19:35:22.975,-9.0
19:35:23.015,-21.0
19:35:23.055,56.0
19:35:23.095,128.0
19:35:23.135,-137.0
19:35:23.175,-268.0
19:35:23.215,-13.0
19:35:23.255,576.0
19:35:23.295,108.0
19:35:23.335,-177.0
19:35:23.375,-225.0
19:35:23.415,-20.0
19:35:23.455,113.0
19:35:23.495,-117.0
19:35:23.535,-315.0
19:35:23.575,-369.0
19:35:23.615,-381.0
19:35:23.655,-265.0
19:35:23.695,-225.0
19:35:23.735,-220.0
19:35:23.775,-200.0
19:35:23.815,-157.0
19:35:23.855,-85.0
19:35:23.895,-47.0
19:35:23.935,121.0
19:35:23.975,165.0
19:35:24.015,17.0
19:35:24.055,-540.0
19:35:24.095,1555.0
19:35:24.135,1001.0
19:35:24.175,344.0
19:35:24.215,168.0
19:35:24.255,301.0
19:35:24.295,567.0
19:35:24.335,486.0
19:35:24.375,307.0
19:35:24.415,234.0
19:35:24.455,293.0
19:35:24.495,399.0
19:35:24.535,543.0
19:35:24.575,550.0
19:35:24.615,456.0
19:35:24.655,315.0
19:35:24.695,206.0
19:35:24.735,140.0
19:35:24.775,132.0
19:35:24.815,214.0
19:35:24.855,44.0
19:35:24.895,-84.0
19:35:24.935,2659.0
19:35:24.975,1883.0
19:35:25.015,689.0
19:35:25.055,195.0
19:35:25.095,154.0
19:35:25.135,406.0
19:35:25.175,382.0
19:35:25.215,123.0
19:35:25.255,-63.0
19:35:25.295,-152.0
19:35:25.335,-228.0
19:35:25.375,-261.0
19:35:25.415,-246.0
19:35:25.455,176.0
19:35:25.495,450.0
19:35:25.535,408.0
19:35:25.575,253.0
19:35:25.615,166.0
19:35:25.655,-289.0
19:35:25.695,-650.0
19:35:25.735,-881.0
19:35:25.775,23.0
19:35:25.815,-156.0
19:35:25.855,-374.0
19:35:25.895,-283.0
19:35:25.935,116.0
19:35:25.975,217.0
19:35:26.015,-106.0
19:35:26.055,-442.0
19:35:26.095,-697.0
19:35:26.135,-785.0
19:35:26.175,-864.0
19:35:26.215,-877.0
19:35:26.255,-991.0
19:35:26.295,-991.0
19:35:26.335,-932.0
19:35:26.375,-825.0
19:35:26.415,-647.0
19:35:30.352,-705.0
19:35:30.392,479.0
19:35:30.432,735.0
19:35:30.472,1.0
19:35:30.512,-331.0
19:35:30.552,-264.0
19:35:30.592,12.0
19:35:30.632,120.0
19:35:30.672,-104.0
19:35:30.712,-269.0
19:35:30.752,-341.0
19:35:30.792,-350.0
19:35:30.832,-295.0
19:35:30.872,-255.0
19:35:30.912,-235.0
19:35:30.952,-250.0
19:35:30.992,-73.0
19:35:31.032,84.0
19:35:31.072,91.0
19:35:31.112,-234.0
19:35:31.152,1814.0
19:35:31.192,1360.0
19:35:31.232,746.0
19:35:31.272,502.0
19:35:31.312,603.0
19:35:31.352,870.0
19:35:31.392,745.0
19:35:31.432,474.0
19:35:31.472,281.0
19:35:31.512,207.0
19:35:31.552,174.0
19:35:31.592,189.0
19:35:31.632,126.0
19:35:31.672,55.0
19:35:31.712,46.0
19:35:31.752,251.0
19:35:31.792,33.0
19:35:31.832,-59.0
19:35:31.872,383.0
19:35:31.912,1009.0
19:35:31.952,491.0
19:35:31.992,221.0
19:35:32.032,198.0
19:35:32.072,519.0
19:35:32.112,648.0
19:35:32.152,372.0
19:35:32.192,125.0
19:35:32.232,24.0
19:35:32.272,-8.0
19:35:32.312,1.0
19:35:32.352,12.0
19:35:32.392,-5.0
19:35:32.432,-56.0
19:35:32.472,-97.0
19:35:32.512,-89.0
19:35:32.552,-248.0
19:35:32.592,-460.0
19:35:32.632,2573.0
19:35:32.672,1377.0
19:35:32.712,129.0
19:35:32.752,-414.0
19:35:32.792,-454.0
19:35:32.832,-192.0
19:35:32.872,-176.0
19:35:32.912,-385.0
19:35:32.952,-529.0
19:35:32.992,-517.0
19:35:33.032,-479.0
19:35:33.072,-439.0
19:35:33.112,-408.0
19:35:33.152,-377.0
19:35:33.192,-305.0
19:35:33.232,-222.0
19:35:33.272,17.0
19:35:33.312,-117.0
19:35:33.352,-194.0
19:35:33.392,-78.0
19:35:33.432,747.0
19:35:33.472,289.0
19:35:33.512,39.0
19:35:33.552,39.0
19:35:33.592,281.0
19:35:33.632,425.0
19:35:33.672,94.0
19:35:33.712,-164.0
19:35:33.752,-275.0
19:35:33.792,-295.0
19:35:33.832,-265.0
19:35:33.872,-244.0
19:35:33.912,-204.0
19:35:33.952,-209.0
19:35:33.992,-163.0
19:35:34.032,-90.0
19:35:34.072,165.0
19:35:34.112,-6.0
19:35:34.152,-110.0
19:35:34.192,-235.0
19:35:34.232,728.0
19:35:34.272,373.0
19:35:34.312,118.0
19:35:42.523,63.0
19:35:42.563,313.0
19:35:42.603,148.0
19:35:42.643,-138.0
19:35:42.683,-326.0
19:35:42.723,-359.0
19:35:42.763,-341.0
19:35:42.803,-273.0
19:35:42.843,-255.0
19:35:42.883,-351.0
19:35:42.923,-276.0
19:35:42.963,-162.0
19:35:43.003,86.0
19:35:43.043,56.0
19:35:43.083,9.0
19:35:43.123,670.0
19:35:43.163,1199.0
19:35:43.203,530.0
19:35:43.243,143.0
19:35:43.283,-11.0
19:35:43.323,151.0
19:35:43.363,187.0
19:35:43.403,-174.0
19:35:43.443,-464.0
19:35:43.483,-627.0
19:35:43.523,-658.0
19:35:43.563,-674.0
19:35:43.603,-709.0
19:35:43.643,-748.0
19:35:43.683,-754.0
19:35:43.723,-757.0
19:35:43.763,-774.0
19:35:43.803,-682.0
19:35:43.843,-595.0
19:35:43.883,-696.0
19:35:43.923,-799.0
19:35:43.963,2184.0
19:35:44.003,1093.0
19:35:44.043,-29.0
19:35:44.083,-476.0
19:35:44.123,-513.0
19:35:44.163,-293.0
19:35:44.203,-328.0
19:35:44.243,-659.0
19:35:44.283,-814.0
19:35:44.323,-842.0
19:35:44.363,-762.0
19:35:44.403,-711.0
19:35:44.443,-701.0
19:35:44.483,-689.0
19:35:44.523,-660.0
19:35:44.563,-616.0
19:35:44.603,-550.0
19:35:44.643,-476.0
19:35:44.683,-206.0
19:35:44.723,-323.0
19:35:44.763,-394.0
19:35:44.803,-535.0
19:35:44.843,599.0
19:35:44.883,172.0
19:35:44.923,-50.0
19:35:44.963,-26.0
19:35:45.003,192.0
19:35:45.043,300.0
19:35:45.083,102.0
19:35:45.123,-177.0
19:35:45.163,-333.0
19:35:45.203,-368.0
19:35:45.243,-396.0
19:35:45.283,-325.0
19:35:45.323,-357.0
19:35:45.363,-382.0
19:35:45.403,-376.0
19:35:45.443,-367.0
19:35:45.483,-296.0
19:35:45.523,-33.0
19:35:45.563,-187.0
19:35:45.603,-293.0
19:35:45.643,-241.0
19:35:45.683,604.0
19:35:45.723,166.0
19:35:45.763,-62.0
19:35:45.803,-31.0
19:35:45.843,194.0
19:35:45.883,345.0
19:35:45.923,86.0
19:35:45.963,-154.0
19:35:46.003,-305.0
19:35:46.043,-315.0
19:35:46.083,-315.0
19:35:46.123,-277.0
19:35:46.163,-286.0
19:35:46.203,-310.0
19:35:46.243,-305.0
19:35:46.283,-327.0
19:35:46.323,-251.0
19:35:46.363,-67.0
19:35:46.403,-263.0
19:35:46.443,-380.0
19:35:46.483,705.0
19:35:46.952,1057.0
19:35:46.992,325.0
19:35:47.032,154.0
19:35:47.072,254.0
19:35:47.112,324.0
19:35:47.152,50.0
19:35:47.192,-180.0
19:35:47.232,-257.0
19:35:47.272,-281.0
19:35:47.312,-227.0
19:35:47.352,-179.0
19:35:47.392,-229.0
19:35:47.432,-287.0
19:35:47.472,-251.0
19:35:47.512,-201.0
19:35:47.552,-108.0
19:35:47.592,10.0
19:35:47.632,-47.0
19:35:47.672,-333.0
19:35:47.712,2333.0
19:35:47.752,1398.0
19:35:47.792,579.0
19:35:47.832,293.0
19:35:47.872,331.0
19:35:47.912,453.0
19:35:47.952,283.0
19:35:47.992,-45.0
19:35:48.032,-279.0
19:35:48.072,-371.0
19:35:48.112,-372.0
19:35:48.152,-352.0
19:35:48.192,-346.0
19:35:48.232,-389.0
19:35:48.272,-439.0
19:35:48.312,-365.0
19:35:48.352,-184.0
19:35:48.392,-332.0
19:35:48.432,-446.0
19:35:48.472,189.0
19:35:48.512,688.0
19:35:48.552,119.0
19:35:48.592,-117.0
19:35:48.632,-90.0
19:35:48.672,67.0
19:35:48.712,140.0
19:35:48.752,-66.0
19:35:48.792,-281.0
19:35:48.832,-469.0
19:35:48.872,-557.0
19:35:48.912,-614.0
19:35:48.952,-645.0
19:35:48.992,-686.0
19:35:49.032,-741.0
19:35:49.072,-711.0
19:35:49.112,-599.0
19:35:49.152,-440.0
19:35:49.192,-557.0
19:35:49.232,-691.0
19:35:49.272,1456.0
19:35:49.312,1124.0
19:35:49.352,147.0
19:35:49.392,-243.0
19:35:49.432,-98.0
19:35:49.472,183.0
19:35:49.512,348.0
19:35:49.552,158.0
19:35:49.592,10.0
19:35:49.632,-54.0
19:35:49.672,-48.0
19:35:49.712,20.0
19:35:49.752,49.0
19:35:49.792,99.0
19:35:49.832,113.0
19:35:49.872,260.0
19:35:49.912,530.0
19:35:49.952,689.0
19:35:49.992,712.0
19:35:50.032,309.0
19:35:50.072,2218.0
19:35:50.112,1765.0
19:35:50.152,1006.0
19:35:50.192,641.0
19:35:50.232,709.0
19:35:50.272,832.0
19:35:50.312,605.0
19:35:50.352,265.0
19:35:50.392,73.0
19:35:50.432,35.0
19:35:50.472,71.0
19:35:50.512,135.0
19:35:50.552,164.0
19:35:50.592,122.0
19:35:50.632,44.0
19:35:50.672,68.0
19:35:50.712,110.0
19:35:50.752,-94.0
19:35:50.792,-266.0
19:35:50.832,993.0
19:35:50.872,1068.0
19:35:50.912,242.0
19:35:49.623,-145.0
19:35:49.663,126.0
19:35:49.703,300.0
19:35:49.743,138.0
19:35:49.783,-26.0
19:35:49.823,-85.0
19:35:49.863,-104.0
19:35:49.903,-41.0
19:35:49.943,12.0
19:35:49.983,-26.0
19:35:50.023,-45.0
19:35:50.063,-36.0
19:35:50.103,-22.0
19:35:50.143,153.0
19:35:50.183,152.0
19:35:50.223,87.0
19:35:50.263,-320.0
19:35:50.303,1378.0
19:35:50.343,1021.0
19:35:50.383,608.0
19:35:50.423,529.0
19:35:50.463,744.0
19:35:50.503,1061.0
19:35:50.543,1007.0
19:35:50.583,813.0
19:35:50.623,610.0
19:35:50.663,480.0
19:35:50.703,369.0
19:35:50.743,302.0
19:35:50.783,169.0
19:35:50.823,79.0
19:35:50.863,-136.0
19:35:50.903,-352.0
19:35:50.943,-525.0
19:35:50.983,-565.0
19:35:51.023,-784.0
19:35:51.063,-992.0
19:35:51.103,1546.0
19:35:51.143,808.0
19:35:51.183,-276.0
19:35:51.223,-701.0
19:35:51.263,-731.0
19:35:51.303,-474.0
19:35:51.343,-498.0
19:35:51.383,-699.0
19:35:51.423,-846.0
19:35:51.463,-839.0
19:35:51.503,-784.0
19:35:51.543,-697.0
19:35:51.583,-636.0
19:35:51.623,-578.0
19:35:51.663,-561.0
19:35:51.703,-530.0
19:35:51.743,-477.0
19:35:51.783,-378.0
19:35:51.823,-165.0
19:35:51.863,-403.0
19:35:51.903,-534.0
19:35:51.943,-133.0
19:35:51.983,514.0
19:35:52.023,-88.0
19:35:52.063,-355.0
19:35:52.103,-309.0
19:35:52.143,-56.0
19:35:52.183,99.0
19:35:52.223,-96.0
19:35:52.263,-260.0
19:35:52.303,-299.0
19:35:52.343,-300.0
19:35:52.383,-259.0
19:35:52.423,-214.0
19:35:52.463,-217.0
19:35:52.503,-197.0
19:35:52.543,-216.0
19:35:52.583,-205.0
19:35:52.623,-197.0
19:35:52.663,-138.0
19:35:52.703,-70.0
19:35:52.743,-143.0
19:35:52.783,-380.0
19:35:52.823,2479.0
19:35:52.863,1335.0
19:35:52.903,386.0
19:35:52.943,-27.0
19:35:52.983,19.0
19:35:53.023,185.0
19:35:53.063,94.0
19:35:53.103,-208.0
19:35:53.143,-321.0
19:35:53.183,-325.0
19:35:53.223,-346.0
19:35:53.263,-279.0
19:35:53.303,-286.0
19:35:53.343,-268.0
19:35:53.383,-294.0
19:35:53.423,-238.0
19:35:53.463,-215.0
19:35:53.503,-143.0
19:35:53.543,27.0
19:35:53.583,-158.0
19:35:50.709,-272.0
19:35:50.749,752.0
19:35:50.789,220.0
19:35:50.829,-12.0
19:35:50.869,-17.0
19:35:50.909,211.0
19:35:50.949,401.0
19:35:50.989,161.0
19:35:51.029,-89.0
19:35:51.069,-198.0
19:35:51.109,-223.0
19:35:51.149,-229.0
19:35:51.189,-182.0
19:35:51.229,-193.0
19:35:51.269,-213.0
19:35:51.309,-224.0
19:35:51.349,-203.0
19:35:51.389,-213.0
19:35:51.429,-62.0
19:35:51.469,-105.0
19:35:51.509,-218.0
19:35:51.549,-617.0
19:35:51.589,865.0
19:35:51.629,371.0
19:35:51.669,91.0
19:35:51.709,45.0
19:35:51.749,234.0
19:35:51.789,401.0
19:35:51.829,224.0
19:35:51.869,-46.0
19:35:51.909,-188.0
19:35:51.949,-201.0
19:35:51.989,-191.0
19:35:52.029,-153.0
19:35:52.069,-163.0
19:35:52.109,-198.0
19:35:52.149,-185.0
19:35:52.189,-159.0
19:35:52.229,-80.0
19:35:52.269,-16.0
19:35:52.309,-122.0
19:35:52.349,-293.0
19:35:52.389,3003.0
19:35:52.429,1594.0
19:35:52.469,447.0
19:35:52.509,-77.0
19:35:52.549,-96.0
19:35:52.589,129.0
19:35:52.629,41.0
19:35:52.669,-199.0
19:35:52.709,-337.0
19:35:52.749,-370.0
19:35:52.789,-353.0
19:35:52.829,-258.0
19:35:52.869,-237.0
19:35:52.909,-247.0
19:35:52.949,-213.0
19:35:52.989,-180.0
19:35:53.029,-165.0
19:35:53.069,43.0
19:35:53.109,-42.0
19:35:53.149,-170.0
19:35:53.189,-561.0
19:35:53.229,782.0
19:35:53.269,271.0
19:35:53.309,-25.0
19:35:53.349,-20.0
19:35:53.389,159.0
19:35:53.429,431.0
19:35:53.469,299.0
19:35:53.509,153.0
19:35:53.549,46.0
19:35:53.589,35.0
19:35:53.629,-9.0
19:35:53.669,-38.0
19:35:53.709,-55.0
19:35:53.749,-95.0
19:35:53.789,-144.0
19:35:53.829,-123.0
19:35:53.869,-45.0
19:35:53.909,-280.0
19:35:53.949,-432.0
19:35:53.989,840.0
19:35:54.029,879.0
19:35:54.069,56.0
19:35:54.109,-350.0
19:35:54.149,-471.0
19:35:54.189,-355.0
19:35:54.229,-371.0
19:35:54.269,-612.0
19:35:54.309,-756.0
19:35:54.349,-744.0
19:35:54.389,-670.0
19:35:54.429,-610.0
19:35:54.469,-485.0
19:35:54.509,-386.0
19:35:54.549,-299.0
19:35:54.589,-251.0
19:35:54.629,-71.0
19:35:54.669,-48.0
19:35:55.388,-52.0
19:35:55.428,2520.0
19:35:55.468,1420.0
19:35:55.508,438.0
19:35:55.548,-4.0
19:35:55.588,-6.0
19:35:55.628,169.0
19:35:55.668,107.0
19:35:55.708,-135.0
19:35:55.748,-288.0
19:35:55.788,-308.0
19:35:55.828,-317.0
19:35:55.868,-331.0
19:35:55.908,-297.0
19:35:55.948,-296.0
19:35:55.988,-244.0
19:35:56.028,-183.0
19:35:56.068,-115.0
19:35:56.108,-229.0
19:35:56.148,-507.0
19:35:56.188,2670.0
19:35:56.228,1386.0
19:35:56.268,304.0
19:35:56.308,-150.0
19:35:56.348,-191.0
19:35:56.388,-11.0
19:35:56.428,-44.0
19:35:56.468,-243.0
19:35:56.508,-440.0
19:35:56.548,-482.0
19:35:56.588,-509.0
19:35:56.628,-497.0
19:35:56.668,-450.0
19:35:56.708,-376.0
19:35:56.748,-296.0
19:35:56.788,-212.0
19:35:56.828,-71.0
19:35:56.868,-298.0
19:35:56.908,-435.0
19:35:56.948,891.0
19:35:56.988,1255.0
19:35:57.028,395.0
19:35:57.068,30.0
19:35:57.108,-9.0
19:35:57.148,164.0
19:35:57.188,150.0
19:35:57.228,-122.0
19:35:57.268,-277.0
19:35:57.308,-335.0
19:35:57.348,-308.0
19:35:57.388,-221.0
19:35:57.428,-278.0
19:35:57.468,-311.0
19:35:57.508,-271.0
19:35:57.548,-219.0
19:35:57.588,-159.0
19:35:57.628,-42.0
19:35:57.668,-67.0
19:35:57.708,-199.0
19:35:57.748,3035.0
19:35:57.788,1738.0
19:35:57.828,513.0
19:35:57.868,-39.0
19:35:57.908,-44.0
19:35:57.948,172.0
19:35:57.988,59.0
19:35:58.028,-238.0
19:35:58.068,-417.0
19:35:58.108,-457.0
19:35:58.148,-469.0
19:35:58.188,-424.0
19:35:58.228,-384.0
19:35:58.268,-409.0
19:35:58.308,-421.0
19:35:58.348,-415.0
19:35:58.388,-203.0
19:35:58.428,-230.0
19:35:58.468,-330.0
19:35:58.508,-770.0
19:35:58.548,770.0
19:35:58.588,436.0
19:35:58.628,80.0
19:35:58.668,16.0
19:35:58.708,216.0
19:35:58.748,458.0
19:35:58.788,269.0
19:35:58.828,2.0
19:35:58.868,-97.0
19:35:58.908,-85.0
19:35:58.948,-19.0
19:35:58.988,54.0
19:35:59.028,78.0
19:35:59.068,72.0
19:35:59.108,34.0
19:35:59.148,25.0
19:35:59.188,128.0
19:35:59.228,16.0
19:35:59.268,-124.0
19:35:59.308,-531.0
19:35:59.348,523.0
19:36:03.882,300.0
19:36:03.922,-46.0
19:36:03.962,-138.0
19:36:04.002,-20.0
19:36:04.042,-230.0
19:36:04.082,-571.0
19:36:04.122,-840.0
19:36:04.162,-851.0
19:36:04.202,-766.0
19:36:04.242,-699.0
19:36:04.282,-705.0
19:36:04.322,-682.0
19:36:04.362,-634.0
19:36:04.402,-555.0
19:36:04.442,-392.0
19:36:04.482,-231.0
19:36:04.522,-221.0
19:36:04.562,-458.0
19:36:04.602,1955.0
19:36:04.642,1387.0
19:36:04.682,622.0
19:36:04.722,334.0
19:36:04.762,401.0
19:36:04.802,545.0
19:36:04.842,353.0
19:36:04.882,20.0
19:36:04.922,-307.0
19:36:04.962,-554.0
19:36:05.002,-677.0
19:36:05.042,-721.0
19:36:05.082,-674.0
19:36:05.122,-469.0
19:36:05.162,-203.0
19:36:05.202,-95.0
19:36:05.242,173.0
19:36:05.282,25.0
19:36:05.322,0.0
19:36:05.362,86.0
19:36:05.402,1051.0
19:36:05.442,565.0
19:36:05.482,318.0
19:36:05.522,292.0
19:36:05.562,526.0
19:36:05.602,564.0
19:36:05.642,212.0
19:36:05.682,-68.0
19:36:05.722,-379.0
19:36:05.762,-387.0
19:36:05.802,-219.0
19:36:05.842,-44.0
19:36:05.882,-7.0
19:36:05.922,-11.0
19:36:05.962,-66.0
19:36:06.002,123.0
19:36:06.042,-31.0
19:36:06.082,-169.0
19:36:06.122,-400.0
19:36:06.162,780.0
19:36:06.202,479.0
19:36:06.242,309.0
19:36:06.282,470.0
19:36:06.322,765.0
19:36:06.362,996.0
19:36:06.402,855.0
19:36:06.442,601.0
19:36:06.482,452.0
19:36:06.522,295.0
19:36:06.562,348.0
19:36:06.602,466.0
19:36:06.642,459.0
19:36:06.682,273.0
19:36:06.722,291.0
19:36:06.762,313.0
19:36:06.802,132.0
19:36:06.842,108.0
19:36:06.882,2426.0
19:36:06.922,1922.0
19:36:06.962,826.0
19:36:07.002,458.0
19:36:07.042,501.0
19:36:07.082,758.0
19:36:07.122,627.0
19:36:07.162,153.0
19:36:07.202,-153.0
19:36:07.242,-236.0
19:36:07.282,-203.0
19:36:07.322,-241.0
19:36:07.362,-231.0
19:36:07.402,-282.0
19:36:07.442,-152.0
19:36:07.482,49.0
19:36:07.522,-84.0
19:36:07.562,-163.0
19:36:07.602,3574.0
19:36:07.642,1962.0
19:36:07.682,818.0
19:36:07.722,362.0
19:36:07.762,281.0
19:36:07.802,469.0
19:36:07.842,325.0
19:36:10.186,-204.0
19:36:10.226,-425.0
19:36:10.266,-515.0
19:36:10.306,-613.0
19:36:10.346,-590.0
19:36:10.386,-498.0
19:36:10.426,-106.0
19:36:10.466,-273.0
19:36:10.506,-219.0
19:36:10.546,373.0
19:36:10.586,1104.0
19:36:10.626,704.0
19:36:10.666,554.0
19:36:10.706,633.0
19:36:10.746,863.0
19:36:10.786,912.0
19:36:10.826,532.0
19:36:10.866,139.0
19:36:10.906,-18.0
19:36:10.946,-148.0
19:36:10.986,-338.0
19:36:11.026,-432.0
19:36:11.066,-556.0
19:36:11.106,-614.0
19:36:11.146,-791.0
19:36:11.186,-1214.0
19:36:11.226,719.0
19:36:11.266,138.0
19:36:11.306,-552.0
19:36:11.346,-827.0
19:36:11.386,-769.0
19:36:11.426,-641.0
19:36:11.466,-772.0
19:36:11.506,-1005.0
19:36:11.546,-1101.0
19:36:11.586,-1019.0
19:36:11.626,-921.0
19:36:11.666,-873.0
19:36:11.706,-808.0
19:36:11.746,-711.0
19:36:11.786,-435.0
19:36:11.826,-513.0
19:36:11.866,-569.0
19:36:11.906,164.0
19:36:11.946,590.0
19:36:11.986,7.0
19:36:12.026,-276.0
19:36:12.066,-356.0
19:36:12.106,-204.0
19:36:12.146,-244.0
19:36:12.186,-502.0
19:36:12.226,-659.0
19:36:12.266,-720.0
19:36:12.306,-699.0
19:36:12.346,-668.0
19:36:12.386,-633.0
19:36:12.426,-664.0
19:36:12.466,-422.0
19:36:12.506,-584.0
19:36:12.546,-643.0
19:36:12.586,-474.0
19:36:12.626,456.0
19:36:12.666,-24.0
19:36:12.706,-204.0
19:36:12.746,-215.0
19:36:12.786,-8.0
19:36:12.826,72.0
19:36:12.866,-153.0
19:36:12.906,-364.0
19:36:12.946,-479.0
19:36:12.986,-551.0
19:36:13.026,-486.0
19:36:13.066,-411.0
19:36:13.106,-333.0
19:36:13.146,-214.0
19:36:13.186,66.0
19:36:13.226,-55.0
19:36:13.266,-120.0
19:36:13.306,-396.0
19:36:13.346,692.0
19:36:13.386,219.0
19:36:13.426,-71.0
19:36:13.466,-128.0
19:36:13.506,-12.0
19:36:13.546,89.0
19:36:13.586,-65.0
19:36:13.626,-220.0
19:36:13.666,-307.0
19:36:13.706,-345.0
19:36:13.746,-308.0
19:36:13.786,-272.0
19:36:13.826,-328.0
19:36:13.866,-382.0
19:36:13.906,-359.0
19:36:13.946,-271.0
19:36:13.986,-392.0
19:36:14.026,-540.0
19:36:14.066,2574.0
19:36:14.106,1283.0
19:36:14.146,-2.0
19:36:10.886,-52.0
19:36:10.926,2520.0
19:36:10.966,1420.0
19:36:11.006,438.0
19:36:11.046,-4.0
19:36:11.086,-6.0
19:36:11.126,169.0
19:36:11.166,107.0
19:36:11.206,-135.0
19:36:11.246,-288.0
19:36:11.286,-308.0
19:36:11.326,-317.0
19:36:11.366,-331.0
19:36:11.406,-297.0
19:36:11.446,-296.0
19:36:11.486,-244.0
19:36:11.526,-183.0
19:36:11.566,-115.0
19:36:11.606,-229.0
19:36:11.646,-507.0
19:36:11.686,2670.0
19:36:11.726,1386.0
19:36:11.766,304.0
19:36:11.806,-150.0
19:36:11.846,-191.0
19:36:11.886,-11.0
19:36:11.926,-44.0
19:36:11.966,-243.0
19:36:12.006,-440.0
19:36:12.046,-482.0
19:36:12.086,-509.0
19:36:12.126,-497.0
19:36:12.166,-450.0
19:36:12.206,-376.0
19:36:12.246,-296.0
19:36:12.286,-212.0
19:36:12.326,-71.0
19:36:12.366,-298.0
19:36:12.406,-435.0
19:36:12.446,891.0
19:36:12.486,1255.0
19:36:12.526,395.0
19:36:12.566,30.0
19:36:12.606,-9.0
19:36:12.646,164.0
19:36:12.686,150.0
19:36:12.726,-122.0
19:36:12.766,-277.0
19:36:12.806,-335.0
19:36:12.846,-308.0
19:36:12.886,-221.0
19:36:12.926,-278.0
19:36:12.966,-311.0
19:36:13.006,-271.0
19:36:13.046,-219.0
19:36:13.086,-159.0
19:36:13.126,-42.0
19:36:13.166,-67.0
19:36:13.206,-199.0
19:36:13.246,3035.0
19:36:13.286,1738.0
19:36:13.326,513.0
19:36:13.366,-39.0
19:36:13.406,-44.0
19:36:13.446,172.0
19:36:13.486,59.0
19:36:13.526,-238.0
19:36:13.566,-417.0
19:36:13.606,-457.0
19:36:13.646,-469.0
19:36:13.686,-424.0
19:36:13.726,-384.0
19:36:13.766,-409.0
19:36:13.806,-421.0
19:36:13.846,-415.0
19:36:13.886,-203.0
19:36:13.926,-230.0
19:36:13.966,-330.0
19:36:14.006,-770.0
19:36:14.046,770.0
19:36:14.086,436.0
19:36:14.126,80.0
19:36:14.166,16.0
19:36:14.206,216.0
19:36:14.246,458.0
19:36:14.286,269.0
19:36:14.326,2.0
19:36:14.366,-97.0
19:36:14.406,-85.0
19:36:14.446,-19.0
19:36:14.486,54.0
19:36:14.526,78.0
19:36:14.566,72.0
19:36:14.606,34.0
19:36:14.646,25.0
19:36:14.686,128.0
19:36:14.726,16.0
19:36:14.766,-124.0
19:36:14.806,-531.0
19:36:14.846,523.0
19:36:19.344,-533.0
19:36:19.384,-463.0
19:36:19.424,-415.0
19:36:19.464,-600.0
19:36:19.504,-724.0
19:36:19.544,-743.0
19:36:19.584,-821.0
19:36:19.624,-826.0
19:36:19.664,-747.0
19:36:19.704,-664.0
19:36:19.744,-663.0
19:36:19.784,-595.0
19:36:19.824,-438.0
19:36:19.864,-55.0
19:36:19.904,65.0
19:36:19.944,5.0
19:36:19.984,-305.0
19:36:20.024,1144.0
19:36:20.064,673.0
19:36:20.104,465.0
19:36:20.144,383.0
19:36:20.184,458.0
19:36:20.224,417.0
19:36:20.264,114.0
19:36:20.304,-307.0
19:36:20.344,-432.0
19:36:20.384,-452.0
19:36:20.424,-304.0
19:36:20.464,-132.0
19:36:20.504,34.0
19:36:20.544,116.0
19:36:20.584,62.0
19:36:20.624,-43.0
19:36:20.664,-36.0
19:36:20.704,-185.0
19:36:20.744,-311.0
19:36:20.784,1742.0
19:36:20.824,1419.0
19:36:20.864,424.0
19:36:20.904,-9.0
19:36:20.944,-12.0
19:36:20.984,189.0
19:36:21.024,216.0
19:36:21.064,148.0
19:36:21.104,123.0
19:36:21.144,202.0
19:36:21.184,323.0
19:36:21.224,414.0
19:36:21.264,435.0
19:36:21.304,309.0
19:36:21.344,148.0
19:36:21.384,66.0
19:36:21.424,134.0
19:36:21.464,324.0
19:36:21.504,151.0
19:36:21.544,76.0
19:36:21.584,350.0
19:36:21.624,1145.0
19:36:21.664,601.0
19:36:21.704,199.0
19:36:21.744,120.0
19:36:21.784,255.0
19:36:21.824,295.0
19:36:21.864,137.0
19:36:21.904,54.0
19:36:21.944,89.0
19:36:21.984,63.0
19:36:22.024,91.0
19:36:22.064,85.0
19:36:22.104,-27.0
19:36:22.144,-75.0
19:36:22.184,-62.0
19:36:22.224,-19.0
19:36:22.264,132.0
19:36:22.304,-11.0
19:36:22.344,-144.0
19:36:22.384,-292.0
19:36:22.424,768.0
19:36:22.464,244.0
19:36:22.504,-85.0
19:36:22.544,-143.0
19:36:22.584,99.0
19:36:22.624,261.0
19:36:22.664,90.0
19:36:22.704,-213.0
19:36:22.744,-396.0
19:36:22.784,-467.0
19:36:22.824,-368.0
19:36:22.864,-264.0
19:36:22.904,-219.0
19:36:22.944,-614.0
19:36:22.984,-783.0
19:36:23.024,-715.0
19:36:23.064,-732.0
19:36:23.104,-913.0
19:36:23.144,-860.0
19:36:23.184,-642.0
19:36:23.224,682.0
19:36:23.264,414.0
19:36:23.304,358.0
19:36:27.725,485.0
19:36:27.765,841.0
19:36:27.805,682.0
19:36:27.845,511.0
19:36:27.885,419.0
19:36:27.925,458.0
19:36:27.965,504.0
19:36:28.005,693.0
19:36:28.045,797.0
19:36:28.085,496.0
19:36:28.125,459.0
19:36:28.165,265.0
19:36:28.205,246.0
19:36:28.245,-126.0
19:36:28.285,-416.0
19:36:28.325,15.0
19:36:28.365,375.0
19:36:28.405,-206.0
19:36:28.445,-495.0
19:36:28.485,-507.0
19:36:28.525,-323.0
19:36:28.565,-288.0
19:36:28.605,-568.0
19:36:28.645,-731.0
19:36:28.685,-797.0
19:36:28.725,-706.0
19:36:28.765,-583.0
19:36:28.805,-466.0
19:36:28.845,-440.0
19:36:28.885,-425.0
19:36:28.925,-343.0
19:36:28.965,-212.0
19:36:29.005,-86.0
19:36:29.045,-167.0
19:36:29.085,-372.0
19:36:29.125,2945.0
19:36:29.165,1481.0
19:36:29.205,276.0
19:36:29.245,-247.0
19:36:29.285,-228.0
19:36:29.325,34.0
19:36:29.365,73.0
19:36:29.405,-77.0
19:36:29.445,-92.0
19:36:29.485,-10.0
19:36:29.525,33.0
19:36:29.565,88.0
19:36:29.605,130.0
19:36:29.645,113.0
19:36:29.685,9.0
19:36:29.725,-71.0
19:36:29.765,-164.0
19:36:29.805,-127.0
19:36:29.845,61.0
19:36:29.885,-130.0
19:36:29.925,-210.0
19:36:29.965,-143.0
19:36:30.005,661.0
19:36:30.045,149.0
19:36:30.085,-137.0
19:36:30.125,-137.0
19:36:30.165,70.0
19:36:30.205,209.0
19:36:30.245,-71.0
19:36:30.285,-324.0
19:36:30.325,-418.0
19:36:30.365,-393.0
19:36:30.405,-332.0
19:36:30.445,-311.0
19:36:30.485,-334.0
19:36:30.525,-363.0
19:36:30.565,-334.0
19:36:30.605,-396.0
19:36:30.645,-390.0
19:36:30.685,-411.0
19:36:30.725,-277.0
19:36:30.765,-401.0
19:36:30.805,-490.0
19:36:30.845,2199.0
19:36:30.885,1286.0
19:36:30.925,137.0
19:36:30.965,-375.0
19:36:31.005,-468.0
19:36:31.045,-318.0
19:36:31.085,-343.0
19:36:31.125,-550.0
19:36:31.165,-729.0
19:36:31.205,-783.0
19:36:31.245,-750.0
19:36:31.285,-688.0
19:36:31.325,-608.0
19:36:31.365,-576.0
19:36:31.405,-581.0
19:36:31.445,-548.0
19:36:31.485,-531.0
19:36:31.525,-493.0
19:36:31.565,-449.0
19:36:31.605,-292.0
19:36:31.645,-259.0
19:36:31.685,-302.0
19:36:32.666,-713.0
19:36:32.706,60.0
19:36:32.746,-26.0
19:36:32.786,-2.0
19:36:32.826,212.0
19:36:32.866,500.0
19:36:32.906,498.0
19:36:32.946,272.0
19:36:32.986,92.0
19:36:33.026,31.0
19:36:33.066,44.0
19:36:33.106,59.0
19:36:33.146,126.0
19:36:33.186,147.0
19:36:33.226,125.0
19:36:33.266,71.0
19:36:33.306,12.0
19:36:33.346,-20.0
19:36:33.386,4.0
19:36:33.426,-39.0
19:36:33.466,-138.0
19:36:33.506,-621.0
19:36:33.546,1723.0
19:36:33.586,1028.0
19:36:33.626,251.0
19:36:33.666,-50.0
19:36:33.706,29.0
19:36:33.746,183.0
19:36:33.786,95.0
19:36:33.826,-85.0
19:36:33.866,-202.0
19:36:33.906,-253.0
19:36:33.946,-207.0
19:36:33.986,-164.0
19:36:34.026,-171.0
19:36:34.066,-137.0
19:36:34.106,15.0
19:36:34.146,75.0
19:36:34.186,153.0
19:36:34.226,174.0
19:36:34.266,229.0
19:36:34.306,283.0
19:36:34.346,178.0
19:36:34.386,-162.0
19:36:34.426,2840.0
19:36:34.466,1624.0
19:36:34.506,611.0
19:36:34.546,148.0
19:36:34.586,133.0
19:36:34.626,329.0
19:36:34.666,189.0
19:36:34.706,-95.0
19:36:34.746,-240.0
19:36:34.786,-319.0
19:36:34.826,-355.0
19:36:34.866,-345.0
19:36:34.906,-278.0
19:36:34.946,-323.0
19:36:34.986,-321.0
19:36:35.026,-341.0
19:36:35.066,-291.0
19:36:35.106,-201.0
19:36:35.146,51.0
19:36:35.186,-126.0
19:36:35.226,-202.0
19:36:35.266,159.0
19:36:35.306,730.0
19:36:35.346,161.0
19:36:35.386,-67.0
19:36:35.426,81.0
19:36:35.466,365.0
19:36:35.506,608.0
19:36:35.546,349.0
19:36:35.586,86.0
19:36:35.626,-21.0
19:36:35.666,-48.0
19:36:35.706,-42.0
19:36:35.746,-15.0
19:36:35.786,-59.0
19:36:35.826,-86.0
19:36:35.866,-159.0
19:36:35.906,-199.0
19:36:35.946,-74.0
19:36:35.986,-217.0
19:36:36.026,-336.0
19:36:36.066,-712.0
19:36:36.106,470.0
19:36:36.146,99.0
19:36:36.186,-186.0
19:36:36.226,-279.0
19:36:36.266,-76.0
19:36:36.306,154.0
19:36:36.346,45.0
19:36:36.386,-140.0
19:36:36.426,-303.0
19:36:36.466,-411.0
19:36:36.506,-483.0
19:36:36.546,-463.0
19:36:36.586,-475.0
19:36:36.626,-418.0
19:36:35.072,-316.0
19:36:35.112,-231.0
19:36:35.152,8.0
19:36:35.192,120.0
19:36:35.232,192.0
19:36:35.272,-70.0
19:36:35.312,1341.0
19:36:35.352,889.0
19:36:35.392,612.0
19:36:35.432,560.0
19:36:35.472,752.0
19:36:35.512,868.0
19:36:35.552,622.0
19:36:35.592,363.0
19:36:35.632,146.0
19:36:35.672,61.0
19:36:35.712,43.0
19:36:35.752,41.0
19:36:35.792,12.0
19:36:35.832,-27.0
19:36:35.872,-29.0
19:36:35.912,89.0
19:36:35.952,304.0
19:36:35.992,238.0
19:36:36.032,240.0
19:36:36.072,2249.0
19:36:36.112,2017.0
19:36:36.152,885.0
19:36:36.192,317.0
19:36:36.232,142.0
19:36:36.272,234.0
19:36:36.312,135.0
19:36:36.352,-250.0
19:36:36.392,-503.0
19:36:36.432,-577.0
19:36:36.472,-576.0
19:36:36.512,-561.0
19:36:36.552,-500.0
19:36:36.592,-483.0
19:36:36.632,-519.0
19:36:36.672,-493.0
19:36:36.712,-221.0
19:36:36.752,-416.0
19:36:36.792,-557.0
19:36:36.832,-507.0
19:36:36.872,343.0
19:36:36.912,-158.0
19:36:36.952,-340.0
19:36:36.992,-272.0
19:36:37.032,5.0
19:36:37.072,116.0
19:36:37.112,-166.0
19:36:37.152,-391.0
19:36:37.192,-527.0
19:36:37.232,-560.0
19:36:37.272,-531.0
19:36:37.312,-476.0
19:36:37.352,-487.0
19:36:37.392,-475.0
19:36:37.432,-376.0
19:36:37.472,-238.0
19:36:37.512,-438.0
19:36:37.552,-683.0
19:36:37.592,767.0
19:36:37.632,672.0
19:36:37.672,-295.0
19:36:37.712,-684.0
19:36:37.752,-655.0
19:36:37.792,-374.0
19:36:37.832,-207.0
19:36:37.872,-309.0
19:36:37.912,-300.0
19:36:37.952,-211.0
19:36:37.992,-126.0
19:36:38.032,-28.0
19:36:38.072,43.0
19:36:38.112,100.0
19:36:38.152,116.0
19:36:38.192,114.0
19:36:38.232,157.0
19:36:38.272,202.0
19:36:38.312,157.0
19:36:38.352,68.0
19:36:38.392,3581.0
19:36:38.432,2296.0
19:36:38.472,1150.0
19:36:38.512,624.0
19:36:38.552,509.0
19:36:38.592,555.0
19:36:38.632,277.0
19:36:38.672,-188.0
19:36:38.712,-470.0
19:36:38.752,-609.0
19:36:38.792,-657.0
19:36:38.832,-496.0
19:36:38.872,-330.0
19:36:38.912,-374.0
19:36:38.952,-421.0
19:36:38.992,-415.0
19:36:39.032,-459.0
19:36:45.274,-561.0
19:36:45.314,2436.0
19:36:45.354,1170.0
19:36:45.394,-44.0
19:36:45.434,-622.0
19:36:45.474,-726.0
19:36:45.514,-615.0
19:36:45.554,-597.0
19:36:45.594,-764.0
19:36:45.634,-860.0
19:36:45.674,-833.0
19:36:45.714,-818.0
19:36:45.754,-755.0
19:36:45.794,-666.0
19:36:45.834,-617.0
19:36:45.874,-618.0
19:36:45.914,-574.0
19:36:45.954,-411.0
19:36:45.994,-393.0
19:36:46.034,-455.0
19:36:46.074,-906.0
19:36:46.114,417.0
19:36:46.154,-40.0
19:36:46.194,-320.0
19:36:46.234,-343.0
19:36:46.274,-100.0
19:36:46.314,156.0
19:36:46.354,56.0
19:36:46.394,-116.0
19:36:46.434,-211.0
19:36:46.474,-207.0
19:36:46.514,-179.0
19:36:46.554,-177.0
19:36:46.594,-177.0
19:36:46.634,-164.0
19:36:46.674,-134.0
19:36:46.714,-123.0
19:36:46.754,39.0
19:36:46.794,-17.0
19:36:46.834,-101.0
19:36:46.874,-482.0
19:36:46.914,831.0
19:36:46.954,441.0
19:36:46.994,201.0
19:36:47.034,187.0
19:36:47.074,337.0
19:36:47.114,518.0
19:36:47.154,343.0
19:36:47.194,114.0
19:36:47.234,-18.0
19:36:47.274,8.0
19:36:47.314,11.0
19:36:47.354,47.0
19:36:47.394,47.0
19:36:47.434,58.0
19:36:47.474,35.0
19:36:47.514,49.0
19:36:47.554,48.0
19:36:47.594,183.0
19:36:47.634,132.0
19:36:47.674,30.0
19:36:47.714,-518.0
19:36:47.754,1602.0
19:36:47.794,1001.0
19:36:47.834,343.0
19:36:47.874,105.0
19:36:47.914,262.0
19:36:47.954,451.0
19:36:47.994,298.0
19:36:48.034,-19.0
19:36:48.074,-159.0
19:36:48.114,-205.0
19:36:48.154,-174.0
19:36:48.194,-83.0
19:36:48.234,-74.0
19:36:48.274,-105.0
19:36:48.314,-87.0
19:36:48.354,-136.0
19:36:48.394,-144.0
19:36:48.434,29.0
19:36:48.474,102.0
19:36:48.514,-5.0
19:36:48.554,-465.0
19:36:48.594,1604.0
19:36:48.634,970.0
19:36:48.674,279.0
19:36:48.714,6.0
19:36:48.754,35.0
19:36:48.794,170.0
19:36:48.834,-24.0
19:36:48.874,-303.0
19:36:48.914,-439.0
19:36:48.954,-439.0
19:36:48.994,-384.0
19:36:49.034,-264.0
19:36:49.074,-203.0
19:36:49.114,-162.0
19:36:49.154,-179.0
19:36:49.194,-190.0
19:36:49.234,-133.0
19:36:51.608,-31.0
19:36:51.648,-95.0
19:36:51.688,2392.0
19:36:51.728,1662.0
19:36:51.768,543.0
19:36:51.808,101.0
19:36:51.848,-6.0
19:36:51.888,147.0
19:36:51.928,25.0
19:36:51.968,-313.0
19:36:52.008,-556.0
19:36:52.048,-623.0
19:36:52.088,-626.0
19:36:52.128,-581.0
19:36:52.168,-551.0
19:36:52.208,-519.0
19:36:52.248,-467.0
19:36:52.288,-403.0
19:36:52.328,-319.0
19:36:52.368,-296.0
19:36:52.408,-368.0
19:36:52.448,-804.0
19:36:52.488,1168.0
19:36:52.528,646.0
19:36:52.568,127.0
19:36:52.608,-32.0
19:36:52.648,86.0
19:36:52.688,243.0
19:36:52.728,81.0
19:36:52.768,-225.0
19:36:52.808,-430.0
19:36:52.848,-488.0
19:36:52.888,-467.0
19:36:52.928,-421.0
19:36:52.968,-378.0
19:36:53.008,-315.0
19:36:53.048,-324.0
19:36:53.088,-312.0
19:36:53.128,-18.0
19:36:53.168,-152.0
19:36:53.208,-227.0
19:36:53.248,-43.0
19:36:53.288,752.0
19:36:53.328,253.0
19:36:53.368,7.0
19:36:53.408,80.0
19:36:53.448,334.0
19:36:53.488,498.0
19:36:53.528,273.0
19:36:53.568,70.0
19:36:53.608,-51.0
19:36:53.648,-72.0
19:36:53.688,-20.0
19:36:53.728,33.0
19:36:53.768,21.0
19:36:53.808,-26.0
19:36:53.848,-32.0
19:36:53.888,91.0
19:36:53.928,171.0
19:36:53.968,70.0
19:36:54.008,-228.0
19:36:54.048,2887.0
19:36:54.088,1677.0
19:36:54.128,627.0
19:36:54.168,190.0
19:36:54.208,217.0
19:36:54.248,384.0
19:36:54.288,296.0
19:36:54.328,38.0
19:36:54.368,-136.0
19:36:54.408,-152.0
19:36:54.448,-156.0
19:36:54.488,-56.0
19:36:54.528,8.0
19:36:54.568,-11.0
19:36:54.608,-34.0
19:36:54.648,-26.0
19:36:54.688,-17.0
19:36:54.728,-156.0
19:36:54.768,-530.0
19:36:54.808,2171.0
19:36:54.848,1132.0
19:36:54.888,204.0
19:36:54.928,-231.0
19:36:54.968,-299.0
19:36:55.008,-261.0
19:36:55.048,-484.0
19:36:55.088,-783.0
19:36:55.128,-1008.0
19:36:55.168,-1058.0
19:36:55.208,-1066.0
19:36:55.248,-961.0
19:36:55.288,-996.0
19:36:55.328,-1065.0
19:36:55.368,-957.0
19:36:55.408,-656.0
19:36:55.448,-532.0
19:36:55.488,-378.0
19:36:55.528,1558.0
19:36:55.568,1555.0
19:36:57.854,749.0
19:36:57.894,458.0
19:36:57.934,595.0
19:36:57.974,466.0
19:36:58.014,-3.0
19:36:58.054,-310.0
19:36:58.094,-540.0
19:36:58.134,-687.0
19:36:58.174,-695.0
19:36:58.214,-588.0
19:36:58.254,-545.0
19:36:58.294,-380.0
19:36:58.334,-113.0
19:36:58.374,-12.0
19:36:58.414,-17.0
19:36:58.454,-372.0
19:36:58.494,1161.0
19:36:58.534,863.0
19:36:58.574,613.0
19:36:58.614,574.0
19:36:58.654,827.0
19:36:58.694,1065.0
19:36:58.734,881.0
19:36:58.774,576.0
19:36:58.814,424.0
19:36:58.854,483.0
19:36:58.894,549.0
19:36:58.934,607.0
19:36:58.974,620.0
19:36:59.014,586.0
19:36:59.054,513.0
19:36:59.094,656.0
19:36:59.134,504.0
19:36:59.174,351.0
19:36:59.214,62.0
19:36:59.254,1142.0
19:36:59.294,658.0
19:36:59.334,381.0
19:36:59.374,273.0
19:36:59.414,497.0
19:36:59.454,645.0
19:36:59.494,351.0
19:36:59.534,56.0
19:36:59.574,-80.0
19:36:59.614,-112.0
19:36:59.654,-67.0
19:36:59.694,-33.0
19:36:59.734,-99.0
19:36:59.774,-118.0
19:36:59.814,-66.0
19:36:59.854,196.0
19:36:59.894,10.0
19:36:59.934,-75.0
19:36:59.974,86.0
19:37:00.014,861.0
19:37:00.054,368.0
19:37:00.094,95.0
19:37:00.134,95.0
19:37:00.174,376.0
19:37:00.214,461.0
19:37:00.254,154.0
19:37:00.294,-106.0
19:37:00.334,-157.0
19:37:00.374,-161.0
19:37:00.414,-81.0
19:37:00.454,2.0
19:37:00.494,-19.0
19:37:00.534,-100.0
19:37:00.574,-39.0
19:37:00.614,32.0
19:37:00.654,-80.0
19:37:00.694,-226.0
19:37:00.734,3089.0
19:37:00.774,1756.0
19:37:00.814,515.0
19:37:00.854,-52.0
19:37:00.894,-82.0
19:37:00.934,95.0
19:37:00.974,-20.0
19:37:01.014,-320.0
19:37:01.054,-494.0
19:37:01.094,-500.0
19:37:01.134,-412.0
19:37:01.174,-292.0
19:37:01.214,-236.0
19:37:01.254,-266.0
19:37:01.294,-205.0
19:37:01.334,62.0
19:37:01.374,-69.0
19:37:01.414,-42.0
19:37:01.454,375.0
19:37:01.494,1100.0
19:37:01.534,519.0
19:37:01.574,150.0
19:37:01.614,39.0
19:37:01.654,172.0
19:37:01.694,142.0
19:37:01.734,-245.0
19:37:01.774,-538.0
19:37:01.814,-602.0
19:37:00.284,-550.0
19:37:00.324,-380.0
19:37:00.364,-397.0
19:37:00.404,-239.0
19:37:00.444,-132.0
19:37:00.484,-301.0
19:37:00.524,-392.0
19:37:00.564,2104.0
19:37:00.604,1588.0
19:37:00.644,387.0
19:37:00.684,-166.0
19:37:00.724,-166.0
19:37:00.764,110.0
19:37:00.804,63.0
19:37:00.844,-227.0
19:37:00.884,-397.0
19:37:00.924,-361.0
19:37:00.964,-301.0
19:37:01.004,-219.0
19:37:01.044,-186.0
19:37:01.084,-164.0
19:37:01.124,-125.0
19:37:01.164,-239.0
19:37:01.204,-528.0
19:37:01.244,2311.0
19:37:01.284,1277.0
19:37:01.324,292.0
19:37:01.364,-126.0
19:37:01.404,-55.0
19:37:01.444,104.0
19:37:01.484,-76.0
19:37:01.524,-403.0
19:37:01.564,-535.0
19:37:01.604,-584.0
19:37:01.644,-494.0
19:37:01.684,-385.0
19:37:01.724,-343.0
19:37:01.764,-229.0
19:37:01.804,-163.0
19:37:01.844,-238.0
19:37:01.884,-523.0
19:37:01.924,2536.0
19:37:01.964,1369.0
19:37:02.004,309.0
19:37:02.044,-102.0
19:37:02.084,-53.0
19:37:02.124,106.0
19:37:02.164,-54.0
19:37:02.204,-406.0
19:37:02.244,-599.0
19:37:02.284,-552.0
19:37:02.324,-444.0
19:37:02.364,-347.0
19:37:02.404,-357.0
19:37:02.444,-378.0
19:37:02.484,-205.0
19:37:02.524,-173.0
19:37:02.564,-163.0
19:37:02.604,-602.0
19:37:02.644,1159.0
19:37:02.684,694.0
19:37:02.724,377.0
19:37:02.764,269.0
19:37:02.804,445.0
19:37:02.844,554.0
19:37:02.884,356.0
19:37:02.924,93.0
19:37:02.964,-65.0
19:37:03.004,-94.0
19:37:03.044,-91.0
19:37:03.084,-171.0
19:37:03.124,-249.0
19:37:03.164,-400.0
19:37:03.204,-472.0
19:37:03.244,-604.0
19:37:03.284,-654.0
19:37:03.324,-880.0
19:37:03.364,-1026.0
19:37:03.404,1812.0
19:37:03.444,902.0
19:37:03.484,-121.0
19:37:03.524,-436.0
19:37:03.564,-434.0
19:37:03.604,-250.0
19:37:03.644,-286.0
19:37:03.684,-635.0
19:37:03.724,-844.0
19:37:03.764,-928.0
19:37:03.804,-965.0
19:37:03.844,-837.0
19:37:03.884,-730.0
19:37:03.924,-624.0
19:37:03.964,-547.0
19:37:04.004,-517.0
19:37:04.044,-368.0
19:37:04.084,-172.0
19:37:04.124,-192.0
19:37:04.164,-96.0
19:37:04.204,2686.0
19:37:04.244,1999.0
19:37:04.037,-561.0
19:37:04.077,2436.0
19:37:04.117,1170.0
19:37:04.157,-44.0
19:37:04.197,-622.0
19:37:04.237,-726.0
19:37:04.277,-615.0
19:37:04.317,-597.0
19:37:04.357,-764.0
19:37:04.397,-860.0
19:37:04.437,-833.0
19:37:04.477,-818.0
19:37:04.517,-755.0
19:37:04.557,-666.0
19:37:04.597,-617.0
19:37:04.637,-618.0
19:37:04.677,-574.0
19:37:04.717,-411.0
19:37:04.757,-393.0
19:37:04.797,-455.0
19:37:04.837,-906.0
19:37:04.877,417.0
19:37:04.917,-40.0
19:37:04.957,-320.0
19:37:04.997,-343.0
19:37:05.037,-100.0
19:37:05.077,156.0
19:37:05.117,56.0
19:37:05.157,-116.0
19:37:05.197,-211.0
19:37:05.237,-207.0
19:37:05.277,-179.0
19:37:05.317,-177.0
19:37:05.357,-177.0
19:37:05.397,-164.0
19:37:05.437,-134.0
19:37:05.477,-123.0
19:37:05.517,39.0
19:37:05.557,-17.0
19:37:05.597,-101.0
19:37:05.637,-482.0
19:37:05.677,831.0
19:37:05.717,441.0
19:37:05.757,201.0
19:37:05.797,187.0
19:37:05.837,337.0
19:37:05.877,518.0
19:37:05.917,343.0
19:37:05.957,114.0
19:37:05.997,-18.0
19:37:06.037,8.0
19:37:06.077,11.0
19:37:06.117,47.0
19:37:06.157,47.0
19:37:06.197,58.0
19:37:06.237,35.0
19:37:06.277,49.0
19:37:06.317,48.0
19:37:06.357,183.0
19:37:06.397,132.0
19:37:06.437,30.0
19:37:06.477,-518.0
19:37:06.517,1602.0
19:37:06.557,1001.0
19:37:06.597,343.0
19:37:06.637,105.0
19:37:06.677,262.0
19:37:06.717,451.0
19:37:06.757,298.0
19:37:06.797,-19.0
19:37:06.837,-159.0
19:37:06.877,-205.0
19:37:06.917,-174.0
19:37:06.957,-83.0
19:37:06.997,-74.0
19:37:07.037,-105.0
19:37:07.077,-87.0
19:37:07.117,-136.0
19:37:07.157,-144.0
19:37:07.197,29.0
19:37:07.237,102.0
19:37:07.277,-5.0
19:37:07.317,-465.0
19:37:07.357,1604.0
19:37:07.397,970.0
19:37:07.437,279.0
19:37:07.477,6.0
19:37:07.517,35.0
19:37:07.557,170.0
19:37:07.597,-24.0
19:37:07.637,-303.0
19:37:07.677,-439.0
19:37:07.717,-439.0
19:37:07.757,-384.0
19:37:07.797,-264.0
19:37:07.837,-203.0
19:37:07.877,-162.0
19:37:07.917,-179.0
19:37:07.957,-190.0
19:37:07.997,-133.0
19:37:08.127,-31.0
19:37:08.167,-95.0
19:37:08.207,2392.0
19:37:08.247,1662.0
19:37:08.287,543.0
19:37:08.327,101.0
19:37:08.367,-6.0
19:37:08.407,147.0
19:37:08.447,25.0
19:37:08.487,-313.0
19:37:08.527,-556.0
19:37:08.567,-623.0
19:37:08.607,-626.0
19:37:08.647,-581.0
19:37:08.687,-551.0
19:37:08.727,-519.0
19:37:08.767,-467.0
19:37:08.807,-403.0
19:37:08.847,-319.0
19:37:08.887,-296.0
19:37:08.927,-368.0
19:37:08.967,-804.0
19:37:09.007,1168.0
19:37:09.047,646.0
19:37:09.087,127.0
19:37:09.127,-32.0
19:37:09.167,86.0
19:37:09.207,243.0
19:37:09.247,81.0
19:37:09.287,-225.0
19:37:09.327,-430.0
19:37:09.367,-488.0
19:37:09.407,-467.0
19:37:09.447,-421.0
19:37:09.487,-378.0
19:37:09.527,-315.0
19:37:09.567,-324.0
19:37:09.607,-312.0
19:37:09.647,-18.0
19:37:09.687,-152.0
19:37:09.727,-227.0
19:37:09.767,-43.0
19:37:09.807,752.0
19:37:09.847,253.0
19:37:09.887,7.0
19:37:09.927,80.0
19:37:09.967,334.0
19:37:10.007,498.0
19:37:10.047,273.0
19:37:10.087,70.0
19:37:10.127,-51.0
19:37:10.167,-72.0
19:37:10.207,-20.0
19:37:10.247,33.0
19:37:10.287,21.0
19:37:10.327,-26.0
19:37:10.367,-32.0
19:37:10.407,91.0
19:37:10.447,171.0
19:37:10.487,70.0
19:37:10.527,-228.0
19:37:10.567,2887.0
19:37:10.607,1677.0
19:37:10.647,627.0
19:37:10.687,190.0
19:37:10.727,217.0
19:37:10.767,384.0
19:37:10.807,296.0
19:37:10.847,38.0
19:37:10.887,-136.0
19:37:10.927,-152.0
19:37:10.967,-156.0
19:37:11.007,-56.0
19:37:11.047,8.0
19:37:11.087,-11.0
19:37:11.127,-34.0
19:37:11.167,-26.0
19:37:11.207,-17.0
19:37:11.247,-156.0
19:37:11.287,-530.0
19:37:11.327,2171.0
19:37:11.367,1132.0
19:37:11.407,204.0
19:37:11.447,-231.0
19:37:11.487,-299.0
19:37:11.527,-261.0
19:37:11.567,-484.0
19:37:11.607,-783.0
19:37:11.647,-1008.0
19:37:11.687,-1058.0
19:37:11.727,-1066.0
19:37:11.767,-961.0
19:37:11.807,-996.0
19:37:11.847,-1065.0
19:37:11.887,-957.0
19:37:11.927,-656.0
19:37:11.967,-532.0
19:37:12.007,-378.0
19:37:12.047,1558.0
19:37:12.087,1555.0
19:37:15.474,749.0
19:37:15.514,458.0
19:37:15.554,595.0
19:37:15.594,466.0
19:37:15.634,-3.0
19:37:15.674,-310.0
19:37:15.714,-540.0
19:37:15.754,-687.0
19:37:15.794,-695.0
19:37:15.834,-588.0
19:37:15.874,-545.0
19:37:15.914,-380.0
19:37:15.954,-113.0
19:37:15.994,-12.0
19:37:16.034,-17.0
19:37:16.074,-372.0
19:37:16.114,1161.0
19:37:16.154,863.0
19:37:16.194,613.0
19:37:16.234,574.0
19:37:16.274,827.0
19:37:16.314,1065.0
19:37:16.354,881.0
19:37:16.394,576.0
19:37:16.434,424.0
19:37:16.474,483.0
19:37:16.514,549.0
19:37:16.554,607.0
19:37:16.594,620.0
19:37:16.634,586.0
19:37:16.674,513.0
19:37:16.714,656.0
19:37:16.754,504.0
19:37:16.794,351.0
19:37:16.834,62.0
19:37:16.874,1142.0
19:37:16.914,658.0
19:37:16.954,381.0
19:37:16.994,273.0
19:37:17.034,497.0
19:37:17.074,645.0
19:37:17.114,351.0
19:37:17.154,56.0
19:37:17.194,-80.0
19:37:17.234,-112.0
19:37:17.274,-67.0
19:37:17.314,-33.0
19:37:17.354,-99.0
19:37:17.394,-118.0
19:37:17.434,-66.0
19:37:17.474,196.0
19:37:17.514,10.0
19:37:17.554,-75.0
19:37:17.594,86.0
19:37:17.634,861.0
19:37:17.674,368.0
19:37:17.714,95.0
19:37:17.754,95.0
19:37:17.794,376.0
19:37:17.834,461.0
19:37:17.874,154.0
19:37:17.914,-106.0
19:37:17.954,-157.0
19:37:17.994,-161.0
19:37:18.034,-81.0
19:37:18.074,2.0
19:37:18.114,-19.0
19:37:18.154,-100.0
19:37:18.194,-39.0
19:37:18.234,32.0
19:37:18.274,-80.0
19:37:18.314,-226.0
19:37:18.354,3089.0
19:37:18.394,1756.0
19:37:18.434,515.0
19:37:18.474,-52.0
19:37:18.514,-82.0
19:37:18.554,95.0
19:37:18.594,-20.0
19:37:18.634,-320.0
19:37:18.674,-494.0
19:37:18.714,-500.0
19:37:18.754,-412.0
19:37:18.794,-292.0
19:37:18.834,-236.0
19:37:18.874,-266.0
19:37:18.914,-205.0
19:37:18.954,62.0
19:37:18.994,-69.0
19:37:19.034,-42.0
19:37:19.074,375.0
19:37:19.114,1100.0
19:37:19.154,519.0
19:37:19.194,150.0
19:37:19.234,39.0
19:37:19.274,172.0
19:37:19.314,142.0
19:37:19.354,-245.0
19:37:19.394,-538.0
19:37:19.434,-602.0
19:37:32.548,916.0
19:37:32.588,486.0
19:37:32.628,347.0
19:37:32.668,46.0
19:37:32.708,-529.0
19:37:32.748,-941.0
19:37:32.788,-1141.0
19:37:32.828,-1223.0
19:37:32.868,-1194.0
19:37:32.908,-1158.0
19:37:32.948,-1159.0
19:37:32.988,-1097.0
19:37:33.028,-1051.0
19:37:33.068,-949.0
19:37:33.108,-852.0
19:37:33.148,-820.0
19:37:33.188,-1265.0
19:37:33.228,571.0
19:37:33.268,191.0
19:37:33.308,-285.0
19:37:33.348,-471.0
19:37:33.388,-380.0
19:37:33.428,-171.0
19:37:33.468,-346.0
19:37:33.508,-565.0
19:37:33.548,-667.0
19:37:33.588,-686.0
19:37:33.628,-620.0
19:37:33.668,-564.0
19:37:33.708,-593.0
19:37:33.748,-617.0
19:37:33.788,-641.0
19:37:33.828,-590.0
19:37:33.868,-447.0
19:37:33.908,-414.0
19:37:33.948,-426.0
19:37:33.988,-749.0
19:37:34.028,530.0
19:37:34.068,204.0
19:37:34.108,6.0
19:37:34.148,28.0
19:37:34.188,312.0
19:37:34.228,520.0
19:37:34.268,371.0
19:37:34.308,210.0
19:37:34.348,108.0
19:37:34.388,112.0
19:37:34.428,121.0
19:37:34.468,130.0
19:37:34.508,98.0
19:37:34.548,45.0
19:37:34.588,-16.0
19:37:34.628,-71.0
19:37:34.668,7.0
19:37:34.708,86.0
19:37:34.748,-76.0
19:37:34.788,-206.0
19:37:34.828,2905.0
19:37:34.868,1673.0
19:37:34.908,490.0
19:37:34.948,-24.0
19:37:34.988,-52.0
19:37:35.028,130.0
19:37:35.068,60.0
19:37:35.108,-190.0
19:37:35.148,-354.0
19:37:35.188,-357.0
19:37:35.228,-301.0
19:37:35.268,-283.0
19:37:35.308,-270.0
19:37:35.348,-321.0
19:37:35.388,-287.0
19:37:35.428,-291.0
19:37:35.468,-247.0
19:37:35.508,-51.0
19:37:35.548,-144.0
19:37:35.588,-265.0
19:37:35.628,-467.0
19:37:35.668,695.0
19:37:35.708,271.0
19:37:35.748,63.0
19:37:35.788,49.0
19:37:35.828,337.0
19:37:35.868,500.0
19:37:35.908,238.0
19:37:35.948,-8.0
19:37:35.988,-169.0
19:37:36.028,-232.0
19:37:36.068,-192.0
19:37:36.108,-171.0
19:37:36.148,-167.0
19:37:36.188,-152.0
19:37:36.228,-158.0
19:37:36.268,-135.0
19:37:36.308,-115.0
19:37:36.348,-232.0
19:37:36.388,-580.0
19:37:36.428,1416.0
19:37:36.468,845.0
19:37:36.508,164.0
19:37:37.187,-121.0
19:37:37.227,-29.0
19:37:37.267,-253.0
19:37:37.307,-494.0
19:37:37.347,-615.0
19:37:37.387,-635.0
19:37:37.427,-590.0
19:37:37.467,-515.0
19:37:37.507,-531.0
19:37:37.547,-520.0
19:37:37.587,-472.0
19:37:37.627,-392.0
19:37:37.667,-232.0
19:37:37.707,-271.0
19:37:37.747,-532.0
19:37:37.787,2470.0
19:37:37.827,1291.0
19:37:37.867,361.0
19:37:37.907,-65.0
19:37:37.947,-7.0
19:37:37.987,238.0
19:37:38.027,135.0
19:37:38.067,-140.0
19:37:38.107,-284.0
19:37:38.147,-321.0
19:37:38.187,-306.0
19:37:38.227,-286.0
19:37:38.267,-267.0
19:37:38.307,-312.0
19:37:38.347,-300.0
19:37:38.387,-236.0
19:37:38.427,-94.0
19:37:38.467,60.0
19:37:38.507,-53.0
19:37:38.547,-188.0
19:37:38.587,2733.0
19:37:38.627,1763.0
19:37:38.667,588.0
19:37:38.707,135.0
19:37:38.747,98.0
19:37:38.787,298.0
19:37:38.827,174.0
19:37:38.867,-173.0
19:37:38.907,-349.0
19:37:38.947,-467.0
19:37:38.987,-492.0
19:37:39.027,-427.0
19:37:39.067,-364.0
19:37:39.107,-309.0
19:37:39.147,-295.0
19:37:39.187,-255.0
19:37:39.227,-228.0
19:37:39.267,-130.0
19:37:39.307,-274.0
19:37:39.347,-381.0
19:37:39.387,1145.0
19:37:39.427,1123.0
19:37:39.467,180.0
19:37:39.507,-210.0
19:37:39.547,-314.0
19:37:39.587,-151.0
19:37:39.627,-88.0
19:37:39.667,-414.0
19:37:39.707,-659.0
19:37:39.747,-773.0
19:37:39.787,-754.0
19:37:39.827,-693.0
19:37:39.867,-598.0
19:37:39.907,-603.0
19:37:39.947,-552.0
19:37:39.987,-532.0
19:37:40.027,-496.0
19:37:40.067,-289.0
19:37:40.107,-233.0
19:37:40.147,-288.0
19:37:40.187,-742.0
19:37:40.227,1269.0
19:37:40.267,692.0
19:37:40.307,204.0
19:37:40.347,76.0
19:37:40.387,247.0
19:37:40.427,445.0
19:37:40.467,262.0
19:37:40.507,12.0
19:37:40.547,-118.0
19:37:40.587,-153.0
19:37:40.627,-203.0
19:37:40.667,-168.0
19:37:40.707,-145.0
19:37:40.747,-209.0
19:37:40.787,-214.0
19:37:40.827,-197.0
19:37:40.867,-180.0
19:37:40.907,-100.0
19:37:40.947,-10.0
19:37:40.987,-106.0
19:37:41.027,-185.0
19:37:41.067,2936.0
19:37:41.107,1908.0
19:37:41.147,702.0
19:38:55.518,2420759.0
19:38:55.558,3388987.0
19:38:55.598,3655337.0
19:38:55.638,3592240.0
19:38:55.678,3384137.0
19:38:55.718,3121039.0
19:38:55.758,2847637.0
19:38:55.798,2581376.0
19:38:55.838,2332414.0
19:38:55.878,2103885.0
19:38:55.918,1896063.0
19:38:55.958,1707836.0
19:38:55.998,1537491.0
19:38:56.038,1383849.0
19:38:56.078,1245475.0
19:38:56.118,1120938.0
19:38:56.158,1008864.0
19:38:56.198,907977.0
19:38:56.238,817194.0
19:38:56.278,735394.0
19:38:56.318,661821.0
19:38:56.358,595609.0
19:38:56.398,536205.0
19:38:56.438,482520.0
19:38:56.478,434099.0
19:38:56.518,390422.0
19:38:56.558,352552.0
19:38:56.598,316955.0
19:38:56.638,285121.0
19:38:56.678,256673.0
19:38:56.718,231252.0
19:38:56.758,208378.0
19:38:56.798,187425.0
19:38:56.838,168474.0
19:38:56.878,151533.0
19:38:56.918,136328.0
19:38:56.958,122679.0
19:38:56.998,110434.0
19:38:57.038,99379.0
19:38:57.078,89438.0
19:38:57.118,80493.0
19:38:57.158,72407.0
19:38:57.198,65205.0
19:38:57.238,58730.0
19:38:57.278,52746.0
19:38:57.318,47202.0
19:38:57.358,45390.0
19:38:57.398,39967.0
19:38:57.438,35117.0
19:38:57.478,31213.0
19:38:57.518,28100.0
19:38:57.558,25510.0
19:38:57.598,22911.0
19:38:57.638,20347.0
19:38:57.678,18195.0
19:38:57.718,16329.0
19:38:57.758,14704.0
19:38:57.798,13272.0
19:38:57.838,11928.0
19:38:57.878,10694.0
19:38:57.918,9602.0
19:38:57.958,8629.0
19:38:57.998,7757.0
19:38:58.038,7147.0
19:38:58.078,6332.0
19:38:58.118,5567.0
19:38:58.158,4737.0
19:38:58.198,5421.0
19:38:58.238,4546.0
19:38:58.278,3925.0
19:38:58.318,3556.0
19:38:58.358,3447.0
19:38:58.398,3387.0
19:38:58.438,2931.0
19:38:58.478,2414.0
19:38:58.518,2031.0
19:38:58.558,1781.0
19:38:58.598,1650.0
19:38:58.638,1520.0
19:38:58.678,1391.0
19:38:58.718,1231.0
19:38:58.758,1106.0
19:38:58.798,988.0
19:38:58.838,1078.0
19:38:58.878,876.0
19:38:58.918,687.0
19:38:58.958,361.0
19:38:58.998,1237.0
19:38:59.038,747.0
19:38:59.078,444.0
19:38:59.118,328.0
19:38:59.158,500.0
19:38:59.198,640.0
19:38:59.238,360.0
19:38:59.278,37.0
19:38:59.318,-147.0
19:38:59.358,-258.0
19:38:59.398,-296.0
19:38:59.438,-329.0
19:38:59.478,-384.0
19:38:56.591,-426.0
19:38:56.631,-413.0
19:38:56.671,-201.0
19:38:56.711,-360.0
19:38:56.751,-495.0
19:38:56.791,-527.0
19:38:56.831,448.0
19:38:56.871,13.0
19:38:56.911,-150.0
19:38:56.951,-146.0
19:38:56.991,100.0
19:38:57.031,322.0
19:38:57.071,152.0
19:38:57.111,-52.0
19:38:57.151,-148.0
19:38:57.191,-170.0
19:38:57.231,-153.0
19:38:57.271,-107.0
19:38:57.311,-108.0
19:38:57.351,-162.0
19:38:57.391,-178.0
19:38:57.431,-157.0
19:38:57.471,-146.0
19:38:57.511,141.0
19:38:57.551,-38.0
19:38:57.591,-129.0
19:38:57.631,-109.0
19:38:57.671,810.0
19:38:57.711,346.0
19:38:57.751,89.0
19:38:57.791,68.0
19:38:57.831,352.0
19:38:57.871,519.0
19:38:57.911,269.0
19:38:57.951,-18.0
19:38:57.991,-173.0
19:38:58.031,-229.0
19:38:58.071,-225.0
19:38:58.111,-182.0
19:38:58.151,-184.0
19:38:58.191,-194.0
19:38:58.231,-140.0
19:38:58.271,-122.0
19:38:58.311,-13.0
19:38:58.351,122.0
19:38:58.391,-12.0
19:38:58.431,-114.0
19:38:58.471,1823.0
19:38:58.511,1648.0
19:38:58.551,673.0
19:38:58.591,223.0
19:38:58.631,179.0
19:38:58.671,420.0
19:38:58.711,415.0
19:38:58.751,104.0
19:38:58.791,-117.0
19:38:58.831,-228.0
19:38:58.871,-285.0
19:38:58.911,-306.0
19:38:58.951,-284.0
19:38:58.991,-291.0
19:38:59.031,-304.0
19:38:59.071,-281.0
19:38:59.111,-194.0
19:38:59.151,36.0
19:38:59.191,-154.0
19:38:59.231,-245.0
19:38:59.271,718.0
19:38:59.311,1112.0
19:38:59.351,417.0
19:38:59.391,87.0
19:38:59.431,103.0
19:38:59.471,351.0
19:38:59.511,405.0
19:38:59.551,75.0
19:38:59.591,-194.0
19:38:59.631,-332.0
19:38:59.671,-338.0
19:38:59.711,-346.0
19:38:59.751,-338.0
19:38:59.791,-336.0
19:38:59.831,-372.0
19:38:59.871,-354.0
19:38:59.911,-147.0
19:38:59.951,-217.0
19:38:59.991,-313.0
19:39:00.031,-592.0
19:39:00.071,541.0
19:39:00.111,306.0
19:39:00.151,34.0
19:39:00.191,26.0
19:39:00.231,293.0
19:39:00.271,542.0
19:39:00.311,330.0
19:39:00.351,8.0
19:39:00.391,-139.0
19:39:00.431,-137.0
19:39:00.471,-104.0
19:39:00.511,-51.0
19:39:00.551,-112.0
19:39:03.808,-117.0
19:39:03.848,17.0
19:39:03.888,-91.0
19:39:03.928,-205.0
19:39:03.968,2102.0
19:39:04.008,1605.0
19:39:04.048,556.0
19:39:04.088,83.0
19:39:04.128,9.0
19:39:04.168,198.0
19:39:04.208,154.0
19:39:04.248,-171.0
19:39:04.288,-342.0
19:39:04.328,-430.0
19:39:04.368,-444.0
19:39:04.408,-414.0
19:39:04.448,-393.0
19:39:04.488,-417.0
19:39:04.528,-377.0
19:39:04.568,-256.0
19:39:04.608,-416.0
19:39:04.648,-528.0
19:39:04.688,1651.0
19:39:04.728,1127.0
19:39:04.768,63.0
19:39:04.808,-477.0
19:39:04.848,-609.0
19:39:04.888,-498.0
19:39:04.928,-461.0
19:39:04.968,-693.0
19:39:05.008,-811.0
19:39:05.048,-850.0
19:39:05.088,-811.0
19:39:05.128,-619.0
19:39:05.168,-494.0
19:39:05.208,-429.0
19:39:05.248,-371.0
19:39:05.288,-83.0
19:39:05.328,-206.0
19:39:05.368,-331.0
19:39:05.408,-362.0
19:39:05.448,550.0
19:39:05.488,119.0
19:39:05.528,-144.0
19:39:05.568,-234.0
19:39:05.608,-32.0
19:39:05.648,200.0
19:39:05.688,91.0
19:39:05.728,-62.0
19:39:05.768,-131.0
19:39:05.808,-106.0
19:39:05.848,-146.0
19:39:05.888,-118.0
19:39:05.928,-131.0
19:39:05.968,-116.0
19:39:06.008,-24.0
19:39:06.048,-100.0
19:39:06.088,-278.0
19:39:06.128,3068.0
19:39:06.168,1718.0
19:39:06.208,544.0
19:39:06.248,0.0
19:39:06.288,-36.0
19:39:06.328,174.0
19:39:06.368,84.0
19:39:06.408,-171.0
19:39:06.448,-333.0
19:39:06.488,-379.0
19:39:06.528,-412.0
19:39:06.568,-391.0
19:39:06.608,-427.0
19:39:06.648,-307.0
19:39:06.688,-187.0
19:39:06.728,-288.0
19:39:06.768,-373.0
19:39:06.808,1101.0
19:39:06.848,1357.0
19:39:06.888,461.0
19:39:06.928,96.0
19:39:06.968,120.0
19:39:07.008,389.0
19:39:07.048,438.0
19:39:07.088,206.0
19:39:07.128,36.0
19:39:07.168,12.0
19:39:07.208,-11.0
19:39:07.248,-53.0
19:39:07.288,-5.0
19:39:07.328,-50.0
19:39:07.368,-31.0
19:39:07.408,176.0
19:39:07.448,67.0
19:39:07.488,-34.0
19:39:07.528,-301.0
19:39:07.568,775.0
19:39:07.608,427.0
19:39:07.648,197.0
19:39:07.688,179.0
19:39:07.728,363.0
19:39:07.768,522.0
19:39:11.808,277.0
19:39:11.848,-50.0
19:39:11.888,-205.0
19:39:11.928,-250.0
19:39:11.968,-225.0
19:39:12.008,-196.0
19:39:12.048,-234.0
19:39:12.088,-157.0
19:39:12.128,-22.0
19:39:12.168,-188.0
19:39:12.208,-267.0
19:39:12.248,805.0
19:39:12.288,999.0
19:39:12.328,248.0
19:39:12.368,-116.0
19:39:12.408,-200.0
19:39:12.448,-40.0
19:39:12.488,-24.0
19:39:12.528,-303.0
19:39:12.568,-514.0
19:39:12.608,-611.0
19:39:12.648,-586.0
19:39:12.688,-547.0
19:39:12.728,-474.0
19:39:12.768,-476.0
19:39:12.808,-490.0
19:39:12.848,-487.0
19:39:12.888,-528.0
19:39:12.928,-631.0
19:39:12.968,-1139.0
19:39:13.008,643.0
19:39:13.048,174.0
19:39:13.088,-212.0
19:39:13.128,-292.0
19:39:13.168,-97.0
19:39:13.208,137.0
19:39:13.248,-3.0
19:39:13.288,-212.0
19:39:13.328,-294.0
19:39:13.368,-256.0
19:39:13.408,-216.0
19:39:13.448,-168.0
19:39:13.488,-164.0
19:39:13.528,-162.0
19:39:13.568,-112.0
19:39:13.608,4.0
19:39:13.648,90.0
19:39:13.688,-10.0
19:39:13.728,-153.0
19:39:13.768,2895.0
19:39:13.808,1861.0
19:39:13.848,609.0
19:39:13.888,68.0
19:39:13.928,46.0
19:39:13.968,246.0
19:39:14.008,188.0
19:39:14.048,-93.0
19:39:14.088,-269.0
19:39:14.128,-273.0
19:39:14.168,-260.0
19:39:14.208,-197.0
19:39:14.248,-218.0
19:39:14.288,-254.0
19:39:14.328,-229.0
19:39:14.368,-215.0
19:39:14.408,-91.0
19:39:14.448,5.0
19:39:14.488,-136.0
19:39:14.528,-253.0
19:39:14.568,1951.0
19:39:14.608,1552.0
19:39:14.648,492.0
19:39:14.688,8.0
19:39:14.728,5.0
19:39:14.768,210.0
19:39:14.808,162.0
19:39:14.848,-128.0
19:39:14.888,-345.0
19:39:14.928,-379.0
19:39:14.968,-354.0
19:39:15.008,-280.0
19:39:15.048,-312.0
19:39:15.088,-329.0
19:39:15.128,-314.0
19:39:15.168,-273.0
19:39:15.208,-197.0
19:39:15.248,-320.0
19:39:15.288,-412.0
19:39:15.328,-621.0
19:39:15.368,390.0
19:39:15.408,23.0
19:39:15.448,-207.0
19:39:15.488,-242.0
19:39:15.528,-70.0
19:39:15.568,52.0
19:39:15.608,-168.0
19:39:15.648,-409.0
19:39:15.688,-552.0
19:39:15.728,-592.0
19:39:15.768,-574.0
19:39:13.801,-526.0
19:39:13.841,-554.0
19:39:13.881,-573.0
19:39:13.921,-415.0
19:39:13.961,-256.0
19:39:14.001,-391.0
19:39:14.041,-454.0
19:39:14.081,447.0
19:39:14.121,883.0
19:39:14.161,246.0
19:39:14.201,-40.0
19:39:14.241,-24.0
19:39:14.281,245.0
19:39:14.321,327.0
19:39:14.361,96.0
19:39:14.401,-112.0
19:39:14.441,-152.0
19:39:14.481,-176.0
19:39:14.521,-132.0
19:39:14.561,-86.0
19:39:14.601,-123.0
19:39:14.641,-110.0
19:39:14.681,-89.0
19:39:14.721,70.0
19:39:14.761,180.0
19:39:14.801,-26.0
19:39:14.841,-163.0
19:39:14.881,245.0
19:39:14.921,894.0
19:39:14.961,374.0
19:39:15.001,143.0
19:39:15.041,157.0
19:39:15.081,406.0
19:39:15.121,488.0
19:39:15.161,211.0
19:39:15.201,-39.0
19:39:15.241,-108.0
19:39:15.281,-122.0
19:39:15.321,-75.0
19:39:15.361,-32.0
19:39:15.401,-43.0
19:39:15.441,-13.0
19:39:15.481,34.0
19:39:15.521,133.0
19:39:15.561,235.0
19:39:15.601,57.0
19:39:15.641,-73.0
19:39:15.681,1206.0
19:39:15.721,1304.0
19:39:15.761,456.0
19:39:15.801,-16.0
19:39:15.841,9.0
19:39:15.881,170.0
19:39:15.921,156.0
19:39:15.961,-162.0
19:39:16.001,-384.0
19:39:16.041,-452.0
19:39:16.081,-458.0
19:39:16.121,-448.0
19:39:16.161,-375.0
19:39:16.201,-405.0
19:39:16.241,-437.0
19:39:16.281,-410.0
19:39:16.321,-320.0
19:39:16.361,-311.0
19:39:16.401,-383.0
19:39:16.441,-885.0
19:39:16.481,927.0
19:39:16.521,556.0
19:39:16.561,6.0
19:39:16.601,-138.0
19:39:16.641,27.0
19:39:16.681,241.0
19:39:16.721,64.0
19:39:16.761,-209.0
19:39:16.801,-302.0
19:39:16.841,-342.0
19:39:16.881,-310.0
19:39:16.921,-255.0
19:39:16.961,-246.0
19:39:17.001,-262.0
19:39:17.041,-271.0
19:39:17.081,-196.0
19:39:17.121,-94.0
19:39:17.161,-71.0
19:39:17.201,-209.0
19:39:17.241,-575.0
19:39:17.281,1947.0
19:39:17.321,1150.0
19:39:17.361,326.0
19:39:17.401,38.0
19:39:17.441,83.0
19:39:17.481,305.0
19:39:17.521,132.0
19:39:17.561,-139.0
19:39:17.601,-243.0
19:39:17.641,-300.0
19:39:17.681,-333.0
19:39:17.721,-273.0
19:39:17.761,-278.0
19:39:17.955,-343.0
19:39:17.995,-314.0
19:39:18.035,-207.0
19:39:18.075,-39.0
19:39:18.115,-227.0
19:39:18.155,-372.0
19:39:18.195,-206.0
19:39:18.235,561.0
19:39:18.275,134.0
19:39:18.315,-51.0
19:39:18.355,62.0
19:39:18.395,335.0
19:39:18.435,490.0
19:39:18.475,219.0
19:39:18.515,-12.0
19:39:18.555,-78.0
19:39:18.595,-80.0
19:39:18.635,-34.0
19:39:18.675,27.0
19:39:18.715,36.0
19:39:18.755,29.0
19:39:18.795,47.0
19:39:18.835,73.0
19:39:18.875,181.0
19:39:18.915,218.0
19:39:18.955,38.0
19:39:18.995,-190.0
19:39:19.035,2882.0
19:39:19.075,1645.0
19:39:19.115,514.0
19:39:19.155,-10.0
19:39:19.195,-109.0
19:39:19.235,53.0
19:39:19.275,14.0
19:39:19.315,-292.0
19:39:19.355,-457.0
19:39:19.395,-505.0
19:39:19.435,-504.0
19:39:19.475,-423.0
19:39:19.515,-390.0
19:39:19.555,-394.0
19:39:19.595,-425.0
19:39:19.635,-401.0
19:39:19.675,-305.0
19:39:19.715,-391.0
19:39:19.755,-483.0
19:39:19.795,-739.0
19:39:19.835,309.0
19:39:19.875,-24.0
19:39:19.915,-213.0
19:39:19.955,-230.0
19:39:19.995,18.0
19:39:20.035,223.0
19:39:20.075,80.0
19:39:20.115,-170.0
19:39:20.155,-321.0
19:39:20.195,-346.0
19:39:20.235,-305.0
19:39:20.275,-275.0
19:39:20.315,-245.0
19:39:20.355,-290.0
19:39:20.395,-273.0
19:39:20.435,-154.0
19:39:20.475,-33.0
19:39:20.515,-70.0
19:39:20.555,-166.0
19:39:20.595,-448.0
19:39:20.635,768.0
19:39:20.675,401.0
19:39:20.715,191.0
19:39:20.755,211.0
19:39:20.795,446.0
19:39:20.835,615.0
19:39:20.875,428.0
19:39:20.915,122.0
19:39:20.955,-64.0
19:39:20.995,-116.0
19:39:21.035,-116.0
19:39:21.075,-103.0
19:39:21.115,-134.0
19:39:21.155,-186.0
19:39:21.195,-193.0
19:39:21.235,-161.0
19:39:21.275,-105.0
19:39:21.315,-124.0
19:39:21.355,-200.0
19:39:21.395,-660.0
19:39:21.435,1373.0
19:39:21.475,959.0
19:39:21.515,315.0
19:39:21.555,129.0
19:39:21.595,267.0
19:39:21.635,449.0
19:39:21.675,333.0
19:39:21.715,-6.0
19:39:21.755,-189.0
19:39:21.795,-190.0
19:39:21.835,-192.0
19:39:21.875,-111.0
19:39:21.915,-88.0
19:39:19.961,-81.0
19:39:20.001,-88.0
19:39:20.041,-11.0
19:39:20.081,78.0
19:39:20.121,-99.0
19:39:20.161,-192.0
19:39:20.201,1463.0
19:39:20.241,1387.0
19:39:20.281,424.0
19:39:20.321,-3.0
19:39:20.361,-80.0
19:39:20.401,101.0
19:39:20.441,66.0
19:39:20.481,-251.0
19:39:20.521,-463.0
19:39:20.561,-544.0
19:39:20.601,-557.0
19:39:20.641,-546.0
19:39:20.681,-507.0
19:39:20.721,-524.0
19:39:20.761,-527.0
19:39:20.801,-499.0
19:39:20.841,-392.0
19:39:20.881,-210.0
19:39:20.921,-365.0
19:39:20.961,-461.0
19:39:21.001,1018.0
19:39:21.041,1147.0
19:39:21.081,301.0
19:39:21.121,-81.0
19:39:21.161,-108.0
19:39:21.201,98.0
19:39:21.241,80.0
19:39:21.281,-181.0
19:39:21.321,-359.0
19:39:21.361,-380.0
19:39:21.401,-343.0
19:39:21.441,-279.0
19:39:21.481,-226.0
19:39:21.521,-201.0
19:39:21.561,-195.0
19:39:21.601,-162.0
19:39:21.641,-124.0
19:39:21.681,-3.0
19:39:21.721,44.0
19:39:21.761,-72.0
19:39:21.801,-280.0
19:39:21.841,3022.0
19:39:21.881,1723.0
19:39:21.921,555.0
19:39:21.961,19.0
19:39:22.001,13.0
19:39:22.041,214.0
19:39:22.081,103.0
19:39:22.121,-205.0
19:39:22.161,-371.0
19:39:22.201,-405.0
19:39:22.241,-367.0
19:39:22.281,-303.0
19:39:22.321,-263.0
19:39:22.361,-257.0
19:39:22.401,-236.0
19:39:22.441,-245.0
19:39:22.481,-207.0
19:39:22.521,-90.0
19:39:22.561,-37.0
19:39:22.601,-176.0
19:39:22.641,-304.0
19:39:22.681,2498.0
19:39:22.721,1622.0
19:39:22.761,476.0
19:39:22.801,5.0
19:39:22.841,-29.0
19:39:22.881,180.0
19:39:22.921,98.0
19:39:22.961,-215.0
19:39:23.001,-366.0
19:39:23.041,-415.0
19:39:23.081,-401.0
19:39:23.121,-349.0
19:39:23.161,-337.0
19:39:23.201,-340.0
19:39:23.241,-302.0
19:39:23.281,-255.0
19:39:23.321,-186.0
19:39:23.361,-49.0
19:39:23.401,-78.0
19:39:23.441,-162.0
19:39:23.481,-581.0
19:39:23.521,1312.0
19:39:23.561,983.0
19:39:23.601,391.0
19:39:23.641,160.0
19:39:23.681,229.0
19:39:23.721,418.0
19:39:23.761,261.0
19:39:23.801,-38.0
19:39:23.841,-239.0
19:39:23.881,-316.0
19:39:23.921,-332.0
19:39:26.326,277.0
19:39:26.366,-50.0
19:39:26.406,-205.0
19:39:26.446,-250.0
19:39:26.486,-225.0
19:39:26.526,-196.0
19:39:26.566,-234.0
19:39:26.606,-157.0
19:39:26.646,-22.0
19:39:26.686,-188.0
19:39:26.726,-267.0
19:39:26.766,805.0
19:39:26.806,999.0
19:39:26.846,248.0
19:39:26.886,-116.0
19:39:26.926,-200.0
19:39:26.966,-40.0
19:39:27.006,-24.0
19:39:27.046,-303.0
19:39:27.086,-514.0
19:39:27.126,-611.0
19:39:27.166,-586.0
19:39:27.206,-547.0
19:39:27.246,-474.0
19:39:27.286,-476.0
19:39:27.326,-490.0
19:39:27.366,-487.0
19:39:27.406,-528.0
19:39:27.446,-631.0
19:39:27.486,-1139.0
19:39:27.526,643.0
19:39:27.566,174.0
19:39:27.606,-212.0
19:39:27.646,-292.0
19:39:27.686,-97.0
19:39:27.726,137.0
19:39:27.766,-3.0
19:39:27.806,-212.0
19:39:27.846,-294.0
19:39:27.886,-256.0
19:39:27.926,-216.0
19:39:27.966,-168.0
19:39:28.006,-164.0
19:39:28.046,-162.0
19:39:28.086,-112.0
19:39:28.126,4.0
19:39:28.166,90.0
19:39:28.206,-10.0
19:39:28.246,-153.0
19:39:28.286,2895.0
19:39:28.326,1861.0
19:39:28.366,609.0
19:39:28.406,68.0
19:39:28.446,46.0
19:39:28.486,246.0
19:39:28.526,188.0
19:39:28.566,-93.0
19:39:28.606,-269.0
19:39:28.646,-273.0
19:39:28.686,-260.0
19:39:28.726,-197.0
19:39:28.766,-218.0
19:39:28.806,-254.0
19:39:28.846,-229.0
19:39:28.886,-215.0
19:39:28.926,-91.0
19:39:28.966,5.0
19:39:29.006,-136.0
19:39:29.046,-253.0
19:39:29.086,1951.0
19:39:29.126,1552.0
19:39:29.166,492.0
19:39:29.206,8.0
19:39:29.246,5.0
19:39:29.286,210.0
19:39:29.326,162.0
19:39:29.366,-128.0
19:39:29.406,-345.0
19:39:29.446,-379.0
19:39:29.486,-354.0
19:39:29.526,-280.0
19:39:29.566,-312.0
19:39:29.606,-329.0
19:39:29.646,-314.0
19:39:29.686,-273.0
19:39:29.726,-197.0
19:39:29.766,-320.0
19:39:29.806,-412.0
19:39:29.846,-621.0
19:39:29.886,390.0
19:39:29.926,23.0
19:39:29.966,-207.0
19:39:30.006,-242.0
19:39:30.046,-70.0
19:39:30.086,52.0
19:39:30.126,-168.0
19:39:30.166,-409.0
19:39:30.206,-552.0
19:39:30.246,-592.0
19:39:30.286,-574.0
19:39:29.821,-526.0
19:39:29.861,-554.0
19:39:29.901,-573.0
19:39:29.941,-415.0
19:39:29.981,-256.0
19:39:30.021,-391.0
19:39:30.061,-454.0
19:39:30.101,447.0
19:39:30.141,883.0
19:39:30.181,246.0
19:39:30.221,-40.0
19:39:30.261,-24.0
19:39:30.301,245.0
19:39:30.341,327.0
19:39:30.381,96.0
19:39:30.421,-112.0
19:39:30.461,-152.0
19:39:30.501,-176.0
19:39:30.541,-132.0
19:39:30.581,-86.0
19:39:30.621,-123.0
19:39:30.661,-110.0
19:39:30.701,-89.0
19:39:30.741,70.0
19:39:30.781,180.0
19:39:30.821,-26.0
19:39:30.861,-163.0
19:39:30.901,245.0
19:39:30.941,894.0
19:39:30.981,374.0
19:39:31.021,143.0
19:39:31.061,157.0
19:39:31.101,406.0
19:39:31.141,488.0
19:39:31.181,211.0
19:39:31.221,-39.0
19:39:31.261,-108.0
19:39:31.301,-122.0
19:39:31.341,-75.0
19:39:31.381,-32.0
19:39:31.421,-43.0
19:39:31.461,-13.0
19:39:31.501,34.0
19:39:31.541,133.0
19:39:31.581,235.0
19:39:31.621,57.0
19:39:31.661,-73.0
19:39:31.701,1206.0
19:39:31.741,1304.0
19:39:31.781,456.0
19:39:31.821,-16.0
19:39:31.861,9.0
19:39:31.901,170.0
19:39:31.941,156.0
19:39:31.981,-162.0
19:39:32.021,-384.0
19:39:32.061,-452.0
19:39:32.101,-458.0
19:39:32.141,-448.0
19:39:32.181,-375.0
19:39:32.221,-405.0
19:39:32.261,-437.0
19:39:32.301,-410.0
19:39:32.341,-320.0
19:39:32.381,-311.0
19:39:32.421,-383.0
19:39:32.461,-885.0
19:39:32.501,927.0
19:39:32.541,556.0
19:39:32.581,6.0
19:39:32.621,-138.0
19:39:32.661,27.0
19:39:32.701,241.0
19:39:32.741,64.0
19:39:32.781,-209.0
19:39:32.821,-302.0
19:39:32.861,-342.0
19:39:32.901,-310.0
19:39:32.941,-255.0
19:39:32.981,-246.0
19:39:33.021,-262.0
19:39:33.061,-271.0
19:39:33.101,-196.0
19:39:33.141,-94.0
19:39:33.181,-71.0
19:39:33.221,-209.0
19:39:33.261,-575.0
19:39:33.301,1947.0
19:39:33.341,1150.0
19:39:33.381,326.0
19:39:33.421,38.0
19:39:33.461,83.0
19:39:33.501,305.0
19:39:33.541,132.0
19:39:33.581,-139.0
19:39:33.621,-243.0
19:39:33.661,-300.0
19:39:33.701,-333.0
19:39:33.741,-273.0
19:39:33.781,-278.0
19:39:32.922,-343.0
19:39:32.962,-314.0
19:39:33.002,-207.0
19:39:33.042,-39.0
19:39:33.082,-227.0
19:39:33.122,-372.0
19:39:33.162,-206.0
19:39:33.202,561.0
19:39:33.242,134.0
19:39:33.282,-51.0
19:39:33.322,62.0
19:39:33.362,335.0
19:39:33.402,490.0
19:39:33.442,219.0
19:39:33.482,-12.0
19:39:33.522,-78.0
19:39:33.562,-80.0
19:39:33.602,-34.0
19:39:33.642,27.0
19:39:33.682,36.0
19:39:33.722,29.0
19:39:33.762,47.0
19:39:33.802,73.0
19:39:33.842,181.0
19:39:33.882,218.0
19:39:33.922,38.0
19:39:33.962,-190.0
19:39:34.002,2882.0
19:39:34.042,1645.0
19:39:34.082,514.0
19:39:34.122,-10.0
19:39:34.162,-109.0
19:39:34.202,53.0
19:39:34.242,14.0
19:39:34.282,-292.0
19:39:34.322,-457.0
19:39:34.362,-505.0
19:39:34.402,-504.0
19:39:34.442,-423.0
19:39:34.482,-390.0
19:39:34.522,-394.0
19:39:34.562,-425.0
19:39:34.602,-401.0
19:39:34.642,-305.0
19:39:34.682,-391.0
19:39:34.722,-483.0
19:39:34.762,-739.0
19:39:34.802,309.0
19:39:34.842,-24.0
19:39:34.882,-213.0
19:39:34.922,-230.0
19:39:34.962,18.0
19:39:35.002,223.0
19:39:35.042,80.0
19:39:35.082,-170.0
19:39:35.122,-321.0
19:39:35.162,-346.0
19:39:35.202,-305.0
19:39:35.242,-275.0
19:39:35.282,-245.0
19:39:35.322,-290.0
19:39:35.362,-273.0
19:39:35.402,-154.0
19:39:35.442,-33.0
19:39:35.482,-70.0
19:39:35.522,-166.0
19:39:35.562,-448.0
19:39:35.602,768.0
19:39:35.642,401.0
19:39:35.682,191.0
19:39:35.722,211.0
19:39:35.762,446.0
19:39:35.802,615.0
19:39:35.842,428.0
19:39:35.882,122.0
19:39:35.922,-64.0
19:39:35.962,-116.0
19:39:36.002,-116.0
19:39:36.042,-103.0
19:39:36.082,-134.0
19:39:36.122,-186.0
19:39:36.162,-193.0
19:39:36.202,-161.0
19:39:36.242,-105.0
19:39:36.282,-124.0
19:39:36.322,-200.0
19:39:36.362,-660.0
19:39:36.402,1373.0
19:39:36.442,959.0
19:39:36.482,315.0
19:39:36.522,129.0
19:39:36.562,267.0
19:39:36.602,449.0
19:39:36.642,333.0
19:39:36.682,-6.0
19:39:36.722,-189.0
19:39:36.762,-190.0
19:39:36.802,-192.0
19:39:36.842,-111.0
19:39:36.882,-88.0
19:39:42.100,-314.0
19:39:42.140,-321.0
19:39:42.180,-329.0
19:39:42.220,-323.0
19:39:42.260,-240.0
19:39:42.300,-269.0
19:39:42.340,-378.0
19:39:42.380,-681.0
19:39:42.420,1842.0
19:39:42.460,997.0
19:39:42.500,137.0
19:39:42.540,-241.0
19:39:42.580,-209.0
19:39:42.620,6.0
19:39:42.660,-52.0
19:39:42.700,-289.0
19:39:42.740,-435.0
19:39:42.780,-456.0
19:39:42.820,-417.0
19:39:42.860,-338.0
19:39:42.900,-311.0
19:39:42.940,-327.0
19:39:42.980,-313.0
19:39:43.020,-328.0
19:39:43.060,-268.0
19:39:43.100,-160.0
19:39:43.140,-141.0
19:39:43.180,-221.0
19:39:43.220,-578.0
19:39:43.260,1639.0
19:39:43.300,1082.0
19:39:43.340,329.0
19:39:43.380,52.0
19:39:43.420,130.0
19:39:43.460,307.0
19:39:43.500,186.0
19:39:43.540,-107.0
19:39:43.580,-245.0
19:39:43.620,-274.0
19:39:43.660,-265.0
19:39:43.700,-254.0
19:39:43.740,-227.0
19:39:43.780,-252.0
19:39:43.820,-225.0
19:39:43.860,-219.0
19:39:43.900,-121.0
19:39:43.940,10.0
19:39:43.980,-75.0
19:39:44.020,-174.0
19:39:44.060,-412.0
19:39:44.100,734.0
19:39:44.140,318.0
19:39:44.180,81.0
19:39:44.220,60.0
19:39:44.260,284.0
19:39:44.300,513.0
19:39:44.340,274.0
19:39:44.380,13.0
19:39:44.420,-114.0
19:39:44.460,-167.0
19:39:44.500,-178.0
19:39:44.540,-149.0
19:39:44.580,-188.0
19:39:44.620,-206.0
19:39:44.660,-194.0
19:39:44.700,-148.0
19:39:44.740,-76.0
19:39:44.780,43.0
19:39:44.820,41.0
19:39:44.860,-69.0
19:39:44.900,-463.0
19:39:44.940,1638.0
19:39:44.980,1113.0
19:39:45.020,456.0
19:39:45.060,184.0
19:39:45.100,258.0
19:39:45.140,439.0
19:39:45.180,268.0
19:39:45.220,-32.0
19:39:45.260,-214.0
19:39:45.300,-311.0
19:39:45.340,-300.0
19:39:45.380,-313.0
19:39:45.420,-351.0
19:39:45.460,-388.0
19:39:45.500,-418.0
19:39:45.540,-409.0
19:39:45.580,-333.0
19:39:45.620,-208.0
19:39:45.660,-337.0
19:39:45.700,-442.0
19:39:45.740,791.0
19:39:45.780,935.0
19:39:45.820,175.0
19:39:45.860,-195.0
19:39:45.900,-259.0
19:39:45.940,-62.0
19:39:45.980,-35.0
19:39:46.020,-305.0
19:39:46.060,-492.0
19:39:47.627,-578.0
19:39:47.667,-541.0
19:39:47.707,-502.0
19:39:47.747,-483.0
19:39:47.787,-510.0
19:39:47.827,-467.0
19:39:47.867,-412.0
19:39:47.907,-284.0
19:39:47.947,-295.0
19:39:47.987,-368.0
19:39:48.027,-647.0
19:39:48.067,2243.0
19:39:48.107,1202.0
19:39:48.147,246.0
19:39:48.187,-168.0
19:39:48.227,-107.0
19:39:48.267,91.0
19:39:48.307,24.0
19:39:48.347,-202.0
19:39:48.387,-321.0
19:39:48.427,-344.0
19:39:48.467,-319.0
19:39:48.507,-280.0
19:39:48.547,-250.0
19:39:48.587,-277.0
19:39:48.627,-244.0
19:39:48.667,-234.0
19:39:48.707,-232.0
19:39:48.747,-155.0
19:39:48.787,-138.0
19:39:48.827,-245.0
19:39:48.867,-423.0
19:39:48.907,2844.0
19:39:48.947,1565.0
19:39:48.987,423.0
19:39:49.027,-49.0
19:39:49.067,-64.0
19:39:49.107,112.0
19:39:49.147,40.0
19:39:49.187,-226.0
19:39:49.227,-389.0
19:39:49.267,-382.0
19:39:49.307,-364.0
19:39:49.347,-314.0
19:39:49.387,-303.0
19:39:49.427,-291.0
19:39:49.467,-293.0
19:39:49.507,-270.0
19:39:49.547,-204.0
19:39:49.587,-166.0
19:39:49.627,-199.0
19:39:49.667,-295.0
19:39:49.707,-714.0
19:39:49.747,1190.0
19:39:49.787,784.0
19:39:49.827,156.0
19:39:49.867,-110.0
19:39:49.907,-29.0
19:39:49.947,132.0
19:39:49.987,-26.0
19:39:50.027,-297.0
19:39:50.067,-417.0
19:39:50.107,-495.0
19:39:50.147,-456.0
19:39:50.187,-415.0
19:39:50.227,-417.0
19:39:50.267,-434.0
19:39:50.307,-443.0
19:39:50.347,-385.0
19:39:50.387,-300.0
19:39:50.427,-227.0
19:39:50.467,-366.0
19:39:50.507,-487.0
19:39:50.547,2119.0
19:39:50.587,1379.0
19:39:50.627,252.0
19:39:50.667,-257.0
19:39:50.707,-333.0
19:39:50.747,-151.0
19:39:50.787,-194.0
19:39:50.827,-404.0
19:39:50.867,-552.0
19:39:50.907,-569.0
19:39:50.947,-552.0
19:39:50.987,-466.0
19:39:51.027,-452.0
19:39:51.067,-431.0
19:39:51.107,-394.0
19:39:51.147,-357.0
19:39:51.187,-337.0
19:39:51.227,-192.0
19:39:51.267,-88.0
19:39:51.307,-185.0
19:39:51.347,-288.0
19:39:51.387,2670.0
19:39:51.427,1693.0
19:39:51.467,590.0
19:39:51.507,79.0
19:39:51.547,75.0
19:39:51.587,275.0
19:39:49.833,184.0
19:39:49.873,-198.0
19:39:49.913,-346.0
19:39:49.953,-435.0
19:39:49.993,-414.0
19:39:50.033,-382.0
19:39:50.073,-411.0
19:39:50.113,-404.0
19:39:50.153,-386.0
19:39:50.193,-253.0
19:39:50.233,-109.0
19:39:50.273,-98.0
19:39:50.313,-186.0
19:39:50.353,-664.0
19:39:50.393,1187.0
19:39:50.433,893.0
19:39:50.473,379.0
19:39:50.513,230.0
19:39:50.553,385.0
19:39:50.593,603.0
19:39:50.633,457.0
19:39:50.673,77.0
19:39:50.713,-92.0
19:39:50.753,-150.0
19:39:50.793,-193.0
19:39:50.833,-205.0
19:39:50.873,-238.0
19:39:50.913,-263.0
19:39:50.953,-254.0
19:39:50.993,-259.0
19:39:51.033,-146.0
19:39:51.073,-27.0
19:39:51.113,-246.0
19:39:51.153,-341.0
19:39:51.193,470.0
19:39:51.233,826.0
19:39:51.273,186.0
19:39:51.313,-89.0
19:39:51.353,-65.0
19:39:51.393,169.0
19:39:51.433,244.0
19:39:51.473,32.0
19:39:51.513,-145.0
19:39:51.553,-137.0
19:39:51.593,-156.0
19:39:51.633,-102.0
19:39:51.673,-75.0
19:39:51.713,-118.0
19:39:51.753,-160.0
19:39:51.793,-138.0
19:39:51.833,12.0
19:39:51.873,122.0
19:39:51.913,-107.0
19:39:51.953,-258.0
19:39:51.993,747.0
19:39:52.033,1150.0
19:39:52.073,432.0
19:39:52.113,116.0
19:39:52.153,117.0
19:39:52.193,370.0
19:39:52.233,431.0
19:39:52.273,174.0
19:39:52.313,-19.0
19:39:52.353,-79.0
19:39:52.393,-146.0
19:39:52.433,-179.0
19:39:52.473,-232.0
19:39:52.513,-329.0
19:39:52.553,-385.0
19:39:52.593,-348.0
19:39:52.633,-246.0
19:39:52.673,-322.0
19:39:52.713,-424.0
19:39:52.753,-728.0
19:39:52.793,464.0
19:39:52.833,146.0
19:39:52.873,-59.0
19:39:52.913,-63.0
19:39:52.953,199.0
19:39:52.993,413.0
19:39:53.033,263.0
19:39:53.073,31.0
19:39:53.113,-23.0
19:39:53.153,-41.0
19:39:53.193,-20.0
19:39:53.233,30.0
19:39:53.273,78.0
19:39:53.313,99.0
19:39:53.353,114.0
19:39:53.393,134.0
19:39:53.433,-17.0
19:39:53.473,-186.0
19:39:53.513,2763.0
19:39:53.553,1613.0
19:39:53.593,393.0
19:39:53.633,-155.0
19:39:53.673,-240.0
19:39:53.713,-95.0
19:39:53.753,-220.0
19:39:53.793,-530.0
19:39:52.121,-662.0
19:39:52.161,-679.0
19:39:52.201,-640.0
19:39:52.241,-593.0
19:39:52.281,-558.0
19:39:52.321,-556.0
19:39:52.361,-636.0
19:39:52.401,-685.0
19:39:52.441,-1078.0
19:39:52.481,1041.0
19:39:52.521,597.0
19:39:52.561,-52.0
19:39:52.601,-284.0
19:39:52.641,-158.0
19:39:52.681,97.0
19:39:52.721,25.0
19:39:52.761,-200.0
19:39:52.801,-295.0
19:39:52.841,-265.0
19:39:52.881,-144.0
19:39:52.921,-40.0
19:39:52.961,-38.0
19:39:53.001,-21.0
19:39:53.041,21.0
19:39:53.081,-1.0
19:39:53.121,-72.0
19:39:53.161,-380.0
19:39:53.201,984.0
19:39:53.241,600.0
19:39:53.281,334.0
19:39:53.321,299.0
19:39:53.361,556.0
19:39:53.401,738.0
19:39:53.441,516.0
19:39:53.481,184.0
19:39:53.521,40.0
19:39:53.561,0.0
19:39:53.601,40.0
19:39:53.641,67.0
19:39:53.681,89.0
19:39:53.721,110.0
19:39:53.761,216.0
19:39:53.801,183.0
19:39:53.841,86.0
19:39:53.881,-344.0
19:39:53.921,1749.0
19:39:53.961,1232.0
19:39:54.001,472.0
19:39:54.041,158.0
19:39:54.081,192.0
19:39:54.121,296.0
19:39:54.161,102.0
19:39:54.201,-289.0
19:39:54.241,-506.0
19:39:54.281,-551.0
19:39:54.321,-499.0
19:39:54.361,-435.0
19:39:54.401,-399.0
19:39:54.441,-364.0
19:39:54.481,-378.0
19:39:54.521,-396.0
19:39:54.561,-362.0
19:39:54.601,-401.0
19:39:54.641,-748.0
19:39:54.681,442.0
19:39:54.721,119.0
19:39:54.761,-104.0
19:39:54.801,-147.0
19:39:54.841,41.0
19:39:54.881,196.0
19:39:54.921,-14.0
19:39:54.961,-269.0
19:39:55.001,-391.0
19:39:55.041,-410.0
19:39:55.081,-345.0
19:39:55.121,-265.0
19:39:55.161,-280.0
19:39:55.201,-318.0
19:39:55.241,-338.0
19:39:55.281,-284.0
19:39:55.321,-183.0
19:39:55.361,-116.0
19:39:55.401,-229.0
19:39:55.441,-377.0
19:39:55.481,2749.0
19:39:55.521,1650.0
19:39:55.561,483.0
19:39:55.601,-30.0
19:39:55.641,-11.0
19:39:55.681,215.0
19:39:55.721,143.0
19:39:55.761,-148.0
19:39:55.801,-306.0
19:39:55.841,-317.0
19:39:55.881,-298.0
19:39:55.921,-229.0
19:39:55.961,-202.0
19:39:56.001,-243.0
19:39:56.041,-228.0
19:39:56.081,-235.0
19:40:04.513,-226.0
19:40:04.553,-110.0
19:40:04.593,-155.0
19:40:04.633,-252.0
19:40:04.673,-538.0
19:40:04.713,895.0
19:40:04.753,485.0
19:40:04.793,154.0
19:40:04.833,141.0
19:40:04.873,388.0
19:40:04.913,573.0
19:40:04.953,343.0
19:40:04.993,32.0
19:40:05.033,-127.0
19:40:05.073,-162.0
19:40:05.113,-128.0
19:40:05.153,-91.0
19:40:05.193,-117.0
19:40:05.233,-161.0
19:40:05.273,-132.0
19:40:05.313,-133.0
19:40:05.353,-142.0
19:40:05.393,-27.0
19:40:05.433,135.0
19:40:05.473,-44.0
19:40:05.513,-155.0
19:40:05.553,-11.0
19:40:05.593,802.0
19:40:05.633,399.0
19:40:05.673,225.0
19:40:05.713,240.0
19:40:05.753,510.0
19:40:05.793,670.0
19:40:05.833,374.0
19:40:05.873,82.0
19:40:05.913,-47.0
19:40:05.953,-70.0
19:40:05.993,-7.0
19:40:06.033,-4.0
19:40:06.073,-12.0
19:40:06.113,-109.0
19:40:06.153,-137.0
19:40:06.193,-170.0
19:40:06.233,-145.0
19:40:06.273,-107.0
19:40:06.313,-142.0
19:40:06.353,-221.0
19:40:06.393,-666.0
19:40:06.433,1134.0
19:40:06.473,835.0
19:40:06.513,216.0
19:40:06.553,-27.0
19:40:06.593,64.0
19:40:06.633,240.0
19:40:06.673,58.0
19:40:06.713,-247.0
19:40:06.753,-403.0
19:40:06.793,-472.0
19:40:06.833,-452.0
19:40:06.873,-386.0
19:40:06.913,-331.0
19:40:06.953,-372.0
19:40:06.993,-441.0
19:40:07.033,-436.0
19:40:07.073,-409.0
19:40:07.113,-265.0
19:40:07.153,-112.0
19:40:07.193,-264.0
19:40:07.233,-368.0
19:40:07.273,653.0
19:40:07.313,1072.0
19:40:07.353,365.0
19:40:07.393,37.0
19:40:07.433,6.0
19:40:07.473,227.0
19:40:07.513,318.0
19:40:07.553,31.0
19:40:07.593,-215.0
19:40:07.633,-293.0
19:40:07.673,-287.0
19:40:07.713,-214.0
19:40:07.753,-189.0
19:40:07.793,-205.0
19:40:07.833,-187.0
19:40:07.873,-169.0
19:40:07.913,-143.0
19:40:07.953,-105.0
19:40:07.993,-17.0
19:40:08.033,-61.0
19:40:08.073,-151.0
19:40:08.113,-462.0
19:40:08.153,2007.0
19:40:08.193,1296.0
19:40:08.233,488.0
19:40:08.273,163.0
19:40:08.313,246.0
19:40:08.353,482.0
19:40:08.393,360.0
19:40:08.433,25.0
19:40:08.473,-183.0
19:40:09.905,-191.0
19:40:09.945,-163.0
19:40:09.985,-126.0
19:40:10.025,-134.0
19:40:10.065,-135.0
19:40:10.105,-189.0
19:40:10.145,-110.0
19:40:10.185,-73.0
19:40:10.225,26.0
19:40:10.265,25.0
19:40:10.305,-72.0
19:40:10.345,-519.0
19:40:10.385,1477.0
19:40:10.425,1010.0
19:40:10.465,341.0
19:40:10.505,46.0
19:40:10.545,172.0
19:40:10.585,350.0
19:40:10.625,187.0
19:40:10.665,-162.0
19:40:10.705,-363.0
19:40:10.745,-390.0
19:40:10.785,-359.0
19:40:10.825,-278.0
19:40:10.865,-280.0
19:40:10.905,-296.0
19:40:10.945,-280.0
19:40:10.985,-244.0
19:40:11.025,-218.0
19:40:11.065,-85.0
19:40:11.105,-65.0
19:40:11.145,-168.0
19:40:11.185,-410.0
19:40:11.225,2124.0
19:40:11.265,1367.0
19:40:11.305,507.0
19:40:11.345,137.0
19:40:11.385,208.0
19:40:11.425,427.0
19:40:11.465,320.0
19:40:11.505,-45.0
19:40:11.545,-250.0
19:40:11.585,-303.0
19:40:11.625,-296.0
19:40:11.665,-219.0
19:40:11.705,-257.0
19:40:11.745,-297.0
19:40:11.785,-322.0
19:40:11.825,-251.0
19:40:11.865,-145.0
19:40:11.905,-253.0
19:40:11.945,-318.0
19:40:11.985,-469.0
19:40:12.025,471.0
19:40:12.065,83.0
19:40:12.105,-130.0
19:40:12.145,-97.0
19:40:12.185,151.0
19:40:12.225,292.0
19:40:12.265,-10.0
19:40:12.305,-299.0
19:40:12.345,-450.0
19:40:12.385,-495.0
19:40:12.425,-431.0
19:40:12.465,-364.0
19:40:12.505,-312.0
19:40:12.545,-356.0
19:40:12.585,-381.0
19:40:12.625,-318.0
19:40:12.665,-335.0
19:40:12.705,-426.0
19:40:12.745,-776.0
19:40:12.785,1427.0
19:40:12.825,850.0
19:40:12.865,149.0
19:40:12.905,-150.0
19:40:12.945,-71.0
19:40:12.985,172.0
19:40:13.025,64.0
19:40:13.065,-176.0
19:40:13.105,-334.0
19:40:13.145,-369.0
19:40:13.185,-338.0
19:40:13.225,-290.0
19:40:13.265,-241.0
19:40:13.305,-218.0
19:40:13.345,-219.0
19:40:13.385,-136.0
19:40:13.425,-128.0
19:40:13.465,-182.0
19:40:13.505,-507.0
19:40:13.545,1634.0
19:40:13.585,1150.0
19:40:13.625,476.0
19:40:13.665,238.0
19:40:13.705,287.0
19:40:13.745,463.0
19:40:13.785,313.0
19:40:13.825,-19.0
19:40:13.865,-217.0
19:40:11.623,-247.0
19:40:11.663,-138.0
19:40:11.703,-119.0
19:40:11.743,-399.0
19:40:11.783,-566.0
19:40:11.823,-560.0
19:40:11.863,-490.0
19:40:11.903,-396.0
19:40:11.943,-278.0
19:40:11.983,-259.0
19:40:12.023,-229.0
19:40:12.063,-154.0
19:40:12.103,-13.0
19:40:12.143,-30.0
19:40:12.183,-74.0
19:40:12.223,-371.0
19:40:12.263,870.0
19:40:12.303,422.0
19:40:12.343,156.0
19:40:12.383,124.0
19:40:12.423,346.0
19:40:12.463,524.0
19:40:12.503,285.0
19:40:12.543,-22.0
19:40:12.583,-137.0
19:40:12.623,-167.0
19:40:12.663,-133.0
19:40:12.703,-86.0
19:40:12.743,-57.0
19:40:12.783,-109.0
19:40:12.823,-101.0
19:40:12.863,-82.0
19:40:12.903,-54.0
19:40:12.943,-47.0
19:40:12.983,-37.0
19:40:13.023,49.0
19:40:13.063,166.0
19:40:13.103,9.0
19:40:13.143,-99.0
19:40:13.183,-13.0
19:40:13.223,876.0
19:40:13.263,404.0
19:40:13.303,121.0
19:40:13.343,128.0
19:40:13.383,377.0
19:40:13.423,496.0
19:40:13.463,207.0
19:40:13.503,-82.0
19:40:13.543,-177.0
19:40:13.583,-213.0
19:40:13.623,-149.0
19:40:13.663,-110.0
19:40:13.703,-138.0
19:40:13.743,-161.0
19:40:13.783,-125.0
19:40:13.823,-126.0
19:40:13.863,-99.0
19:40:13.903,-97.0
19:40:13.943,-109.0
19:40:13.983,-74.0
19:40:14.023,22.0
19:40:14.063,64.0
19:40:14.103,-14.0
19:40:14.143,-175.0
19:40:14.183,2971.0
19:40:14.223,1751.0
19:40:14.263,616.0
19:40:14.303,77.0
19:40:14.343,75.0
19:40:14.383,269.0
19:40:14.423,151.0
19:40:14.463,-168.0
19:40:14.503,-349.0
19:40:14.543,-386.0
19:40:14.583,-389.0
19:40:14.623,-310.0
19:40:14.663,-276.0
19:40:14.703,-299.0
19:40:14.743,-282.0
19:40:14.783,-262.0
19:40:14.823,-267.0
19:40:14.863,-224.0
19:40:14.903,-232.0
19:40:14.943,-190.0
19:40:14.983,-90.0
19:40:15.023,-72.0
19:40:15.063,-165.0
19:40:15.103,-347.0
19:40:15.143,2787.0
19:40:15.183,1609.0
19:40:15.223,456.0
19:40:15.263,-27.0
19:40:15.303,-42.0
19:40:15.343,161.0
19:40:15.383,93.0
19:40:15.423,-212.0
19:40:15.463,-398.0
19:40:15.503,-465.0
19:40:15.543,-437.0
19:40:15.583,-331.0
19:40:13.328,-299.0
19:40:13.368,-322.0
19:40:13.408,-354.0
19:40:13.448,-351.0
19:40:13.488,-287.0
19:40:13.528,-273.0
19:40:13.568,-237.0
19:40:13.608,-143.0
19:40:13.648,-133.0
19:40:13.688,-218.0
19:40:13.728,-496.0
19:40:13.768,1572.0
19:40:13.808,1090.0
19:40:13.848,385.0
19:40:13.888,89.0
19:40:13.928,179.0
19:40:13.968,401.0
19:40:14.008,241.0
19:40:14.048,-116.0
19:40:14.088,-347.0
19:40:14.128,-426.0
19:40:14.168,-457.0
19:40:14.208,-381.0
19:40:14.248,-346.0
19:40:14.288,-393.0
19:40:14.328,-424.0
19:40:14.368,-444.0
19:40:14.408,-468.0
19:40:14.448,-464.0
19:40:14.488,-387.0
19:40:14.528,-392.0
19:40:14.568,-454.0
19:40:14.608,-886.0
19:40:14.648,1055.0
19:40:14.688,704.0
19:40:14.728,72.0
19:40:14.768,-116.0
19:40:14.808,45.0
19:40:14.848,309.0
19:40:14.888,196.0
19:40:14.928,-111.0
19:40:14.968,-273.0
19:40:15.008,-293.0
19:40:15.048,-293.0
19:40:15.088,-245.0
19:40:15.128,-233.0
19:40:15.168,-263.0
19:40:15.208,-205.0
19:40:15.248,-211.0
19:40:15.288,-173.0
19:40:15.328,-126.0
19:40:15.368,-15.0
19:40:15.408,-83.0
19:40:15.448,-141.0
19:40:15.488,-512.0
19:40:15.528,1560.0
19:40:15.568,1162.0
19:40:15.608,517.0
19:40:15.648,251.0
19:40:15.688,389.0
19:40:15.728,619.0
19:40:15.768,485.0
19:40:15.808,138.0
19:40:15.848,-57.0
19:40:15.888,-119.0
19:40:15.928,-143.0
19:40:15.968,-110.0
19:40:16.008,-127.0
19:40:16.048,-160.0
19:40:16.088,-155.0
19:40:16.128,-165.0
19:40:16.168,-159.0
19:40:16.208,-158.0
19:40:16.248,-55.0
19:40:16.288,-7.0
19:40:16.328,-130.0
19:40:16.368,-233.0
19:40:16.408,2394.0
19:40:16.448,1697.0
19:40:16.488,571.0
19:40:16.528,69.0
19:40:16.568,45.0
19:40:16.608,289.0
19:40:16.648,291.0
19:40:16.688,-31.0
19:40:16.728,-263.0
19:40:16.768,-325.0
19:40:16.808,-319.0
19:40:16.848,-260.0
19:40:16.888,-255.0
19:40:16.928,-282.0
19:40:16.968,-283.0
19:40:17.008,-268.0
19:40:17.048,-282.0
19:40:17.088,-313.0
19:40:17.128,-198.0
19:40:17.168,-87.0
19:40:17.208,-261.0
19:40:17.248,-337.0
19:40:17.288,748.0
19:40:15.924,1120.0
19:40:15.964,358.0
19:40:16.004,117.0
19:40:16.044,297.0
19:40:16.084,426.0
19:40:16.124,122.0
19:40:16.164,-236.0
19:40:16.204,-362.0
19:40:16.244,-367.0
19:40:16.284,-303.0
19:40:16.324,-249.0
19:40:16.364,-241.0
19:40:16.404,-229.0
19:40:16.444,-227.0
19:40:16.484,-194.0
19:40:16.524,-178.0
19:40:16.564,14.0
19:40:16.604,179.0
19:40:16.644,1.0
19:40:16.684,-68.0
19:40:16.724,680.0
19:40:16.764,1084.0
19:40:16.804,486.0
19:40:16.844,119.0
19:40:16.884,59.0
19:40:16.924,298.0
19:40:16.964,386.0
19:40:17.004,69.0
19:40:17.044,-223.0
19:40:17.084,-323.0
19:40:17.124,-374.0
19:40:17.164,-357.0
19:40:17.204,-348.0
19:40:17.244,-386.0
19:40:17.284,-416.0
19:40:17.324,-420.0
19:40:17.364,-514.0
19:40:17.404,-426.0
19:40:17.444,-318.0
19:40:17.484,-407.0
19:40:17.524,-535.0
19:40:17.564,1825.0
19:40:17.604,1270.0
19:40:17.644,196.0
19:40:17.684,-281.0
19:40:17.724,-337.0
19:40:17.764,-87.0
19:40:17.804,-104.0
19:40:17.844,-416.0
19:40:17.884,-617.0
19:40:17.924,-672.0
19:40:17.964,-664.0
19:40:18.004,-574.0
19:40:18.044,-495.0
19:40:18.084,-470.0
19:40:18.124,-457.0
19:40:18.164,-396.0
19:40:18.204,-373.0
19:40:18.244,-223.0
19:40:18.284,-74.0
19:40:18.324,-223.0
19:40:18.364,-280.0
19:40:18.404,105.0
19:40:18.444,772.0
19:40:18.484,250.0
19:40:18.524,3.0
19:40:18.564,10.0
19:40:18.604,300.0
19:40:18.644,439.0
19:40:18.684,130.0
19:40:18.724,-91.0
19:40:18.764,-186.0
19:40:18.804,-185.0
19:40:18.844,-154.0
19:40:18.884,-82.0
19:40:18.924,-113.0
19:40:18.964,-119.0
19:40:19.004,-135.0
19:40:19.044,-156.0
19:40:19.084,-101.0
19:40:19.124,10.0
19:40:19.164,31.0
19:40:19.204,-86.0
19:40:19.244,-255.0
19:40:19.284,2921.0
19:40:19.324,1737.0
19:40:19.364,618.0
19:40:19.404,102.0
19:40:19.444,93.0
19:40:19.484,292.0
19:40:19.524,197.0
19:40:19.564,-163.0
19:40:19.604,-355.0
19:40:19.644,-387.0
19:40:19.684,-390.0
19:40:19.724,-357.0
19:40:19.764,-315.0
19:40:19.804,-327.0
19:40:19.844,-291.0
19:40:19.884,-254.0
19:40:18.642,-219.0
19:40:18.682,-125.0
19:40:18.722,-150.0
19:40:18.762,-237.0
19:40:18.802,-639.0
19:40:18.842,964.0
19:40:18.882,790.0
19:40:18.922,313.0
19:40:18.962,82.0
19:40:19.002,266.0
19:40:19.042,489.0
19:40:19.082,299.0
19:40:19.122,-23.0
19:40:19.162,-208.0
19:40:19.202,-264.0
19:40:19.242,-269.0
19:40:19.282,-241.0
19:40:19.322,-248.0
19:40:19.362,-317.0
19:40:19.402,-371.0
19:40:19.442,-387.0
19:40:19.482,-393.0
19:40:19.522,-284.0
19:40:19.562,-361.0
19:40:19.602,-463.0
19:40:19.642,-738.0
19:40:19.682,261.0
19:40:19.722,-3.0
19:40:19.762,-220.0
19:40:19.802,-255.0
19:40:19.842,-18.0
19:40:19.882,211.0
19:40:19.922,33.0
19:40:19.962,-227.0
19:40:20.002,-357.0
19:40:20.042,-400.0
19:40:20.082,-369.0
19:40:20.122,-292.0
19:40:20.162,-278.0
19:40:20.202,-320.0
19:40:20.242,-304.0
19:40:20.282,-266.0
19:40:20.322,-217.0
19:40:20.362,-120.0
19:40:20.402,-27.0
19:40:20.442,-161.0
19:40:20.482,-248.0
19:40:20.522,1954.0
19:40:20.562,1601.0
19:40:20.602,545.0
19:40:20.642,92.0
19:40:20.682,82.0
19:40:20.722,340.0
19:40:20.762,390.0
19:40:20.802,91.0
19:40:20.842,-107.0
19:40:20.882,-177.0
19:40:20.922,-169.0
19:40:20.962,-129.0
19:40:21.002,-81.0
19:40:21.042,-93.0
19:40:21.082,-94.0
19:40:21.122,-115.0
19:40:21.162,-111.0
19:40:21.202,-68.0
19:40:21.242,63.0
19:40:21.282,3.0
19:40:21.322,-118.0
19:40:21.362,-429.0
19:40:21.402,2029.0
19:40:21.442,1262.0
19:40:21.482,407.0
19:40:21.522,68.0
19:40:21.562,138.0
19:40:21.602,408.0
19:40:21.642,330.0
19:40:21.682,29.0
19:40:21.722,-160.0
19:40:21.762,-196.0
19:40:21.802,-178.0
19:40:21.842,-147.0
19:40:21.882,-122.0
19:40:21.922,-160.0
19:40:21.962,-144.0
19:40:22.002,-129.0
19:40:22.042,-81.0
19:40:22.082,50.0
19:40:22.122,94.0
19:40:22.162,-28.0
19:40:22.202,-147.0
19:40:22.242,1977.0
19:40:22.282,1647.0
19:40:22.322,565.0
19:40:22.362,90.0
19:40:22.402,19.0
19:40:22.442,224.0
19:40:22.482,212.0
19:40:22.522,-130.0
19:40:22.562,-352.0
19:40:22.602,-439.0
19:40:27.328,-446.0
19:40:27.368,-484.0
19:40:27.408,-528.0
19:40:27.448,-549.0
19:40:27.488,-536.0
19:40:27.528,-458.0
19:40:27.568,-305.0
19:40:27.608,-428.0
19:40:27.648,-466.0
19:40:27.688,-413.0
19:40:27.728,290.0
19:40:27.768,-20.0
19:40:27.808,-218.0
19:40:27.848,-177.0
19:40:27.888,25.0
19:40:27.928,149.0
19:40:27.968,-131.0
19:40:28.008,-417.0
19:40:28.048,-512.0
19:40:28.088,-516.0
19:40:28.128,-464.0
19:40:28.168,-393.0
19:40:28.208,-417.0
19:40:28.248,-422.0
19:40:28.288,-419.0
19:40:28.328,-322.0
19:40:28.368,-176.0
19:40:28.408,-288.0
19:40:28.448,-347.0
19:40:28.488,54.0
19:40:28.528,732.0
19:40:28.568,299.0
19:40:28.608,53.0
19:40:28.648,87.0
19:40:28.688,351.0
19:40:28.728,530.0
19:40:28.768,271.0
19:40:28.808,-9.0
19:40:28.848,-111.0
19:40:28.888,-121.0
19:40:28.928,-105.0
19:40:28.968,-88.0
19:40:29.008,-147.0
19:40:29.048,-153.0
19:40:29.088,-133.0
19:40:29.128,-1.0
19:40:29.168,132.0
19:40:29.208,-44.0
19:40:29.248,-194.0
19:40:29.288,168.0
19:40:29.328,852.0
19:40:29.368,345.0
19:40:29.408,95.0
19:40:29.448,124.0
19:40:29.488,390.0
19:40:29.528,528.0
19:40:29.568,232.0
19:40:29.608,-35.0
19:40:29.648,-134.0
19:40:29.688,-123.0
19:40:29.728,-74.0
19:40:29.768,-38.0
19:40:29.808,-73.0
19:40:29.848,-61.0
19:40:29.888,0.0
19:40:29.928,44.0
19:40:29.968,161.0
19:40:30.008,100.0
19:40:30.048,-16.0
19:40:30.088,-317.0
19:40:30.128,706.0
19:40:30.168,365.0
19:40:30.208,128.0
19:40:30.248,96.0
19:40:30.288,278.0
19:40:30.328,467.0
19:40:30.368,218.0
19:40:30.408,-87.0
19:40:30.448,-229.0
19:40:30.488,-249.0
19:40:30.528,-245.0
19:40:30.568,-194.0
19:40:30.608,-200.0
19:40:30.648,-264.0
19:40:30.688,-322.0
19:40:30.728,-232.0
19:40:30.768,-125.0
19:40:30.808,-246.0
19:40:30.848,-335.0
19:40:30.888,1400.0
19:40:30.928,1183.0
19:40:30.968,224.0
19:40:31.008,-172.0
19:40:31.048,-254.0
19:40:31.088,-69.0
19:40:31.128,-69.0
19:40:31.168,-342.0
19:40:31.208,-563.0
19:40:31.248,-639.0
19:40:31.288,-593.0
19:40:31.012,1120.0
19:40:31.052,358.0
19:40:31.092,117.0
19:40:31.132,297.0
19:40:31.172,426.0
19:40:31.212,122.0
19:40:31.252,-236.0
19:40:31.292,-362.0
19:40:31.332,-367.0
19:40:31.372,-303.0
19:40:31.412,-249.0
19:40:31.452,-241.0
19:40:31.492,-229.0
19:40:31.532,-227.0
19:40:31.572,-194.0
19:40:31.612,-178.0
19:40:31.652,14.0
19:40:31.692,179.0
19:40:31.732,1.0
19:40:31.772,-68.0
19:40:31.812,680.0
19:40:31.852,1084.0
19:40:31.892,486.0
19:40:31.932,119.0
19:40:31.972,59.0
19:40:32.012,298.0
19:40:32.052,386.0
19:40:32.092,69.0
19:40:32.132,-223.0
19:40:32.172,-323.0
19:40:32.212,-374.0
19:40:32.252,-357.0
19:40:32.292,-348.0
19:40:32.332,-386.0
19:40:32.372,-416.0
19:40:32.412,-420.0
19:40:32.452,-514.0
19:40:32.492,-426.0
19:40:32.532,-318.0
19:40:32.572,-407.0
19:40:32.612,-535.0
19:40:32.652,1825.0
19:40:32.692,1270.0
19:40:32.732,196.0
19:40:32.772,-281.0
19:40:32.812,-337.0
19:40:32.852,-87.0
19:40:32.892,-104.0
19:40:32.932,-416.0
19:40:32.972,-617.0
19:40:33.012,-672.0
19:40:33.052,-664.0
19:40:33.092,-574.0
19:40:33.132,-495.0
19:40:33.172,-470.0
19:40:33.212,-457.0
19:40:33.252,-396.0
19:40:33.292,-373.0
19:40:33.332,-223.0
19:40:33.372,-74.0
19:40:33.412,-223.0
19:40:33.452,-280.0
19:40:33.492,105.0
19:40:33.532,772.0
19:40:33.572,250.0
19:40:33.612,3.0
19:40:33.652,10.0
19:40:33.692,300.0
19:40:33.732,439.0
19:40:33.772,130.0
19:40:33.812,-91.0
19:40:33.852,-186.0
19:40:33.892,-185.0
19:40:33.932,-154.0
19:40:33.972,-82.0
19:40:34.012,-113.0
19:40:34.052,-119.0
19:40:34.092,-135.0
19:40:34.132,-156.0
19:40:34.172,-101.0
19:40:34.212,10.0
19:40:34.252,31.0
19:40:34.292,-86.0
19:40:34.332,-255.0
19:40:34.372,2921.0
19:40:34.412,1737.0
19:40:34.452,618.0
19:40:34.492,102.0
19:40:34.532,93.0
19:40:34.572,292.0
19:40:34.612,197.0
19:40:34.652,-163.0
19:40:34.692,-355.0
19:40:34.732,-387.0
19:40:34.772,-390.0
19:40:34.812,-357.0
19:40:34.852,-315.0
19:40:34.892,-327.0
19:40:34.932,-291.0
19:40:34.972,-254.0
19:40:36.985,-507.0
19:40:37.025,-441.0
19:40:37.065,-465.0
19:40:37.105,-472.0
19:40:37.145,-364.0
19:40:37.185,-226.0
19:40:37.225,-345.0
19:40:37.265,-415.0
19:40:37.305,868.0
19:40:37.345,1139.0
19:40:37.385,304.0
19:40:37.425,-95.0
19:40:37.465,-111.0
19:40:37.505,129.0
19:40:37.545,207.0
19:40:37.585,-48.0
19:40:37.625,-251.0
19:40:37.665,-302.0
19:40:37.705,-260.0
19:40:37.745,-180.0
19:40:37.785,-115.0
19:40:37.825,-132.0
19:40:37.865,-104.0
19:40:37.905,-87.0
19:40:37.945,-26.0
19:40:37.985,82.0
19:40:38.025,-3.0
19:40:38.065,-122.0
19:40:38.105,-401.0
19:40:38.145,795.0
19:40:38.185,388.0
19:40:38.225,142.0
19:40:38.265,69.0
19:40:38.305,294.0
19:40:38.345,542.0
19:40:38.385,339.0
19:40:38.425,62.0
19:40:38.465,-38.0
19:40:38.505,-23.0
19:40:38.545,-38.0
19:40:38.585,-9.0
19:40:38.625,2.0
19:40:38.665,-57.0
19:40:38.705,-20.0
19:40:38.745,-5.0
19:40:38.785,97.0
19:40:38.825,181.0
19:40:38.865,4.0
19:40:38.905,-172.0
19:40:38.945,1709.0
19:40:38.985,1554.0
19:40:39.025,501.0
19:40:39.065,18.0
19:40:39.105,-118.0
19:40:39.145,64.0
19:40:39.185,48.0
19:40:39.225,-278.0
19:40:39.265,-479.0
19:40:39.305,-539.0
19:40:39.345,-524.0
19:40:39.385,-458.0
19:40:39.425,-393.0
19:40:39.465,-381.0
19:40:39.505,-397.0
19:40:39.545,-372.0
19:40:39.585,-344.0
19:40:39.625,-354.0
19:40:39.665,-416.0
19:40:39.705,-848.0
19:40:39.745,844.0
19:40:39.785,574.0
19:40:39.825,-13.0
19:40:39.865,-265.0
19:40:39.905,-135.0
19:40:39.945,73.0
19:40:39.985,-88.0
19:40:40.025,-385.0
19:40:40.065,-521.0
19:40:40.105,-536.0
19:40:40.145,-502.0
19:40:40.185,-452.0
19:40:40.225,-394.0
19:40:40.265,-401.0
19:40:40.305,-382.0
19:40:40.345,-291.0
19:40:40.385,-166.0
19:40:40.425,-187.0
19:40:40.465,-271.0
19:40:40.505,-608.0
19:40:40.545,1519.0
19:40:40.585,1124.0
19:40:40.625,435.0
19:40:40.665,161.0
19:40:40.705,265.0
19:40:40.745,489.0
19:40:40.785,349.0
19:40:40.825,38.0
19:40:40.865,-198.0
19:40:40.905,-254.0
19:40:40.945,-249.0
19:40:40.000,-205.0
19:40:40.040,-207.0
19:40:40.080,-161.0
19:40:40.120,-137.0
19:40:40.160,-32.0
19:40:40.200,117.0
19:40:40.240,-84.0
19:40:40.280,-201.0
19:40:40.320,811.0
19:40:40.360,1198.0
19:40:40.400,439.0
19:40:40.440,84.0
19:40:40.480,127.0
19:40:40.520,395.0
19:40:40.560,494.0
19:40:40.600,191.0
19:40:40.640,-70.0
19:40:40.680,-111.0
19:40:40.720,-69.0
19:40:40.760,-61.0
19:40:40.800,-34.0
19:40:40.840,-78.0
19:40:40.880,-83.0
19:40:40.920,-83.0
19:40:40.960,-17.0
19:40:41.000,146.0
19:40:41.040,2.0
19:40:41.080,-111.0
19:40:41.120,-168.0
19:40:41.160,814.0
19:40:41.200,461.0
19:40:41.240,239.0
19:40:41.280,229.0
19:40:41.320,467.0
19:40:41.360,605.0
19:40:41.400,330.0
19:40:41.440,9.0
19:40:41.480,-122.0
19:40:41.520,-129.0
19:40:41.560,-97.0
19:40:41.600,-96.0
19:40:41.640,-118.0
19:40:41.680,-176.0
19:40:41.720,-199.0
19:40:41.760,-121.0
19:40:41.800,-104.0
19:40:41.840,-213.0
19:40:41.880,-342.0
19:40:41.920,2219.0
19:40:41.960,1409.0
19:40:42.000,312.0
19:40:42.040,-207.0
19:40:42.080,-264.0
19:40:42.120,-102.0
19:40:42.160,-192.0
19:40:42.200,-528.0
19:40:42.240,-696.0
19:40:42.280,-773.0
19:40:42.320,-746.0
19:40:42.360,-612.0
19:40:42.400,-526.0
19:40:42.440,-472.0
19:40:42.480,-428.0
19:40:42.520,-234.0
19:40:42.560,-53.0
19:40:42.600,-187.0
19:40:42.640,-297.0
19:40:42.680,903.0
19:40:42.720,1276.0
19:40:42.760,546.0
19:40:42.800,201.0
19:40:42.840,153.0
19:40:42.880,322.0
19:40:42.920,309.0
19:40:42.960,-45.0
19:40:43.000,-316.0
19:40:43.040,-420.0
19:40:43.080,-462.0
19:40:43.120,-401.0
19:40:43.160,-428.0
19:40:43.200,-442.0
19:40:43.240,-326.0
19:40:43.280,-200.0
19:40:43.320,-188.0
19:40:43.360,-246.0
19:40:43.400,-600.0
19:40:43.440,759.0
19:40:43.480,363.0
19:40:43.520,90.0
19:40:43.560,70.0
19:40:43.600,297.0
19:40:43.640,508.0
19:40:43.680,263.0
19:40:43.720,-47.0
19:40:43.760,-163.0
19:40:43.800,-185.0
19:40:43.840,-153.0
19:40:43.880,-124.0
19:40:43.920,-76.0
19:40:43.960,-27.0
19:41:02.129,19.0
19:41:02.169,-139.0
19:41:02.209,1534.0
19:41:02.249,1549.0
19:41:02.289,537.0
19:41:02.329,90.0
19:41:02.369,35.0
19:41:02.409,234.0
19:41:02.449,240.0
19:41:02.489,-97.0
19:41:02.529,-304.0
19:41:02.569,-370.0
19:41:02.609,-354.0
19:41:02.649,-281.0
19:41:02.689,-236.0
19:41:02.729,-275.0
19:41:02.769,-165.0
19:41:02.809,5.0
19:41:02.849,-141.0
19:41:02.889,-270.0
19:41:02.929,662.0
19:41:02.969,1094.0
19:41:03.009,403.0
19:41:03.049,63.0
19:41:03.089,47.0
19:41:03.129,248.0
19:41:03.169,275.0
19:41:03.209,-63.0
19:41:03.249,-305.0
19:41:03.289,-351.0
19:41:03.329,-323.0
19:41:03.369,-247.0
19:41:03.409,-217.0
19:41:03.449,-272.0
19:41:03.489,-256.0
19:41:03.529,-137.0
19:41:03.569,-68.0
19:41:03.609,-178.0
19:41:03.649,-259.0
19:41:03.689,2466.0
19:41:03.729,1693.0
19:41:03.769,524.0
19:41:03.809,13.0
19:41:03.849,-13.0
19:41:03.889,168.0
19:41:03.929,137.0
19:41:03.969,-191.0
19:41:04.009,-364.0
19:41:04.049,-419.0
19:41:04.089,-344.0
19:41:04.129,-248.0
19:41:04.169,-240.0
19:41:04.209,-260.0
19:41:04.249,-264.0
19:41:04.289,-218.0
19:41:04.329,-150.0
19:41:04.369,-313.0
19:41:04.409,-397.0
19:41:04.449,1456.0
19:41:04.489,1277.0
19:41:04.529,300.0
19:41:04.569,-172.0
19:41:04.609,-242.0
19:41:04.649,-75.0
19:41:04.689,-166.0
19:41:04.729,-458.0
19:41:04.769,-654.0
19:41:04.809,-687.0
19:41:04.849,-651.0
19:41:04.889,-562.0
19:41:04.929,-469.0
19:41:04.969,-423.0
19:41:05.009,-457.0
19:41:05.049,-428.0
19:41:05.089,-386.0
19:41:05.129,-419.0
19:41:05.169,-478.0
19:41:05.209,-880.0
19:41:05.249,674.0
19:41:05.289,271.0
19:41:05.329,-81.0
19:41:05.369,-144.0
19:41:05.409,64.0
19:41:05.449,275.0
19:41:05.489,142.0
19:41:05.529,-150.0
19:41:05.569,-242.0
19:41:05.609,-240.0
19:41:05.649,-194.0
19:41:05.689,-130.0
19:41:05.729,-132.0
19:41:05.769,-145.0
19:41:05.809,-109.0
19:41:05.849,-90.0
19:41:05.889,49.0
19:41:05.929,166.0
19:41:05.969,-7.0
19:41:06.009,-139.0
19:41:06.049,883.0
19:41:06.089,1313.0
19:41:10.590,517.0
19:41:10.630,332.0
19:41:10.670,414.0
19:41:10.710,463.0
19:41:10.750,132.0
19:41:10.790,-119.0
19:41:10.830,-216.0
19:41:10.870,-236.0
19:41:10.910,-218.0
19:41:10.950,-187.0
19:41:10.990,-230.0
19:41:11.030,-239.0
19:41:11.070,-199.0
19:41:11.110,-211.0
19:41:11.150,-85.0
19:41:11.190,82.0
19:41:11.230,-91.0
19:41:11.270,-200.0
19:41:11.310,156.0
19:41:11.350,867.0
19:41:11.390,398.0
19:41:11.430,198.0
19:41:11.470,258.0
19:41:11.510,509.0
19:41:11.550,554.0
19:41:11.590,247.0
19:41:11.630,-57.0
19:41:11.670,-184.0
19:41:11.710,-191.0
19:41:11.750,-135.0
19:41:11.790,-145.0
19:41:11.830,-237.0
19:41:11.870,-282.0
19:41:11.910,-298.0
19:41:11.950,-319.0
19:41:11.990,-332.0
19:41:12.030,-133.0
19:41:12.070,-218.0
19:41:12.110,-276.0
19:41:12.150,-433.0
19:41:12.190,604.0
19:41:12.230,252.0
19:41:12.270,20.0
19:41:12.310,-7.0
19:41:12.350,212.0
19:41:12.390,344.0
19:41:12.430,112.0
19:41:12.470,-198.0
19:41:12.510,-324.0
19:41:12.550,-320.0
19:41:12.590,-276.0
19:41:12.630,-233.0
19:41:12.670,-262.0
19:41:12.710,-293.0
19:41:12.750,-337.0
19:41:12.790,-327.0
19:41:12.830,-199.0
19:41:12.870,-328.0
19:41:12.910,-389.0
19:41:12.950,-489.0
19:41:12.990,407.0
19:41:13.030,14.0
19:41:13.070,-219.0
19:41:13.110,-211.0
19:41:13.150,22.0
19:41:13.190,175.0
19:41:13.230,-64.0
19:41:13.270,-305.0
19:41:13.310,-428.0
19:41:13.350,-459.0
19:41:13.390,-377.0
19:41:13.430,-286.0
19:41:13.470,-267.0
19:41:13.510,-284.0
19:41:13.550,-229.0
19:41:13.590,-214.0
19:41:13.630,-123.0
19:41:13.670,-82.0
19:41:13.710,-193.0
19:41:13.750,-424.0
19:41:13.790,2713.0
19:41:13.830,1548.0
19:41:13.870,515.0
19:41:13.910,57.0
19:41:13.950,55.0
19:41:13.990,281.0
19:41:14.030,216.0
19:41:14.070,-52.0
19:41:14.110,-230.0
19:41:14.150,-238.0
19:41:14.190,-219.0
19:41:14.230,-144.0
19:41:14.270,-173.0
19:41:14.310,-178.0
19:41:14.350,-156.0
19:41:14.390,-156.0
19:41:14.430,-100.0
19:41:14.470,-38.0
19:41:14.510,-60.0
19:41:14.550,-164.0
19:41:13.050,-585.0
19:41:13.090,425.0
19:41:13.130,194.0
19:41:13.170,121.0
19:41:13.210,339.0
19:41:13.250,619.0
19:41:13.290,550.0
19:41:13.330,181.0
19:41:13.370,-48.0
19:41:13.410,-87.0
19:41:13.450,-63.0
19:41:13.490,-15.0
19:41:13.530,-77.0
19:41:13.570,-92.0
19:41:13.610,-72.0
19:41:13.650,-88.0
19:41:13.690,-82.0
19:41:13.730,30.0
19:41:13.770,130.0
19:41:13.810,-29.0
19:41:13.850,-162.0
19:41:13.890,1133.0
19:41:13.930,1401.0
19:41:13.970,572.0
19:41:14.010,149.0
19:41:14.050,87.0
19:41:14.090,302.0
19:41:14.130,289.0
19:41:14.170,-84.0
19:41:14.210,-368.0
19:41:14.250,-471.0
19:41:14.290,-446.0
19:41:14.330,-355.0
19:41:14.370,-285.0
19:41:14.410,-286.0
19:41:14.450,-296.0
19:41:14.490,-271.0
19:41:14.530,-248.0
19:41:14.570,-164.0
19:41:14.610,-158.0
19:41:14.650,-245.0
19:41:14.690,-521.0
19:41:14.730,1985.0
19:41:14.770,1139.0
19:41:14.810,226.0
19:41:14.850,-182.0
19:41:14.890,-172.0
19:41:14.930,-22.0
19:41:14.970,-167.0
19:41:15.010,-458.0
19:41:15.050,-675.0
19:41:15.090,-681.0
19:41:15.130,-649.0
19:41:15.170,-556.0
19:41:15.210,-490.0
19:41:15.250,-514.0
19:41:15.290,-462.0
19:41:15.330,-423.0
19:41:15.370,-435.0
19:41:15.410,-338.0
19:41:15.450,-139.0
19:41:15.490,-262.0
19:41:15.530,-282.0
19:41:15.570,-371.0
19:41:15.610,744.0
19:41:15.650,352.0
19:41:15.690,120.0
19:41:15.730,133.0
19:41:15.770,419.0
19:41:15.810,572.0
19:41:15.850,333.0
19:41:15.890,42.0
19:41:15.930,-99.0
19:41:15.970,-118.0
19:41:16.010,-92.0
19:41:16.050,-47.0
19:41:16.090,-109.0
19:41:16.130,-131.0
19:41:16.170,-71.0
19:41:16.210,-63.0
19:41:16.250,-30.0
19:41:16.290,-7.0
19:41:16.330,79.0
19:41:16.370,138.0
19:41:16.410,16.0
19:41:16.450,-108.0
19:41:16.490,2252.0
19:41:16.530,1807.0
19:41:16.570,745.0
19:41:16.610,235.0
19:41:16.650,149.0
19:41:16.690,361.0
19:41:16.730,297.0
19:41:16.770,-74.0
19:41:16.810,-337.0
19:41:16.850,-393.0
19:41:16.890,-392.0
19:41:16.930,-300.0
19:41:16.970,-276.0
19:41:17.010,-282.0
19:41:15.094,-320.0
19:41:15.134,-292.0
19:41:15.174,-298.0
19:41:15.214,-269.0
19:41:15.254,-260.0
19:41:15.294,-382.0
19:41:15.334,-513.0
19:41:15.374,2071.0
19:41:15.414,1215.0
19:41:15.454,136.0
19:41:15.494,-398.0
19:41:15.534,-485.0
19:41:15.574,-263.0
19:41:15.614,-271.0
19:41:15.654,-544.0
19:41:15.694,-722.0
19:41:15.734,-751.0
19:41:15.774,-708.0
19:41:15.814,-642.0
19:41:15.854,-545.0
19:41:15.894,-556.0
19:41:15.934,-559.0
19:41:15.974,-498.0
19:41:16.014,-444.0
19:41:16.054,-408.0
19:41:16.094,-312.0
19:41:16.134,-200.0
19:41:16.174,-306.0
19:41:16.214,-383.0
19:41:16.254,2240.0
19:41:16.294,1694.0
19:41:16.334,559.0
19:41:16.374,83.0
19:41:16.414,-4.0
19:41:16.454,224.0
19:41:16.494,249.0
19:41:16.534,-27.0
19:41:16.574,-215.0
19:41:16.614,-266.0
19:41:16.654,-258.0
19:41:16.694,-201.0
19:41:16.734,-180.0
19:41:16.774,-193.0
19:41:16.814,-184.0
19:41:16.854,-154.0
19:41:16.894,-120.0
19:41:16.934,-100.0
19:41:16.974,-30.0
19:41:17.014,74.0
19:41:17.054,78.0
19:41:17.094,-15.0
19:41:17.134,-348.0
19:41:17.174,2322.0
19:41:17.214,1419.0
19:41:17.254,494.0
19:41:17.294,54.0
19:41:17.334,18.0
19:41:17.374,213.0
19:41:17.414,55.0
19:41:17.454,-257.0
19:41:17.494,-472.0
19:41:17.534,-456.0
19:41:17.574,-458.0
19:41:17.614,-394.0
19:41:17.654,-373.0
19:41:17.694,-341.0
19:41:17.734,-270.0
19:41:17.774,-215.0
19:41:17.814,-224.0
19:41:17.854,-197.0
19:41:17.894,-138.0
19:41:17.934,-155.0
19:41:17.974,-240.0
19:41:18.014,-620.0
19:41:18.054,1240.0
19:41:18.094,844.0
19:41:18.134,219.0
19:41:18.174,-75.0
19:41:18.214,15.0
19:41:18.254,270.0
19:41:18.294,172.0
19:41:18.334,-114.0
19:41:18.374,-305.0
19:41:18.414,-369.0
19:41:18.454,-372.0
19:41:18.494,-376.0
19:41:18.534,-401.0
19:41:18.574,-412.0
19:41:18.614,-422.0
19:41:18.654,-374.0
19:41:18.694,-358.0
19:41:18.734,-297.0
19:41:18.774,-201.0
19:41:18.814,-256.0
19:41:18.854,-351.0
19:41:18.894,-741.0
19:41:18.934,1290.0
19:41:18.974,864.0
19:41:19.014,170.0
19:41:19.054,-95.0
19:41:17.546,19.0
19:41:17.586,-139.0
19:41:17.626,1534.0
19:41:17.666,1549.0
19:41:17.706,537.0
19:41:17.746,90.0
19:41:17.786,35.0
19:41:17.826,234.0
19:41:17.866,240.0
19:41:17.906,-97.0
19:41:17.946,-304.0
19:41:17.986,-370.0
19:41:18.026,-354.0
19:41:18.066,-281.0
19:41:18.106,-236.0
19:41:18.146,-275.0
19:41:18.186,-165.0
19:41:18.226,5.0
19:41:18.266,-141.0
19:41:18.306,-270.0
19:41:18.346,662.0
19:41:18.386,1094.0
19:41:18.426,403.0
19:41:18.466,63.0
19:41:18.506,47.0
19:41:18.546,248.0
19:41:18.586,275.0
19:41:18.626,-63.0
19:41:18.666,-305.0
19:41:18.706,-351.0
19:41:18.746,-323.0
19:41:18.786,-247.0
19:41:18.826,-217.0
19:41:18.866,-272.0
19:41:18.906,-256.0
19:41:18.946,-137.0
19:41:18.986,-68.0
19:41:19.026,-178.0
19:41:19.066,-259.0
19:41:19.106,2466.0
19:41:19.146,1693.0
19:41:19.186,524.0
19:41:19.226,13.0
19:41:19.266,-13.0
19:41:19.306,168.0
19:41:19.346,137.0
19:41:19.386,-191.0
19:41:19.426,-364.0
19:41:19.466,-419.0
19:41:19.506,-344.0
19:41:19.546,-248.0
19:41:19.586,-240.0
19:41:19.626,-260.0
19:41:19.666,-264.0
19:41:19.706,-218.0
19:41:19.746,-150.0
19:41:19.786,-313.0
19:41:19.826,-397.0
19:41:19.866,1456.0
19:41:19.906,1277.0
19:41:19.946,300.0
19:41:19.986,-172.0
19:41:20.026,-242.0
19:41:20.066,-75.0
19:41:20.106,-166.0
19:41:20.146,-458.0
19:41:20.186,-654.0
19:41:20.226,-687.0
19:41:20.266,-651.0
19:41:20.306,-562.0
19:41:20.346,-469.0
19:41:20.386,-423.0
19:41:20.426,-457.0
19:41:20.466,-428.0
19:41:20.506,-386.0
19:41:20.546,-419.0
19:41:20.586,-478.0
19:41:20.626,-880.0
19:41:20.666,674.0
19:41:20.706,271.0
19:41:20.746,-81.0
19:41:20.786,-144.0
19:41:20.826,64.0
19:41:20.866,275.0
19:41:20.906,142.0
19:41:20.946,-150.0
19:41:20.986,-242.0
19:41:21.026,-240.0
19:41:21.066,-194.0
19:41:21.106,-130.0
19:41:21.146,-132.0
19:41:21.186,-145.0
19:41:21.226,-109.0
19:41:21.266,-90.0
19:41:21.306,49.0
19:41:21.346,166.0
19:41:21.386,-7.0
19:41:21.426,-139.0
19:41:21.466,883.0
19:41:21.506,1313.0
19:41:27.785,517.0
19:41:27.825,332.0
19:41:27.865,414.0
19:41:27.905,463.0
19:41:27.945,132.0
19:41:27.985,-119.0
19:41:28.025,-216.0
19:41:28.065,-236.0
19:41:28.105,-218.0
19:41:28.145,-187.0
19:41:28.185,-230.0
19:41:28.225,-239.0
19:41:28.265,-199.0
19:41:28.305,-211.0
19:41:28.345,-85.0
19:41:28.385,82.0
19:41:28.425,-91.0
19:41:28.465,-200.0
19:41:28.505,156.0
19:41:28.545,867.0
19:41:28.585,398.0
19:41:28.625,198.0
19:41:28.665,258.0
19:41:28.705,509.0
19:41:28.745,554.0
19:41:28.785,247.0
19:41:28.825,-57.0
19:41:28.865,-184.0
19:41:28.905,-191.0
19:41:28.945,-135.0
19:41:28.985,-145.0
19:41:29.025,-237.0
19:41:29.065,-282.0
19:41:29.105,-298.0
19:41:29.145,-319.0
19:41:29.185,-332.0
19:41:29.225,-133.0
19:41:29.265,-218.0
19:41:29.305,-276.0
19:41:29.345,-433.0
19:41:29.385,604.0
19:41:29.425,252.0
19:41:29.465,20.0
19:41:29.505,-7.0
19:41:29.545,212.0
19:41:29.585,344.0
19:41:29.625,112.0
19:41:29.665,-198.0
19:41:29.705,-324.0
19:41:29.745,-320.0
19:41:29.785,-276.0
19:41:29.825,-233.0
19:41:29.865,-262.0
19:41:29.905,-293.0
19:41:29.945,-337.0
19:41:29.985,-327.0
19:41:30.025,-199.0
19:41:30.065,-328.0
19:41:30.105,-389.0
19:41:30.145,-489.0
19:41:30.185,407.0
19:41:30.225,14.0
19:41:30.265,-219.0
19:41:30.305,-211.0
19:41:30.345,22.0
19:41:30.385,175.0
19:41:30.425,-64.0
19:41:30.465,-305.0
19:41:30.505,-428.0
19:41:30.545,-459.0
19:41:30.585,-377.0
19:41:30.625,-286.0
19:41:30.665,-267.0
19:41:30.705,-284.0
19:41:30.745,-229.0
19:41:30.785,-214.0
19:41:30.825,-123.0
19:41:30.865,-82.0
19:41:30.905,-193.0
19:41:30.945,-424.0
19:41:30.985,2713.0
19:41:31.025,1548.0
19:41:31.065,515.0
19:41:31.105,57.0
19:41:31.145,55.0
19:41:31.185,281.0
19:41:31.225,216.0
19:41:31.265,-52.0
19:41:31.305,-230.0
19:41:31.345,-238.0
19:41:31.385,-219.0
19:41:31.425,-144.0
19:41:31.465,-173.0
19:41:31.505,-178.0
19:41:31.545,-156.0
19:41:31.585,-156.0
19:41:31.625,-100.0
19:41:31.665,-38.0
19:41:31.705,-60.0
19:41:31.745,-164.0
19:41:28.327,-585.0
19:41:28.367,425.0
19:41:28.407,194.0
19:41:28.447,121.0
19:41:28.487,339.0
19:41:28.527,619.0
19:41:28.567,550.0
19:41:28.607,181.0
19:41:28.647,-48.0
19:41:28.687,-87.0
19:41:28.727,-63.0
19:41:28.767,-15.0
19:41:28.807,-77.0
19:41:28.847,-92.0
19:41:28.887,-72.0
19:41:28.927,-88.0
19:41:28.967,-82.0
19:41:29.007,30.0
19:41:29.047,130.0
19:41:29.087,-29.0
19:41:29.127,-162.0
19:41:29.167,1133.0
19:41:29.207,1401.0
19:41:29.247,572.0
19:41:29.287,149.0
19:41:29.327,87.0
19:41:29.367,302.0
19:41:29.407,289.0
19:41:29.447,-84.0
19:41:29.487,-368.0
19:41:29.527,-471.0
19:41:29.567,-446.0
19:41:29.607,-355.0
19:41:29.647,-285.0
19:41:29.687,-286.0
19:41:29.727,-296.0
19:41:29.767,-271.0
19:41:29.807,-248.0
19:41:29.847,-164.0
19:41:29.887,-158.0
19:41:29.927,-245.0
19:41:29.967,-521.0
19:41:30.007,1985.0
19:41:30.047,1139.0
19:41:30.087,226.0
19:41:30.127,-182.0
19:41:30.167,-172.0
19:41:30.207,-22.0
19:41:30.247,-167.0
19:41:30.287,-458.0
19:41:30.327,-675.0
19:41:30.367,-681.0
19:41:30.407,-649.0
19:41:30.447,-556.0
19:41:30.487,-490.0
19:41:30.527,-514.0
19:41:30.567,-462.0
19:41:30.607,-423.0
19:41:30.647,-435.0
19:41:30.687,-338.0
19:41:30.727,-139.0
19:41:30.767,-262.0
19:41:30.807,-282.0
19:41:30.847,-371.0
19:41:30.887,744.0
19:41:30.927,352.0
19:41:30.967,120.0
19:41:31.007,133.0
19:41:31.047,419.0
19:41:31.087,572.0
19:41:31.127,333.0
19:41:31.167,42.0
19:41:31.207,-99.0
19:41:31.247,-118.0
19:41:31.287,-92.0
19:41:31.327,-47.0
19:41:31.367,-109.0
19:41:31.407,-131.0
19:41:31.447,-71.0
19:41:31.487,-63.0
19:41:31.527,-30.0
19:41:31.567,-7.0
19:41:31.607,79.0
19:41:31.647,138.0
19:41:31.687,16.0
19:41:31.727,-108.0
19:41:31.767,2252.0
19:41:31.807,1807.0
19:41:31.847,745.0
19:41:31.887,235.0
19:41:31.927,149.0
19:41:31.967,361.0
19:41:32.007,297.0
19:41:32.047,-74.0
19:41:32.087,-337.0
19:41:32.127,-393.0
19:41:32.167,-392.0
19:41:32.207,-300.0
19:41:32.247,-276.0
19:41:32.287,-282.0
19:41:30.428,10.0
19:41:30.468,176.0
19:41:30.508,-32.0
19:41:30.548,-201.0
19:41:30.588,-226.0
19:41:30.628,-265.0
19:41:30.668,-225.0
19:41:30.708,-248.0
19:41:30.748,-281.0
19:41:30.788,-292.0
19:41:30.828,-279.0
19:41:30.868,-166.0
19:41:30.908,-204.0
19:41:30.948,-130.0
19:41:30.988,-32.0
19:41:31.028,-96.0
19:41:31.068,-205.0
19:41:31.108,-469.0
19:41:31.148,1126.0
19:41:31.188,559.0
19:41:31.228,221.0
19:41:31.268,142.0
19:41:31.308,375.0
19:41:31.348,590.0
19:41:31.388,423.0
19:41:31.428,104.0
19:41:31.468,-80.0
19:41:31.508,-134.0
19:41:31.548,-152.0
19:41:31.588,-185.0
19:41:31.628,-185.0
19:41:31.668,-202.0
19:41:31.708,-208.0
19:41:31.748,-241.0
19:41:31.788,-217.0
19:41:31.828,-157.0
19:41:31.868,-35.0
19:41:31.908,-82.0
19:41:31.948,-177.0
19:41:31.988,-605.0
19:41:32.028,921.0
19:41:32.068,739.0
19:41:32.108,266.0
19:41:32.148,107.0
19:41:32.188,258.0
19:41:32.228,500.0
19:41:32.268,401.0
19:41:32.308,97.0
19:41:32.348,-98.0
19:41:32.388,-194.0
19:41:32.428,-241.0
19:41:32.468,-213.0
19:41:32.508,-270.0
19:41:32.548,-309.0
19:41:32.588,-363.0
19:41:32.628,-395.0
19:41:32.668,-322.0
19:41:32.708,-194.0
19:41:32.748,-342.0
19:41:32.788,-415.0
19:41:32.828,309.0
19:41:32.868,798.0
19:41:32.908,249.0
19:41:32.948,1.0
19:41:32.988,9.0
19:41:33.028,304.0
19:41:33.068,448.0
19:41:33.108,192.0
19:41:33.148,-12.0
19:41:33.188,-133.0
19:41:33.228,-124.0
19:41:33.268,-125.0
19:41:33.308,-145.0
19:41:33.348,-188.0
19:41:33.388,-207.0
19:41:33.428,-225.0
19:41:33.468,-225.0
19:41:33.508,-121.0
19:41:33.548,-18.0
19:41:33.588,-209.0
19:41:33.628,-322.0
19:41:33.668,717.0
19:41:33.708,1017.0
19:41:33.748,332.0
19:41:33.788,13.0
19:41:33.828,47.0
19:41:33.868,307.0
19:41:33.908,404.0
19:41:33.948,118.0
19:41:33.988,-131.0
19:41:34.028,-215.0
19:41:34.068,-207.0
19:41:34.108,-202.0
19:41:34.148,-223.0
19:41:34.188,-263.0
19:41:34.228,-262.0
19:41:34.268,-246.0
19:41:34.308,-254.0
19:41:34.348,-206.0
19:41:34.388,-78.0
19:41:36.138,-127.0
19:41:36.178,-250.0
19:41:36.218,1421.0
19:41:36.258,1431.0
19:41:36.298,526.0
19:41:36.338,91.0
19:41:36.378,43.0
19:41:36.418,273.0
19:41:36.458,291.0
19:41:36.498,18.0
19:41:36.538,-245.0
19:41:36.578,-336.0
19:41:36.618,-370.0
19:41:36.658,-344.0
19:41:36.698,-303.0
19:41:36.738,-352.0
19:41:36.778,-324.0
19:41:36.818,-317.0
19:41:36.858,-249.0
19:41:36.898,-168.0
19:41:36.938,-20.0
19:41:36.978,-89.0
19:41:37.018,-185.0
19:41:37.058,-467.0
19:41:37.098,796.0
19:41:37.138,564.0
19:41:37.178,306.0
19:41:37.218,190.0
19:41:37.258,419.0
19:41:37.298,682.0
19:41:37.338,532.0
19:41:37.378,227.0
19:41:37.418,21.0
19:41:37.458,-68.0
19:41:37.498,-86.0
19:41:37.538,-109.0
19:41:37.578,-132.0
19:41:37.618,-165.0
19:41:37.658,-190.0
19:41:37.698,-207.0
19:41:37.738,-144.0
19:41:37.778,-4.0
19:41:37.818,-193.0
19:41:37.858,-328.0
19:41:37.898,316.0
19:41:37.938,803.0
19:41:37.978,258.0
19:41:38.018,-32.0
19:41:38.058,-7.0
19:41:38.098,257.0
19:41:38.138,393.0
19:41:38.178,137.0
19:41:38.218,-143.0
19:41:38.258,-244.0
19:41:38.298,-314.0
19:41:38.338,-343.0
19:41:38.378,-319.0
19:41:38.418,-343.0
19:41:38.458,-372.0
19:41:38.498,-362.0
19:41:38.538,-326.0
19:41:38.578,-275.0
19:41:38.618,-172.0
19:41:38.658,-154.0
19:41:38.698,-215.0
19:41:38.738,-587.0
19:41:38.778,1662.0
19:41:38.818,1039.0
19:41:38.858,336.0
19:41:38.898,56.0
19:41:38.938,156.0
19:41:38.978,405.0
19:41:39.018,320.0
19:41:39.058,7.0
19:41:39.098,-188.0
19:41:39.138,-273.0
19:41:39.178,-300.0
19:41:39.218,-322.0
19:41:39.258,-313.0
19:41:39.298,-350.0
19:41:39.338,-382.0
19:41:39.378,-380.0
19:41:39.418,-377.0
19:41:39.458,-321.0
19:41:39.498,-142.0
19:41:39.538,-177.0
19:41:39.578,-296.0
19:41:39.618,-508.0
19:41:39.658,719.0
19:41:39.698,339.0
19:41:39.738,178.0
19:41:39.778,241.0
19:41:39.818,537.0
19:41:39.858,865.0
19:41:39.898,730.0
19:41:39.938,451.0
19:41:39.978,249.0
19:41:40.018,163.0
19:41:40.058,40.0
19:41:40.098,-53.0
19:41:36.825,-191.0
19:41:36.865,-324.0
19:41:36.905,-397.0
19:41:36.945,-402.0
19:41:36.985,-348.0
19:41:37.025,-381.0
19:41:37.065,-482.0
19:41:37.105,-869.0
19:41:37.145,989.0
19:41:37.185,613.0
19:41:37.225,19.0
19:41:37.265,-197.0
19:41:37.305,-90.0
19:41:37.345,159.0
19:41:37.385,103.0
19:41:37.425,-129.0
19:41:37.465,-277.0
19:41:37.505,-350.0
19:41:37.545,-340.0
19:41:37.585,-306.0
19:41:37.625,-326.0
19:41:37.665,-351.0
19:41:37.705,-390.0
19:41:37.745,-386.0
19:41:37.785,-280.0
19:41:37.825,-130.0
19:41:37.865,-173.0
19:41:37.905,-318.0
19:41:37.945,-714.0
19:41:37.985,828.0
19:41:38.025,436.0
19:41:38.065,74.0
19:41:38.105,-31.0
19:41:38.145,112.0
19:41:38.185,403.0
19:41:38.225,323.0
19:41:38.265,62.0
19:41:38.305,-90.0
19:41:38.345,-117.0
19:41:38.385,-95.0
19:41:38.425,-85.0
19:41:38.465,-119.0
19:41:38.505,-144.0
19:41:38.545,-168.0
19:41:38.585,-162.0
19:41:38.625,-149.0
19:41:38.665,12.0
19:41:38.705,127.0
19:41:38.745,-83.0
19:41:38.785,-224.0
19:41:38.825,387.0
19:41:38.865,947.0
19:41:38.905,353.0
19:41:38.945,93.0
19:41:38.985,62.0
19:41:39.025,341.0
19:41:39.065,463.0
19:41:39.105,160.0
19:41:39.145,-132.0
19:41:39.185,-264.0
19:41:39.225,-280.0
19:41:39.265,-249.0
19:41:39.305,-203.0
19:41:39.345,-225.0
19:41:39.385,-196.0
19:41:39.425,-190.0
19:41:39.465,-169.0
19:41:39.505,-178.0
19:41:39.545,-129.0
19:41:39.585,-24.0
19:41:39.625,-33.0
19:41:39.665,-132.0
19:41:39.705,-400.0
19:41:39.745,2445.0
19:41:39.785,1441.0
19:41:39.825,475.0
19:41:39.865,34.0
19:41:39.905,56.0
19:41:39.945,258.0
19:41:39.985,215.0
19:41:40.025,-77.0
19:41:40.065,-288.0
19:41:40.105,-352.0
19:41:40.145,-358.0
19:41:40.185,-384.0
19:41:40.225,-416.0
19:41:40.265,-453.0
19:41:40.305,-580.0
19:41:40.345,-496.0
19:41:40.385,-443.0
19:41:40.425,-330.0
19:41:40.465,-142.0
19:41:40.505,-299.0
19:41:40.545,-443.0
19:41:40.585,-456.0
19:41:40.625,425.0
19:41:40.665,2.0
19:41:40.705,-233.0
19:41:40.745,-227.0
19:41:40.785,22.0
19:41:45.797,206.0
19:41:45.837,-42.0
19:41:45.877,-189.0
19:41:45.917,-295.0
19:41:45.957,-327.0
19:41:45.997,-330.0
19:41:46.037,-347.0
19:41:46.077,-275.0
19:41:46.117,-233.0
19:41:46.157,-227.0
19:41:46.197,-237.0
19:41:46.237,-140.0
19:41:46.277,-56.0
19:41:46.317,-208.0
19:41:46.357,-280.0
19:41:46.397,169.0
19:41:46.437,935.0
19:41:46.477,423.0
19:41:46.517,122.0
19:41:46.557,127.0
19:41:46.597,265.0
19:41:46.637,393.0
19:41:46.677,144.0
19:41:46.717,-138.0
19:41:46.757,-237.0
19:41:46.797,-174.0
19:41:46.837,-63.0
19:41:46.877,-56.0
19:41:46.917,-57.0
19:41:46.957,-136.0
19:41:46.997,-128.0
19:41:47.037,-77.0
19:41:47.077,-31.0
19:41:47.117,92.0
19:41:47.157,108.0
19:41:47.197,43.0
19:41:47.237,-77.0
19:41:47.277,3024.0
19:41:47.317,1786.0
19:41:47.357,581.0
19:41:47.397,35.0
19:41:47.437,-22.0
19:41:47.477,120.0
19:41:47.517,146.0
19:41:47.557,-176.0
19:41:47.597,-408.0
19:41:47.637,-502.0
19:41:47.677,-537.0
19:41:47.717,-438.0
19:41:47.757,-280.0
19:41:47.797,-150.0
19:41:47.837,-109.0
19:41:47.877,-63.0
19:41:47.917,-28.0
19:41:47.957,108.0
19:41:47.997,213.0
19:41:48.037,-50.0
19:41:48.077,-193.0
19:41:48.117,869.0
19:41:48.157,1090.0
19:41:48.197,272.0
19:41:48.237,-73.0
19:41:48.277,-79.0
19:41:48.317,162.0
19:41:48.357,230.0
19:41:48.397,-33.0
19:41:48.437,-299.0
19:41:48.477,-357.0
19:41:48.517,-382.0
19:41:48.557,-368.0
19:41:48.597,-364.0
19:41:48.637,-341.0
19:41:48.677,-336.0
19:41:48.717,-322.0
19:41:48.757,-190.0
19:41:48.797,-206.0
19:41:48.837,-358.0
19:41:48.877,-577.0
19:41:48.917,2089.0
19:41:48.957,1187.0
19:41:48.997,339.0
19:41:49.037,16.0
19:41:49.077,95.0
19:41:49.117,387.0
19:41:49.157,307.0
19:41:49.197,56.0
19:41:49.237,-97.0
19:41:49.277,-113.0
19:41:49.317,-89.0
19:41:49.357,-54.0
19:41:49.397,-74.0
19:41:49.437,-88.0
19:41:49.477,-80.0
19:41:49.517,115.0
19:41:49.557,-90.0
19:41:49.597,-249.0
19:41:49.637,-210.0
19:41:49.677,550.0
19:41:49.717,89.0
19:41:49.757,-160.0
19:41:50.321,-188.0
19:41:50.361,181.0
19:41:50.401,118.0
19:41:50.441,-179.0
19:41:50.481,-272.0
19:41:50.521,-297.0
19:41:50.561,-250.0
19:41:50.601,-197.0
19:41:50.641,-159.0
19:41:50.681,-182.0
19:41:50.721,-105.0
19:41:50.761,49.0
19:41:50.801,-138.0
19:41:50.841,-229.0
19:41:50.881,1225.0
19:41:50.921,1191.0
19:41:50.961,381.0
19:41:51.001,-13.0
19:41:51.041,-29.0
19:41:51.081,158.0
19:41:51.121,243.0
19:41:51.161,29.0
19:41:51.201,-148.0
19:41:51.241,-242.0
19:41:51.281,-293.0
19:41:51.321,-259.0
19:41:51.361,-257.0
19:41:51.401,-263.0
19:41:51.441,-378.0
19:41:51.481,-341.0
19:41:51.521,-163.0
19:41:51.561,-353.0
19:41:51.601,-436.0
19:41:51.641,-287.0
19:41:51.681,460.0
19:41:51.721,0.0
19:41:51.761,-244.0
19:41:51.801,-247.0
19:41:51.841,-20.0
19:41:51.881,162.0
19:41:51.921,9.0
19:41:51.961,-160.0
19:41:52.001,-247.0
19:41:52.041,-259.0
19:41:52.081,-288.0
19:41:52.121,-284.0
19:41:52.161,-249.0
19:41:52.201,-231.0
19:41:52.241,-218.0
19:41:52.281,-138.0
19:41:52.321,-81.0
19:41:52.361,-236.0
19:41:52.401,-301.0
19:41:52.441,2253.0
19:41:52.481,1584.0
19:41:52.521,390.0
19:41:52.561,-203.0
19:41:52.601,-198.0
19:41:52.641,-17.0
19:41:52.681,-41.0
19:41:52.721,-292.0
19:41:52.761,-510.0
19:41:52.801,-607.0
19:41:52.841,-548.0
19:41:52.881,-438.0
19:41:52.921,-397.0
19:41:52.961,-313.0
19:41:53.001,-188.0
19:41:53.041,-62.0
19:41:53.081,338.0
19:41:53.121,194.0
19:41:53.161,261.0
19:41:53.201,750.0
19:41:53.241,1350.0
19:41:53.281,755.0
19:41:53.321,438.0
19:41:53.361,413.0
19:41:53.401,559.0
19:41:53.441,574.0
19:41:53.481,253.0
19:41:53.521,-61.0
19:41:53.561,-166.0
19:41:53.601,-86.0
19:41:53.641,-5.0
19:41:53.681,115.0
19:41:53.721,182.0
19:41:53.761,302.0
19:41:53.801,495.0
19:41:53.841,471.0
19:41:53.881,352.0
19:41:53.921,148.0
19:41:53.961,858.0
19:41:54.001,584.0
19:41:54.041,354.0
19:41:54.081,359.0
19:41:54.121,526.0
19:41:54.161,617.0
19:41:54.201,301.0
19:41:54.241,-37.0
19:41:54.281,-226.0
19:41:52.548,-313.0
19:41:52.588,-181.0
19:41:52.628,-184.0
19:41:52.668,-200.0
19:41:52.708,-44.0
19:41:52.748,-326.0
19:41:52.788,-468.0
19:41:52.828,-197.0
19:41:52.868,280.0
19:41:52.908,-76.0
19:41:52.948,-290.0
19:41:52.988,-268.0
19:41:53.028,6.0
19:41:53.068,134.0
19:41:53.108,-136.0
19:41:53.148,-336.0
19:41:53.188,-425.0
19:41:53.228,-451.0
19:41:53.268,-465.0
19:41:53.308,-471.0
19:41:53.348,-412.0
19:41:53.388,-233.0
19:41:53.428,-278.0
19:41:53.468,-369.0
19:41:53.508,-624.0
19:41:53.548,376.0
19:41:53.588,113.0
19:41:53.628,-48.0
19:41:53.668,8.0
19:41:53.708,231.0
19:41:53.748,361.0
19:41:53.788,197.0
19:41:53.828,-32.0
19:41:53.868,-99.0
19:41:53.908,-77.0
19:41:53.948,-54.0
19:41:53.988,-36.0
19:41:54.028,-27.0
19:41:54.068,67.0
19:41:54.108,107.0
19:41:54.148,-15.0
19:41:54.188,-361.0
19:41:54.228,2055.0
19:41:54.268,1310.0
19:41:54.308,501.0
19:41:54.348,153.0
19:41:54.388,176.0
19:41:54.428,412.0
19:41:54.468,339.0
19:41:54.508,69.0
19:41:54.548,-54.0
19:41:54.588,-91.0
19:41:54.628,-119.0
19:41:54.668,-128.0
