Time,Ecg
22:03:50.491,6178915.0
22:03:50.531,6178867.0
22:03:50.571,6178289.0
22:03:50.611,6178783.0
22:03:50.651,6179078.0
22:03:50.691,6178955.0
22:03:50.731,6178501.0
22:03:50.771,6178733.0
22:03:50.811,6178387.0
22:03:50.851,6179108.0
22:03:50.891,6179621.0
22:03:50.931,6178916.0
22:03:50.971,6178764.0
22:03:51.011,6180095.0
22:03:51.051,6180018.0
22:03:51.091,6179012.0
22:03:51.131,6179903.0
22:03:51.171,6179193.0
22:03:51.211,6179877.0
22:03:51.251,6178998.0
22:03:51.291,6179471.0
22:03:51.331,6178700.0
22:03:51.371,6179095.0
22:03:51.411,6178966.0
22:03:51.451,6179244.0
22:03:51.491,6178810.0
22:03:51.531,6179157.0
22:03:51.571,6179746.0
22:03:51.611,6179063.0
22:03:51.651,6178347.0
22:03:51.691,6179277.0
22:03:51.731,6179969.0
22:03:51.771,6179108.0
22:03:51.811,6179090.0
22:03:51.851,6178675.0
22:03:51.891,6179754.0
22:03:51.931,6179619.0
22:03:51.971,6179253.0
22:03:52.011,6178554.0
22:03:52.051,6178804.0
22:03:52.091,6178693.0
22:03:52.131,6179030.0
22:03:52.171,6178593.0
22:03:52.211,6179264.0
22:03:52.251,6178919.0
22:03:52.291,6179035.0
22:03:52.331,6179323.0
22:03:52.371,6178783.0
22:03:52.411,6177781.0
22:03:52.451,6180037.0
22:03:52.491,6178474.0
22:03:52.531,6179139.0
22:03:52.571,6178910.0
22:03:52.611,6179891.0
22:03:52.651,6179393.0
22:03:52.691,6179570.0
22:03:52.731,6178905.0
22:03:52.771,6179007.0
22:03:52.811,6179267.0
22:03:52.851,6178932.0
22:03:52.891,6179256.0
22:03:52.931,6179034.0
22:03:52.971,6179278.0
22:03:53.011,6179467.0
22:03:53.051,6179715.0
22:03:53.091,6178760.0
22:03:53.131,6179776.0
22:03:53.171,6179373.0
22:03:53.211,6179470.0
22:03:53.251,6178970.0
22:03:53.291,6180316.0
22:03:53.331,6180186.0
22:03:53.371,6180270.0
22:03:53.411,6179159.0
22:03:53.451,6179842.0
22:03:53.491,6178802.0
22:03:53.531,6179898.0
22:03:53.571,6178655.0
22:03:53.611,6179260.0
22:03:53.651,6179125.0
22:03:53.691,6179909.0
22:03:53.731,6179001.0
22:03:53.771,6179420.0
22:03:53.811,6179152.0
22:03:53.851,6180265.0
22:03:53.891,6179659.0
22:03:53.931,6179346.0
22:03:53.971,6179669.0
22:03:54.011,6180230.0
22:03:54.051,6179818.0
22:03:54.091,6179869.0
22:03:54.131,6178966.0
22:03:54.171,6179106.0
22:03:54.211,6179186.0
22:03:54.251,6179682.0
22:03:54.291,6178796.0
22:03:54.331,6178913.0
22:03:54.371,6179269.0
22:03:54.411,6180749.0
22:03:54.451,6179311.0
22:03:54.454,6179693.0
22:03:54.494,6180426.0
22:03:54.534,6180335.0
22:03:54.574,6179881.0
22:03:54.614,6179533.0
22:03:54.654,6179237.0
22:03:54.694,6179955.0
22:03:54.734,6179312.0
22:03:54.774,6179078.0
22:03:54.814,6178801.0
22:03:54.854,6179642.0
22:03:54.894,6179329.0
22:03:54.934,6180076.0
22:03:54.974,6179338.0
22:03:55.014,6179229.0
22:03:55.054,6181399.0
22:03:55.094,6179731.0
22:03:55.134,6179926.0
22:03:55.174,6179964.0
22:03:55.214,6180130.0
22:03:55.254,6180221.0
22:03:55.294,6179578.0
22:03:55.334,6179728.0
22:03:55.374,6179568.0
22:03:55.414,6179804.0
22:03:55.454,6179585.0
22:03:55.494,6179923.0
22:03:55.534,6179433.0
22:03:55.574,6179583.0
22:03:55.614,6179704.0
22:03:55.654,6178943.0
22:03:55.694,6179324.0
22:03:55.734,6178947.0
22:03:55.774,6180126.0
22:03:55.814,6179502.0
22:03:55.854,6179630.0
22:03:55.894,6179657.0
22:03:55.934,6180036.0
22:03:55.974,6180417.0
22:03:56.014,6179647.0
22:03:56.054,6179205.0
22:03:56.094,6179399.0
22:03:56.134,6179240.0
22:03:56.174,6179519.0
22:03:56.214,6179423.0
22:03:56.254,6179155.0
22:03:56.294,6179333.0
22:03:56.334,6179967.0
22:03:56.374,6179512.0
22:03:56.414,6179137.0
22:03:56.454,6181309.0
22:03:56.494,6179552.0
22:03:56.534,6179779.0
22:03:56.574,6179794.0
22:03:56.614,6180192.0
22:03:56.654,6180420.0
22:03:56.694,6179892.0
22:03:56.734,6179488.0
22:03:56.774,6179260.0
22:03:56.814,6179765.0
22:03:56.854,6179611.0
22:03:56.894,6179871.0
22:03:56.934,6179638.0
22:03:56.974,6179643.0
22:03:57.014,6180133.0
22:03:57.054,6179173.0
22:03:57.094,6179520.0
22:03:57.134,6181237.0
22:03:57.174,6180065.0
22:03:57.214,6179058.0
22:03:57.254,6180075.0
22:03:57.294,6179377.0
22:03:57.334,6180736.0
22:03:57.374,6179713.0
22:03:57.414,6179192.0
22:03:57.454,6179312.0
22:03:57.494,6179684.0
22:03:57.534,6179368.0
22:03:57.574,6179666.0
22:03:57.614,6179848.0
22:03:57.654,6180018.0
22:03:57.694,6180073.0
22:03:57.734,6179637.0
22:03:57.774,6179542.0
22:03:57.814,6180146.0
22:03:57.854,6179233.0
22:03:57.894,6179798.0
22:03:57.934,6179918.0
22:03:57.974,6179981.0
22:03:58.014,6180097.0
22:03:58.054,6180202.0
22:03:58.094,6179350.0
22:03:58.134,6179458.0
22:03:58.174,6179339.0
22:03:58.214,6179690.0
22:03:58.254,6178947.0
22:03:58.294,6179609.0
22:03:58.334,6179148.0
22:03:58.374,6179017.0
22:03:58.414,6179269.0
22:03:58.706,6179537.0
22:03:58.746,6179649.0
22:03:58.786,6179883.0
22:03:58.826,6179798.0
22:03:58.866,6180359.0
22:03:58.906,6179665.0
22:03:58.946,6178579.0
22:03:58.986,6179765.0
22:03:59.026,6179367.0
22:03:59.066,6179462.0
22:03:59.106,6179324.0
22:03:59.146,6179607.0
22:03:59.186,6179143.0
22:03:59.226,6179771.0
22:03:59.266,6179804.0
22:03:59.306,6179782.0
22:03:59.346,6179323.0
22:03:59.386,6179364.0
22:03:59.426,6177618.0
22:03:59.466,6180118.0
22:03:59.506,6179741.0
22:03:59.546,6180182.0
22:03:59.586,6180266.0
22:03:59.626,6180206.0
22:03:59.666,6179434.0
22:03:59.706,6179277.0
22:03:59.746,6178992.0
22:03:59.786,6179014.0
22:03:59.826,6179485.0
22:03:59.866,6178990.0
22:03:59.906,6179232.0
22:03:59.946,6179615.0
22:03:59.986,6179315.0
22:04:00.026,6179619.0
22:04:00.066,6179058.0
22:04:00.106,6179688.0
22:04:00.146,6179362.0
22:04:00.186,6179212.0
22:04:00.226,6179832.0
22:04:00.266,6179592.0
22:04:00.306,6180483.0
22:04:00.346,6180074.0
22:04:00.386,6179572.0
22:04:00.426,6179328.0
22:04:00.466,6179246.0
22:04:00.506,6179794.0
22:04:00.546,6179527.0
22:04:00.586,6179423.0
22:04:00.626,6179366.0
22:04:00.666,6178978.0
22:04:00.706,6179685.0
22:04:00.746,6179500.0
22:04:00.786,6180151.0
22:04:00.826,6179180.0
22:04:00.866,6179547.0
22:04:00.906,6181003.0
22:04:00.946,6180191.0
22:04:00.986,6179833.0
22:04:01.026,6180193.0
22:04:01.066,6180379.0
22:04:01.106,6180293.0
22:04:01.146,6179776.0
22:04:01.186,6180018.0
22:04:01.226,6179514.0
22:04:01.266,6179823.0
22:04:01.306,6179497.0
22:04:01.346,6179876.0
22:04:01.386,6179573.0
22:04:01.426,6179131.0
22:04:01.466,6179698.0
22:04:01.506,6179302.0
22:04:01.546,6179837.0
22:04:01.586,6179276.0
22:04:01.626,6181520.0
22:04:01.666,6179974.0
22:04:01.706,6179628.0
22:04:01.746,6179969.0
22:04:01.786,6179894.0
22:04:01.826,6180904.0
22:04:01.866,6180177.0
22:04:01.906,6179729.0
22:04:01.946,6179568.0
22:04:01.986,6180075.0
22:04:02.026,6179699.0
22:04:02.066,6180223.0
22:04:02.106,6179232.0
22:04:02.146,6180248.0
22:04:02.186,6179813.0
22:04:02.226,6179222.0
22:04:02.266,6180240.0
22:04:02.306,6179266.0
22:04:02.346,6179991.0
22:04:02.386,6181360.0
22:04:02.426,6180086.0
22:04:02.466,6179841.0
22:04:02.506,6179895.0
22:04:02.546,6180390.0
22:04:02.586,6180705.0
22:04:02.626,6180501.0
22:04:02.666,6179895.0
22:04:03.039,6180073.0
22:04:03.079,6180165.0
22:04:03.119,6179755.0
22:04:03.159,6180021.0
22:04:03.199,6180059.0
22:04:03.239,6180723.0
22:04:03.279,6181172.0
22:04:03.319,6178230.0
22:04:03.359,6180701.0
22:04:03.399,6180095.0
22:04:03.439,6181265.0
22:04:03.479,6181007.0
22:04:03.519,6180703.0
22:04:03.559,6180382.0
22:04:03.599,6179767.0
22:04:03.639,6180186.0
22:04:03.679,6180441.0
22:04:03.719,6179982.0
22:04:03.759,6180273.0
22:04:03.799,6180105.0
22:04:03.839,6180421.0
22:04:03.879,6180612.0
22:04:03.919,6180528.0
22:04:03.959,6180187.0
22:04:03.999,6181208.0
22:04:04.039,6180822.0
22:04:04.079,6180309.0
22:04:04.119,6181281.0
22:04:04.159,6180864.0
22:04:04.199,6181066.0
22:04:04.239,6180793.0
22:04:04.279,6180308.0
22:04:04.319,6180514.0
22:04:04.359,6180026.0
22:04:04.399,6180514.0
22:04:04.439,6180248.0
22:04:04.479,6180715.0
22:04:04.519,6180218.0
22:04:04.559,6181212.0
22:04:04.599,6180411.0
22:04:04.639,6180168.0
22:04:04.679,6180851.0
22:04:04.719,6179708.0
22:04:04.759,6180961.0
22:04:04.799,6180588.0
22:04:04.839,6181049.0
22:04:04.879,6181031.0
22:04:04.919,6180878.0
22:04:04.959,6180493.0
22:04:04.999,6179968.0
22:04:05.039,6180392.0
22:04:05.079,6179991.0
22:04:05.119,6180748.0
22:04:05.159,6180117.0
22:04:05.199,6180861.0
22:04:05.239,6180332.0
22:04:05.279,6180325.0
22:04:05.319,6180654.0
22:04:05.359,6180371.0
22:04:05.399,6180221.0
22:04:05.439,6181519.0
22:04:05.479,6180436.0
22:04:05.519,6180321.0
22:04:05.559,6180815.0
22:04:05.599,6180992.0
22:04:05.639,6180501.0
22:04:05.679,6180666.0
22:04:05.719,6179770.0
22:04:05.759,6180227.0
22:04:05.799,6180053.0
22:04:05.839,6180823.0
22:04:05.879,6179972.0
22:04:05.919,6180357.0
22:04:05.959,6180225.0
22:04:05.999,6179955.0
22:04:06.039,6180370.0
22:04:06.079,6180372.0
22:04:06.119,6180411.0
22:04:06.159,6179492.0
22:04:06.199,6181392.0
22:04:06.239,6180709.0
22:04:06.279,6180420.0
22:04:06.319,6180518.0
22:04:06.359,6180930.0
22:04:06.399,6180895.0
22:04:06.439,6180086.0
22:04:06.479,6180252.0
22:04:06.519,6180015.0
22:04:06.559,6180001.0
22:04:06.599,6180005.0
22:04:06.639,6180041.0
22:04:06.679,6179868.0
22:04:06.719,6180109.0
22:04:06.759,6180059.0
22:04:06.799,6180513.0
22:04:06.839,6179733.0
22:04:06.879,6180591.0
22:04:06.919,6178662.0
22:04:06.959,6180195.0
22:04:06.999,6180004.0
22:04:07.236,6180707.0
22:04:07.276,6179779.0
22:04:07.316,6180236.0
22:04:07.356,6179977.0
22:04:07.396,6179610.0
22:04:07.436,6179852.0
22:04:07.476,6180203.0
22:04:07.516,6180710.0
22:04:07.556,6179844.0
22:04:07.596,6179911.0
22:04:07.636,6180394.0
22:04:07.676,6178966.0
22:04:07.716,6180490.0
22:04:07.756,6180210.0
22:04:07.796,6180742.0
22:04:07.836,6180907.0
22:04:07.876,6180612.0
22:04:07.916,6180455.0
22:04:07.956,6179878.0
22:04:07.996,6180037.0
22:04:08.036,6180082.0
22:04:08.076,6180107.0
22:04:08.116,6180378.0
22:04:08.156,6179418.0
22:04:08.196,6180046.0
22:04:08.236,6180480.0
22:04:08.276,6180163.0
22:04:08.316,6179737.0
22:04:08.356,6181261.0
22:04:08.396,6179637.0
22:04:08.436,6180446.0
22:04:08.476,6180474.0
22:04:08.516,6180671.0
22:04:08.556,6181089.0
22:04:08.596,6180561.0
22:04:08.636,6180091.0
22:04:08.676,6180179.0
22:04:08.716,6180280.0
22:04:08.756,6180443.0
22:04:08.796,6180361.0
22:04:08.836,6180138.0
22:04:08.876,6180476.0
22:04:08.916,6181039.0
22:04:08.956,6180566.0
22:04:08.996,6180143.0
22:04:09.036,6181117.0
22:04:09.076,6180070.0
22:04:09.116,6180732.0
22:04:09.156,6180764.0
22:04:09.196,6180976.0
22:04:09.236,6181305.0
22:04:09.276,6181033.0
22:04:09.316,6180573.0
22:04:09.356,6180417.0
22:04:09.396,6180549.0
22:04:09.436,6180854.0
22:04:09.476,6180513.0
22:04:09.516,6180644.0
22:04:09.556,6180320.0
22:04:09.596,6180569.0
22:04:09.636,6180645.0
22:04:09.676,6180610.0
22:04:09.716,6180194.0
22:04:09.756,6182369.0
22:04:09.796,6181045.0
22:04:09.836,6180915.0
22:04:09.876,6181061.0
22:04:09.916,6181167.0
22:04:09.956,6181083.0
22:04:09.996,6180762.0
22:04:10.036,6180019.0
22:04:10.076,6180381.0
22:04:10.116,6180413.0
22:04:10.156,6180546.0
22:04:10.196,6180615.0
22:04:10.236,6180546.0
22:04:10.276,6180258.0
22:04:10.316,6180309.0
22:04:10.356,6180604.0
22:04:10.396,6180921.0
22:04:10.436,6180471.0
22:04:10.476,6180495.0
22:04:10.516,6180246.0
22:04:10.556,6181380.0
22:04:10.596,6180783.0
22:04:10.636,6180382.0
22:04:10.676,6180847.0
22:04:10.716,6180938.0
22:04:10.756,6181024.0
22:04:10.796,6180475.0
22:04:10.836,6180613.0
22:04:10.876,6180061.0
22:04:10.916,6180626.0
22:04:10.956,6180307.0
22:04:10.996,6179930.0
22:04:11.036,6180211.0
22:04:11.076,6180442.0
22:04:11.116,6180093.0
22:04:11.156,6180205.0
22:04:11.196,6180801.0
22:04:11.515,6180402.0
22:04:11.555,6180839.0
22:04:11.595,6181141.0
22:04:11.635,6181110.0
22:04:11.675,6180945.0
22:04:11.715,6180201.0
22:04:11.755,6180451.0
22:04:11.795,6179865.0
22:04:11.835,6180806.0
22:04:11.875,6180547.0
22:04:11.915,6180399.0
22:04:11.955,6180378.0
22:04:11.995,6180719.0
22:04:12.035,6180709.0
22:04:12.075,6180910.0
22:04:12.115,6180285.0
22:04:12.155,6180367.0
22:04:12.195,6182403.0
22:04:12.235,6180483.0
22:04:12.275,6180896.0
22:04:12.315,6180785.0
22:04:12.355,6181192.0
22:04:12.395,6181476.0
22:04:12.435,6181009.0
22:04:12.475,6180544.0
22:04:12.515,6180643.0
22:04:12.555,6180608.0
22:04:12.595,6180662.0
22:04:12.635,6180820.0
22:04:12.675,6180578.0
22:04:12.715,6180319.0
22:04:12.755,6180709.0
22:04:12.795,6180746.0
22:04:12.835,6180333.0
22:04:12.875,6180429.0
22:04:12.915,6182529.0
22:04:12.955,6180893.0
22:04:12.995,6180511.0
22:04:13.035,6181038.0
22:04:13.075,6180981.0
22:04:13.115,6181582.0
22:04:13.155,6180709.0
22:04:13.195,6180680.0
22:04:13.235,6180276.0
22:04:13.275,6180417.0
22:04:13.315,6180691.0
22:04:13.355,6180549.0
22:04:13.395,6180536.0
22:04:13.435,6180434.0
22:04:13.475,6180528.0
22:04:13.515,6180464.0
22:04:13.555,6181043.0
22:04:13.595,6180720.0
22:04:13.635,6180322.0
22:04:13.675,6180445.0
22:04:13.715,6180371.0
22:04:13.755,6180277.0
22:04:13.795,6180612.0
22:04:13.835,6181130.0
22:04:13.875,6181110.0
22:04:13.915,6181015.0
22:04:13.955,6180711.0
22:04:13.995,6180342.0
22:04:14.035,6180187.0
22:04:14.075,6180362.0
22:04:14.115,6180700.0
22:04:14.155,6180457.0
22:04:14.195,6180213.0
22:04:14.235,6180424.0
22:04:14.275,6180159.0
22:04:14.315,6180280.0
22:04:14.355,6180919.0
22:04:14.395,6180493.0
22:04:14.435,6180234.0
22:04:14.475,6181888.0
22:04:14.515,6180677.0
22:04:14.555,6180799.0
22:04:14.595,6181154.0
22:04:14.635,6181171.0
22:04:14.675,6181829.0
22:04:14.715,6181222.0
22:04:14.755,6180938.0
22:04:14.795,6180319.0
22:04:14.835,6180685.0
22:04:14.875,6180830.0
22:04:14.915,6180362.0
22:04:14.955,6180923.0
22:04:14.995,6180471.0
22:04:15.035,6181098.0
22:04:15.075,6181071.0
22:04:15.115,6180598.0
22:04:15.155,6180543.0
22:04:15.195,6181557.0
22:04:15.235,6179844.0
22:04:15.275,6181223.0
22:04:15.315,6180965.0
22:04:15.355,6181267.0
22:04:15.395,6181569.0
22:04:15.435,6181111.0
22:04:15.475,6180952.0
22:04:15.974,6180438.0
22:04:16.014,6180700.0
22:04:16.054,6180388.0
22:04:16.094,6180524.0
22:04:16.134,6180848.0
22:04:16.174,6180559.0
22:04:16.214,6180284.0
22:04:16.254,6182714.0
22:04:16.294,6180894.0
22:04:16.334,6180730.0
22:04:16.374,6180884.0
22:04:16.414,6181312.0
22:04:16.454,6181487.0
22:04:16.494,6180965.0
22:04:16.534,6180715.0
22:04:16.574,6180194.0
22:04:16.614,6180471.0
22:04:16.654,6180712.0
22:04:16.694,6180662.0
22:04:16.734,6180581.0
22:04:16.774,6180786.0
22:04:16.814,6180536.0
22:04:16.854,6180316.0
22:04:16.894,6180831.0
22:04:16.934,6180451.0
22:04:16.974,6180389.0
22:04:17.014,6182405.0
22:04:17.054,6179692.0
22:04:17.094,6180525.0
22:04:17.134,6181029.0
22:04:17.174,6181399.0
22:04:17.214,6181500.0
22:04:17.254,6181176.0
22:04:17.294,6181020.0
22:04:17.334,6180721.0
22:04:17.374,6180630.0
22:04:17.414,6181052.0
22:04:17.454,6180886.0
22:04:17.494,6180543.0
22:04:17.534,6180242.0
22:04:17.574,6180782.0
22:04:17.614,6180740.0
22:04:17.654,6181403.0
22:04:17.694,6180749.0
22:04:17.734,6180542.0
22:04:17.774,6181507.0
22:04:17.814,6180591.0
22:04:17.854,6180662.0
22:04:17.894,6181284.0
22:04:17.934,6181001.0
22:04:17.974,6181874.0
22:04:18.014,6181519.0
22:04:18.054,6181239.0
22:04:18.094,6180797.0
22:04:18.134,6180622.0
22:04:18.174,6180861.0
22:04:18.214,6180834.0
22:04:18.254,6180981.0
22:04:18.294,6180493.0
22:04:18.334,6180752.0
22:04:18.374,6180823.0
22:04:18.414,6181038.0
22:04:18.454,6180597.0
22:04:18.494,6180522.0
22:04:18.534,6181558.0
22:04:18.574,6178740.0
22:04:18.614,6180906.0
22:04:18.654,6180834.0
22:04:18.694,6181225.0
22:04:18.734,6181087.0
22:04:18.774,6181469.0
22:04:18.814,6180674.0
22:04:18.854,6180607.0
22:04:18.894,6180553.0
22:04:18.934,6180704.0
22:04:18.974,6180626.0
22:04:19.014,6180681.0
22:04:19.054,6180838.0
22:04:19.094,6180660.0
22:04:19.134,6180571.0
22:04:19.174,6180773.0
22:04:19.214,6180778.0
22:04:19.254,6180527.0
22:04:19.294,6180389.0
22:04:19.334,6181763.0
22:04:19.374,6180459.0
22:04:19.414,6180569.0
22:04:19.454,6180750.0
22:04:19.494,6180789.0
22:04:19.534,6181549.0
22:04:19.574,6180700.0
22:04:19.614,6180583.0
22:04:19.654,6180438.0
22:04:19.694,6180496.0
22:04:19.734,6180742.0
22:04:19.774,6180509.0
22:04:19.814,6180611.0
22:04:19.854,6180539.0
22:04:19.894,6180052.0
22:04:19.934,6180751.0
22:04:20.242,6180946.0
22:04:20.282,6180677.0
22:04:20.322,6180478.0
22:04:20.362,6180258.0
22:04:20.402,6180591.0
22:04:20.442,6180926.0
22:04:20.482,6180522.0
22:04:20.522,6180221.0
22:04:20.562,6180358.0
22:04:20.602,6180841.0
22:04:20.642,6180067.0
22:04:20.682,6180472.0
22:04:20.722,6180473.0
22:04:20.762,6181952.0
22:04:20.802,6180955.0
22:04:20.842,6180810.0
22:04:20.882,6180966.0
22:04:20.922,6181228.0
22:04:20.962,6181676.0
22:04:21.002,6181001.0
22:04:21.042,6180313.0
22:04:21.082,6180570.0
22:04:21.122,6180466.0
22:04:21.162,6180921.0
22:04:21.202,6180299.0
22:04:21.242,6180472.0
22:04:21.282,6180355.0
22:04:21.322,6180777.0
22:04:21.362,6180987.0
22:04:21.402,6180226.0
22:04:21.442,6180936.0
22:04:21.482,6180759.0
22:04:21.522,6181078.0
22:04:21.562,6181251.0
22:04:21.602,6181299.0
22:04:21.642,6181473.0
22:04:21.682,6181543.0
22:04:21.722,6181259.0
22:04:21.762,6180854.0
22:04:21.802,6180551.0
22:04:21.842,6180624.0
22:04:21.882,6181048.0
22:04:21.922,6180872.0
22:04:21.962,6180760.0
22:04:22.002,6180772.0
22:04:22.042,6181171.0
22:04:22.082,6180741.0
22:04:22.122,6180252.0
22:04:22.162,6181595.0
22:04:22.202,6179218.0
22:04:22.242,6180900.0
22:04:22.282,6180866.0
22:04:22.322,6181445.0
22:04:22.362,6181489.0
22:04:22.402,6181219.0
22:04:22.442,6180576.0
22:04:22.482,6180833.0
22:04:22.522,6180674.0
22:04:22.562,6180485.0
22:04:22.602,6180704.0
22:04:22.642,6180460.0
22:04:22.682,6180725.0
22:04:22.722,6180735.0
22:04:22.762,6180996.0
22:04:22.802,6180907.0
22:04:22.842,6180334.0
22:04:22.882,6180835.0
22:04:22.922,6180023.0
22:04:22.962,6180654.0
22:04:23.002,6180885.0
22:04:23.042,6181210.0
22:04:23.082,6181592.0
22:04:23.122,6181003.0
22:04:23.162,6180700.0
22:04:23.202,6180361.0
22:04:23.242,6180454.0
22:04:23.282,6180383.0
22:04:23.322,6180831.0
22:04:23.362,6180709.0
22:04:23.402,6180572.0
22:04:23.442,6180908.0
22:04:23.482,6180653.0
22:04:23.522,6180478.0
22:04:23.562,6180944.0
22:04:23.602,6180352.0
22:04:23.642,6180494.0
22:04:23.682,6181517.0
22:04:23.722,6179021.0
22:04:23.762,6180707.0
22:04:23.802,6180670.0
22:04:23.842,6181457.0
22:04:23.882,6181433.0
22:04:23.922,6181300.0
22:04:23.962,6181170.0
22:04:24.002,6180525.0
22:04:24.042,6180618.0
22:04:24.082,6180801.0
22:04:24.122,6180897.0
22:04:24.162,6180856.0
22:04:24.202,6180763.0
22:04:24.557,6180909.0
22:04:24.597,6182799.0
22:04:24.637,6181233.0
22:04:24.677,6180906.0
22:04:24.717,6181193.0
22:04:24.757,6181339.0
22:04:24.797,6181543.0
22:04:24.837,6181098.0
22:04:24.877,6180892.0
22:04:24.917,6180714.0
22:04:24.957,6180964.0
22:04:24.997,6180885.0
22:04:25.037,6180979.0
22:04:25.077,6180759.0
22:04:25.117,6180767.0
22:04:25.157,6180960.0
22:04:25.197,6181234.0
22:04:25.237,6180893.0
22:04:25.277,6180849.0
22:04:25.317,6181948.0
22:04:25.357,6180897.0
22:04:25.397,6180908.0
22:04:25.437,6181091.0
22:04:25.477,6181338.0
22:04:25.517,6181331.0
22:04:25.557,6181118.0
22:04:25.597,6180604.0
22:04:25.637,6180473.0
22:04:25.677,6180672.0
22:04:25.717,6180785.0
22:04:25.757,6180637.0
22:04:25.797,6180568.0
22:04:25.837,6180584.0
22:04:25.877,6180678.0
22:04:25.917,6180951.0
22:04:25.957,6181416.0
22:04:25.997,6180766.0
22:04:26.037,6180446.0
22:04:26.077,6181457.0
22:04:26.117,6180412.0
22:04:26.157,6180829.0
22:04:26.197,6180950.0
22:04:26.237,6180871.0
22:04:26.277,6181418.0
22:04:26.317,6181385.0
22:04:26.357,6180646.0
22:04:26.397,6180591.0
22:04:26.437,6180442.0
22:04:26.477,6180863.0
22:04:26.517,6180560.0
22:04:26.557,6180828.0
22:04:26.597,6180580.0
22:04:26.637,6180575.0
22:04:26.677,6180597.0
22:04:26.717,6180888.0
22:04:26.757,6180499.0
22:04:26.797,6180427.0
22:04:26.837,6181769.0
22:04:26.877,6178984.0
22:04:26.917,6180638.0
22:04:26.957,6180948.0
22:04:26.997,6181076.0
22:04:27.037,6181385.0
22:04:27.077,6181450.0
22:04:27.117,6180632.0
22:04:27.157,6180438.0
22:04:27.197,6180608.0
22:04:27.237,6180536.0
22:04:27.277,6180411.0
22:04:27.317,6180474.0
22:04:27.357,6180564.0
22:04:27.397,6180374.0
22:04:27.437,6180894.0
22:04:27.477,6181058.0
22:04:27.517,6180491.0
22:04:27.557,6180598.0
22:04:27.597,6181570.0
22:04:27.637,6180959.0
22:04:27.677,6180925.0
22:04:27.717,6181153.0
22:04:27.757,6181377.0
22:04:27.797,6181532.0
22:04:27.837,6181160.0
22:04:27.877,6180726.0
22:04:27.917,6180569.0
22:04:27.957,6180671.0
22:04:27.997,6180978.0
22:04:28.037,6180756.0
22:04:28.077,6180559.0
22:04:28.117,6180518.0
22:04:28.157,6180996.0
22:04:28.197,6180893.0
22:04:28.237,6180423.0
22:04:28.277,6180665.0
22:04:28.317,6181800.0
22:04:28.357,6180888.0
22:04:28.397,6180713.0
22:04:28.437,6180858.0
22:04:28.477,6181438.0
22:04:28.517,6181720.0
22:04:28.853,6180950.0
22:04:28.893,6180518.0
22:04:28.933,6180552.0
22:04:28.973,6180504.0
22:04:29.013,6180924.0
22:04:29.053,6180843.0
22:04:29.093,6180414.0
22:04:29.133,6180380.0
22:04:29.173,6182202.0
22:04:29.213,6180484.0
22:04:29.253,6180802.0
22:04:29.293,6180810.0
22:04:29.333,6181016.0
22:04:29.373,6181131.0
22:04:29.413,6181137.0
22:04:29.453,6180403.0
22:04:29.493,6180082.0
22:04:29.533,6180683.0
22:04:29.573,6180704.0
22:04:29.613,6180605.0
22:04:29.653,6180401.0
22:04:29.693,6180208.0
22:04:29.733,6180611.0
22:04:29.773,6180573.0
22:04:29.813,6180894.0
22:04:29.853,6180444.0
22:04:29.893,6180207.0
22:04:29.933,6181838.0
22:04:29.973,6178436.0
22:04:30.013,6180464.0
22:04:30.053,6180831.0
22:04:30.093,6181001.0
22:04:30.133,6181503.0
22:04:30.173,6181007.0
22:04:30.213,6180755.0
22:04:30.253,6180511.0
22:04:30.293,6180662.0
22:04:30.333,6180807.0
22:04:30.373,6180563.0
22:04:30.413,6180566.0
22:04:30.453,6180638.0
22:04:30.493,6180691.0
22:04:30.533,6180604.0
22:04:30.573,6181248.0
22:04:30.613,6180834.0
22:04:30.653,6180969.0
22:04:30.693,6181219.0
22:04:30.733,6180498.0
22:04:30.773,6180745.0
22:04:30.813,6180946.0
22:04:30.853,6180987.0
22:04:30.893,6181634.0
22:04:30.933,6181193.0
22:04:30.973,6180791.0
22:04:31.013,6180558.0
22:04:31.053,6180443.0
22:04:31.093,6180643.0
22:04:31.133,6180292.0
22:04:31.173,6180610.0
22:04:31.213,6180566.0
22:04:31.253,6180651.0
22:04:31.293,6180720.0
22:04:31.333,6181261.0
22:04:31.373,6180615.0
22:04:31.413,6180319.0
22:04:31.453,6181546.0
22:04:31.493,6179285.0
22:04:31.533,6180764.0
22:04:31.573,6180743.0
22:04:31.613,6181102.0
22:04:31.653,6181422.0
22:04:31.693,6181025.0
22:04:31.733,6180694.0
22:04:31.773,6180482.0
22:04:31.813,6180374.0
22:04:31.853,6180730.0
22:04:31.893,6180525.0
22:04:31.933,6180663.0
22:04:31.973,6180561.0
22:04:32.013,6180210.0
22:04:32.053,6180713.0
22:04:32.093,6180480.0
22:04:32.133,6180546.0
22:04:32.173,6180993.0
22:04:32.213,6180397.0
22:04:32.253,6180178.0
22:04:32.293,6182036.0
22:04:32.333,6180676.0
22:04:32.373,6180632.0
22:04:32.413,6181104.0
22:04:32.453,6181390.0
22:04:32.493,6181524.0
22:04:32.533,6180918.0
22:04:32.573,6180419.0
22:04:32.613,6180370.0
22:04:32.653,6180442.0
22:04:32.693,6180756.0
22:04:32.733,6180662.0
22:04:32.773,6180701.0
22:04:32.813,6180712.0
22:04:33.161,6180437.0
22:04:33.201,6180190.0
22:04:33.241,6180901.0
22:04:33.281,6180925.0
22:04:33.321,6181139.0
22:04:33.361,6181249.0
22:04:33.401,6181463.0
22:04:33.441,6180757.0
22:04:33.481,6180353.0
22:04:33.521,6180336.0
22:04:33.561,6180683.0
22:04:33.601,6180702.0
22:04:33.641,6180594.0
22:04:33.681,6180451.0
22:04:33.721,6180287.0
22:04:33.761,6180943.0
22:04:33.801,6180802.0
22:04:33.841,6180430.0
22:04:33.881,6180826.0
22:04:33.921,6180411.0
22:04:33.961,6180748.0
22:04:34.001,6180693.0
22:04:34.041,6180824.0
22:04:34.081,6181229.0
22:04:34.121,6181369.0
22:04:34.161,6180633.0
22:04:34.201,6180279.0
22:04:34.241,6180381.0
22:04:34.281,6180406.0
22:04:34.321,6180547.0
22:04:34.361,6180571.0
22:04:34.401,6180383.0
22:04:34.441,6180640.0
22:04:34.481,6180444.0
22:04:34.521,6180969.0
22:04:34.561,6180610.0
22:04:34.601,6180719.0
22:04:34.641,6180558.0
22:04:34.681,6180070.0
22:04:34.721,6180509.0
22:04:34.761,6180452.0
22:04:34.801,6180771.0
22:04:34.841,6181027.0
22:04:34.881,6181026.0
22:04:34.921,6180685.0
22:04:34.961,6180244.0
22:04:35.001,6180180.0
22:04:35.041,6180309.0
22:04:35.081,6180410.0
22:04:35.121,6179992.0
22:04:35.161,6180180.0
22:04:35.201,6180302.0
22:04:35.241,6180399.0
22:04:35.281,6180550.0
22:04:35.321,6180691.0
22:04:35.361,6180158.0
22:04:35.401,6180239.0
22:04:35.441,6180184.0
22:04:35.481,6180419.0
22:04:35.521,6180756.0
22:04:35.561,6180860.0
22:04:35.601,6181072.0
22:04:35.641,6181381.0
22:04:35.681,6180554.0
22:04:35.721,6180315.0
22:04:35.761,6180069.0
22:04:35.801,6180289.0
22:04:35.841,6180476.0
22:04:35.881,6180155.0
22:04:35.921,6180374.0
22:04:35.961,6180223.0
22:04:36.001,6180459.0
22:04:36.041,6180664.0
22:04:36.081,6180646.0
22:04:36.121,6180146.0
22:04:36.161,6180325.0
22:04:36.201,6181390.0
22:04:36.241,6180795.0
22:04:36.281,6180806.0
22:04:36.321,6180977.0
22:04:36.361,6181213.0
22:04:36.401,6181489.0
22:04:36.441,6181106.0
22:04:36.481,6180408.0
22:04:36.521,6180400.0
22:04:36.561,6180455.0
22:04:36.601,6180591.0
22:04:36.641,6180646.0
22:04:36.681,6180722.0
22:04:36.721,6180597.0
22:04:36.761,6181437.0
22:04:36.801,6180874.0
22:04:36.841,6180593.0
22:04:36.881,6181238.0
22:04:36.921,6179827.0
22:04:36.961,6180820.0
22:04:37.001,6181033.0
22:04:37.041,6181230.0
22:04:37.081,6181493.0
22:04:37.121,6181558.0
22:04:37.449,6180628.0
22:04:37.489,6180588.0
22:04:37.529,6180650.0
22:04:37.569,6180451.0
22:04:37.609,6180361.0
22:04:37.649,6180372.0
22:04:37.689,6182135.0
22:04:37.729,6180586.0
22:04:37.769,6180715.0
22:04:37.809,6180824.0
22:04:37.849,6180715.0
22:04:37.889,6181461.0
22:04:37.929,6180880.0
22:04:37.969,6180143.0
22:04:38.009,6180280.0
22:04:38.049,6180137.0
22:04:38.089,6180427.0
22:04:38.129,6179965.0
22:04:38.169,6180358.0
22:04:38.209,6180236.0
22:04:38.249,6180206.0
22:04:38.289,6180833.0
22:04:38.329,6180584.0
22:04:38.369,6179954.0
22:04:38.409,6180744.0
22:04:38.449,6179904.0
22:04:38.489,6180624.0
22:04:38.529,6180579.0
22:04:38.569,6180582.0
22:04:38.609,6181168.0
22:04:38.649,6181091.0
22:04:38.689,6180714.0
22:04:38.729,6180279.0
22:04:38.769,6180136.0
22:04:38.809,6180326.0
22:04:38.849,6180319.0
22:04:38.889,6180510.0
22:04:38.929,6180216.0
22:04:38.969,6180474.0
22:04:39.009,6180470.0
22:04:39.049,6180639.0
22:04:39.089,6180206.0
22:04:39.129,6180518.0
22:04:39.169,6181770.0
22:04:39.209,6179409.0
22:04:39.249,6180387.0
22:04:39.289,6180925.0
22:04:39.329,6180704.0
22:04:39.369,6181420.0
22:04:39.409,6180900.0
22:04:39.449,6180813.0
22:04:39.489,6180502.0
22:04:39.529,6180452.0
22:04:39.569,6180654.0
22:04:39.609,6180350.0
22:04:39.649,6180461.0
22:04:39.689,6180282.0
22:04:39.729,6180501.0
22:04:39.769,6180526.0
22:04:39.809,6180567.0
22:04:39.849,6180626.0
22:04:39.889,6180088.0
22:04:39.929,6181888.0
22:04:39.969,6180512.0
22:04:40.009,6180523.0
22:04:40.049,6180940.0
22:04:40.089,6181164.0
22:04:40.129,6181106.0
22:04:40.169,6180855.0
22:04:40.209,6180342.0
22:04:40.249,6180524.0
22:04:40.289,6180390.0
22:04:40.329,6180565.0
22:04:40.369,6180487.0
22:04:40.409,6180227.0
22:04:40.449,6180424.0
22:04:40.489,6180146.0
22:04:40.529,6180387.0
22:04:40.569,6180820.0
22:04:40.609,6180266.0
22:04:40.649,6180195.0
22:04:40.689,6180932.0
22:04:40.729,6179837.0
22:04:40.769,6180905.0
22:04:40.809,6180661.0
22:04:40.849,6180850.0
22:04:40.889,6181075.0
22:04:40.929,6180911.0
22:04:40.969,6180370.0
22:04:41.009,6180111.0
22:04:41.049,6179935.0
22:04:41.089,6180070.0
22:04:41.129,6180238.0
22:04:41.169,6180074.0
22:04:41.209,6180064.0
22:04:41.249,6179871.0
22:04:41.289,6180255.0
22:04:41.329,6180455.0
22:04:41.369,6180010.0
22:04:41.409,6179893.0
22:04:41.687,6181704.0
22:04:41.727,6180604.0
22:04:41.767,6180558.0
22:04:41.807,6180179.0
22:04:41.847,6180359.0
22:04:41.887,6180582.0
22:04:41.927,6180312.0
22:04:41.967,6180476.0
22:04:42.007,6180266.0
22:04:42.047,6180135.0
22:04:42.087,6180756.0
22:04:42.127,6180206.0
22:04:42.167,6180085.0
22:04:42.207,6182070.0
22:04:42.247,6180687.0
22:04:42.287,6180602.0
22:04:42.327,6181039.0
22:04:42.367,6181095.0
22:04:42.407,6181286.0
22:04:42.447,6181178.0
22:04:42.487,6180483.0
22:04:42.527,6180366.0
22:04:42.567,6180600.0
22:04:42.607,6180373.0
22:04:42.647,6180696.0
22:04:42.687,6180535.0
22:04:42.727,6180395.0
22:04:42.767,6180485.0
22:04:42.807,6181247.0
22:04:42.847,6180586.0
22:04:42.887,6180114.0
22:04:42.927,6181329.0
22:04:42.967,6179360.0
22:04:43.007,6180924.0
22:04:43.047,6180621.0
22:04:43.087,6181110.0
22:04:43.127,6181435.0
22:04:43.167,6181373.0
22:04:43.207,6180903.0
22:04:43.247,6180220.0
22:04:43.287,6180647.0
22:04:43.327,6180566.0
22:04:43.367,6180852.0
22:04:43.407,6180621.0
22:04:43.447,6180417.0
22:04:43.487,6180632.0
22:04:43.527,6180800.0
22:04:43.567,6180279.0
22:04:43.607,6180508.0
22:04:43.647,6182130.0
22:04:43.687,6180818.0
22:04:43.727,6180665.0
22:04:43.767,6180887.0
22:04:43.807,6181077.0
22:04:43.847,6181470.0
22:04:43.887,6180956.0
22:04:43.927,6180525.0
22:04:43.967,6180357.0
22:04:44.007,6180642.0
22:04:44.047,6180877.0
22:04:44.087,6180499.0
22:04:44.127,6180633.0
22:04:44.167,6180864.0
22:04:44.207,6180757.0
22:04:44.247,6180329.0
22:04:44.287,6180231.0
22:04:44.327,6182293.0
22:04:44.367,6180780.0
22:04:44.407,6180782.0
22:04:44.447,6180914.0
22:04:44.487,6181021.0
22:04:44.527,6181422.0
22:04:44.567,6180830.0
22:04:44.607,6180354.0
22:04:44.647,6180368.0
22:04:44.687,6180558.0
22:04:44.727,6180574.0
22:04:44.767,6180268.0
22:04:44.807,6180623.0
22:04:44.847,6181101.0
22:04:44.887,6180530.0
22:04:44.927,6180301.0
22:04:44.967,6181124.0
22:04:45.007,6179368.0
22:04:45.047,6180607.0
22:04:45.087,6180706.0
22:04:45.127,6180932.0
22:04:45.167,6181029.0
22:04:45.207,6181203.0
22:04:45.247,6180569.0
22:04:45.287,6180369.0
22:04:45.327,6180139.0
22:04:45.367,6180574.0
22:04:45.407,6180456.0
22:04:45.447,6179980.0
22:04:45.487,6180435.0
22:04:45.527,6180479.0
22:04:45.567,6180702.0
22:04:45.607,6180364.0
22:04:45.647,6180132.0
22:04:46.029,6181814.0
22:04:46.069,6181339.0
22:04:46.109,6181488.0
22:04:46.149,6180832.0
22:04:46.189,6180658.0
22:04:46.229,6180490.0
22:04:46.269,6180472.0
22:04:46.309,6180684.0
22:04:46.349,6180612.0
22:04:46.389,6180632.0
22:04:46.429,6180472.0
22:04:46.469,6181408.0
22:04:46.509,6180779.0
22:04:46.549,6180479.0
22:04:46.589,6181034.0
22:04:46.629,6180506.0
22:04:46.669,6180932.0
22:04:46.709,6180684.0
22:04:46.749,6180917.0
22:04:46.789,6181510.0
22:04:46.829,6181234.0
22:04:46.869,6180651.0
22:04:46.909,6180841.0
22:04:46.949,6180541.0
22:04:46.989,6180762.0
22:04:47.029,6180554.0
22:04:47.069,6180409.0
22:04:47.109,6180578.0
22:04:47.149,6180471.0
22:04:47.189,6180426.0
22:04:47.229,6180708.0
22:04:47.269,6180364.0
22:04:47.309,6180338.0
22:04:47.349,6181480.0
22:04:47.389,6179151.0
22:04:47.429,6180728.0
22:04:47.469,6180876.0
22:04:47.509,6181245.0
22:04:47.549,6181445.0
22:04:47.589,6181305.0
22:04:47.629,6180180.0
22:04:47.669,6180861.0
22:04:47.709,6180485.0
22:04:47.749,6180644.0
22:04:47.789,6180656.0
22:04:47.829,6180268.0
22:04:47.869,6180468.0
22:04:47.909,6180367.0
22:04:47.949,6180216.0
22:04:47.989,6180643.0
22:04:48.029,6180760.0
22:04:48.069,6180282.0
22:04:48.109,6180344.0
22:04:48.149,6182020.0
22:04:48.189,6179841.0
22:04:48.229,6180896.0
22:04:48.269,6180754.0
22:04:48.309,6181051.0
22:04:48.349,6181046.0
22:04:48.389,6181099.0
22:04:48.429,6180118.0
22:04:48.469,6180757.0
22:04:48.509,6180946.0
22:04:48.549,6181210.0
22:04:48.589,6180834.0
22:04:48.629,6180215.0
22:04:48.669,6180107.0
22:04:48.709,6180159.0
22:04:48.749,6179911.0
22:04:48.789,6180452.0
22:04:48.829,6180526.0
22:04:48.869,6180001.0
22:04:48.909,6180216.0
22:04:48.949,6182075.0
22:04:48.989,6180390.0
22:04:49.029,6180557.0
22:04:49.069,6180844.0
22:04:49.109,6181118.0
22:04:49.149,6181247.0
22:04:49.189,6180536.0
22:04:49.229,6180375.0
22:04:49.269,6180264.0
22:04:49.309,6180326.0
22:04:49.349,6180291.0
22:04:49.389,6180434.0
22:04:49.429,6180256.0
22:04:49.469,6180460.0
22:04:49.509,6180250.0
22:04:49.549,6179768.0
22:04:49.589,6180570.0
22:04:49.629,6180609.0
22:04:49.669,6180207.0
22:04:49.709,6180298.0
22:04:49.749,6182211.0
22:04:49.789,6180142.0
22:04:49.829,6180308.0
22:04:49.869,6180846.0
22:04:49.909,6181109.0
22:04:49.949,6181478.0
22:04:49.989,6180637.0
22:04:50.308,6180283.0
22:04:50.348,6180361.0
22:04:50.388,6180471.0
22:04:50.428,6180335.0
22:04:50.468,6181202.0
22:04:50.508,6180693.0
22:04:50.548,6180458.0
22:04:50.588,6180641.0
22:04:50.628,6180575.0
22:04:50.668,6180811.0
22:04:50.708,6180724.0
22:04:50.748,6180965.0
22:04:50.788,6181577.0
22:04:50.828,6181454.0
22:04:50.868,6180954.0
22:04:50.908,6180869.0
22:04:50.948,6180628.0
22:04:50.988,6180238.0
22:04:51.028,6180939.0
22:04:51.068,6180722.0
22:04:51.108,6180836.0
22:04:51.148,6180483.0
22:04:51.188,6180476.0
22:04:51.228,6181138.0
22:04:51.268,6180884.0
22:04:51.308,6180391.0
22:04:51.348,6181620.0
22:04:51.388,6179174.0
22:04:51.428,6181149.0
22:04:51.468,6180977.0
22:04:51.508,6181297.0
22:04:51.548,6181513.0
22:04:51.588,6181782.0
22:04:51.628,6180945.0
22:04:51.668,6180348.0
22:04:51.708,6180619.0
22:04:51.748,6180817.0
22:04:51.788,6180970.0
22:04:51.828,6180655.0
22:04:51.868,6180610.0
22:04:51.908,6180556.0
22:04:51.948,6180905.0
22:04:51.988,6180951.0
22:04:52.028,6180569.0
22:04:52.068,6180502.0
22:04:52.108,6182745.0
22:04:52.148,6181084.0
22:04:52.188,6180661.0
22:04:52.228,6181061.0
22:04:52.268,6181226.0
22:04:52.308,6181424.0
22:04:52.348,6181144.0
22:04:52.388,6180582.0
22:04:52.428,6180434.0
22:04:52.468,6180590.0
22:04:52.508,6180547.0
22:04:52.548,6180763.0
22:04:52.588,6180661.0
22:04:52.628,6180459.0
22:04:52.668,6180493.0
22:04:52.708,6180613.0
22:04:52.748,6181243.0
22:04:52.788,6180934.0
22:04:52.828,6180046.0
22:04:52.868,6181101.0
22:04:52.908,6180209.0
22:04:52.948,6180823.0
22:04:52.988,6181105.0
22:04:53.028,6181286.0
22:04:53.068,6181306.0
22:04:53.108,6181706.0
22:04:53.148,6181088.0
22:04:53.188,6180385.0
22:04:53.228,6180472.0
22:04:53.268,6180731.0
22:04:53.308,6180923.0
22:04:53.348,6180789.0
22:04:53.388,6180849.0
22:04:53.428,6180766.0
22:04:53.468,6181233.0
22:04:53.508,6181159.0
22:04:53.548,6180584.0
22:04:53.588,6180619.0
22:04:53.628,6183095.0
22:04:53.668,6181466.0
22:04:53.708,6181211.0
22:04:53.748,6181425.0
22:04:53.788,6181682.0
22:04:53.828,6181863.0
22:04:53.868,6181330.0
22:04:53.908,6181308.0
22:04:53.948,6180902.0
22:04:53.988,6180717.0
22:04:54.028,6181099.0
22:04:54.068,6180883.0
22:04:54.108,6180835.0
22:04:54.148,6180695.0
22:04:54.188,6181206.0
22:04:54.228,6181230.0
22:04:54.268,6180586.0
22:04:54.572,6180754.0
22:04:54.612,6181590.0
22:04:54.652,6181688.0
22:04:54.692,6180961.0
22:04:54.732,6180840.0
22:04:54.772,6180741.0
22:04:54.812,6180533.0
22:04:54.852,6181105.0
22:04:54.892,6180770.0
22:04:54.932,6180689.0
22:04:54.972,6180838.0
22:04:55.012,6180928.0
22:04:55.052,6181412.0
22:04:55.092,6181010.0
22:04:55.132,6180483.0
22:04:55.172,6181521.0
22:04:55.212,6180388.0
22:04:55.252,6180861.0
22:04:55.292,6181132.0
22:04:55.332,6181484.0
22:04:55.372,6181703.0
22:04:55.412,6181664.0
22:04:55.452,6181384.0
22:04:55.492,6180757.0
22:04:55.532,6180677.0
22:04:55.572,6180923.0
22:04:55.612,6180892.0
22:04:55.652,6180390.0
22:04:55.692,6180794.0
22:04:55.732,6180805.0
22:04:55.772,6180827.0
22:04:55.812,6181076.0
22:04:55.852,6180999.0
22:04:55.892,6180638.0
22:04:55.932,6181818.0
22:04:55.972,6180758.0
22:04:56.012,6181198.0
22:04:56.052,6181311.0
22:04:56.092,6181622.0
22:04:56.132,6181937.0
22:04:56.172,6181786.0
22:04:56.212,6181127.0
22:04:56.252,6181167.0
22:04:56.292,6181032.0
22:04:56.332,6180978.0
22:04:56.372,6181074.0
22:04:56.412,6180971.0
22:04:56.452,6181081.0
22:04:56.492,6180946.0
22:04:56.532,6181246.0
22:04:56.572,6181231.0
22:04:56.612,6180666.0
22:04:56.652,6180749.0
22:04:56.692,6182786.0
22:04:56.732,6181672.0
22:04:56.772,6181203.0
22:04:56.812,6181265.0
22:04:56.852,6181301.0
22:04:56.892,6181934.0
22:04:56.932,6181366.0
22:04:56.972,6181233.0
22:04:57.012,6181063.0
22:04:57.052,6180928.0
22:04:57.092,6181036.0
22:04:57.132,6180952.0
22:04:57.172,6181358.0
22:04:57.212,6180939.0
22:04:57.252,6180566.0
22:04:57.292,6180848.0
22:04:57.332,6180771.0
22:04:57.372,6180936.0
22:04:57.412,6180761.0
22:04:57.452,6180704.0
22:04:57.492,6182116.0
22:04:57.532,6179978.0
22:04:57.572,6181137.0
22:04:57.612,6180861.0
22:04:57.652,6181650.0
22:04:57.692,6181440.0
22:04:57.732,6181556.0
22:04:57.772,6180860.0
22:04:57.812,6181075.0
22:04:57.852,6180954.0
22:04:57.892,6180940.0
22:04:57.932,6180939.0
22:04:57.972,6180643.0
22:04:58.012,6180970.0
22:04:58.052,6180799.0
22:04:58.092,6180553.0
22:04:58.132,6180848.0
22:04:58.172,6181073.0
22:04:58.212,6180779.0
22:04:58.252,6180594.0
22:04:58.292,6182513.0
22:04:58.332,6181232.0
22:04:58.372,6181301.0
22:04:58.412,6181004.0
22:04:58.452,6181672.0
22:04:58.492,6182069.0
22:04:58.532,6181611.0
22:04:58.860,6181284.0
22:04:58.900,6181057.0
22:04:58.940,6181383.0
22:04:58.980,6181672.0
22:04:59.020,6180975.0
22:04:59.060,6180946.0
22:04:59.100,6181997.0
22:04:59.140,6179532.0
22:04:59.180,6181301.0
22:04:59.220,6181432.0
22:04:59.260,6181642.0
22:04:59.300,6182151.0
22:04:59.340,6181999.0
22:04:59.380,6181324.0
22:04:59.420,6181051.0
22:04:59.460,6181031.0
22:04:59.500,6181166.0
22:04:59.540,6181191.0
22:04:59.580,6181231.0
22:04:59.620,6180780.0
22:04:59.660,6181163.0
22:04:59.700,6181957.0
22:04:59.740,6181509.0
22:04:59.780,6181029.0
22:04:59.820,6181829.0
22:04:59.860,6181005.0
22:04:59.900,6181392.0
22:04:59.940,6181430.0
22:04:59.980,6181696.0
22:05:00.020,6181663.0
22:05:00.060,6182329.0
22:05:00.100,6181366.0
22:05:00.140,6181012.0
22:05:00.180,6180882.0
22:05:00.220,6181198.0
22:05:00.260,6181161.0
22:05:00.300,6181188.0
22:05:00.340,6181017.0
22:05:00.380,6181211.0
22:05:00.420,6180884.0
22:05:00.460,6181925.0
22:05:00.500,6181200.0
22:05:00.540,6180969.0
22:05:00.580,6181719.0
22:05:00.620,6180437.0
22:05:00.660,6181685.0
22:05:00.700,6181415.0
22:05:00.740,6181649.0
22:05:00.780,6182125.0
22:05:00.820,6182131.0
22:05:00.860,6181582.0
22:05:00.900,6181297.0
22:05:00.940,6181100.0
22:05:00.980,6181283.0
22:05:01.020,6181156.0
22:05:01.060,6181187.0
22:05:01.100,6181306.0
22:05:01.140,6181100.0
22:05:01.180,6181446.0
22:05:01.220,6181604.0
22:05:01.260,6181068.0
22:05:01.300,6181313.0
22:05:01.340,6182428.0
22:05:01.380,6179837.0
22:05:01.420,6181653.0
22:05:01.460,6181473.0
22:05:01.500,6181901.0
22:05:01.540,6182226.0
22:05:01.580,6181910.0
22:05:01.620,6181564.0
22:05:01.660,6181234.0
22:05:01.700,6181355.0
22:05:01.740,6181205.0
22:05:01.780,6181627.0
22:05:01.820,6181294.0
22:05:01.860,6181316.0
22:05:01.900,6181254.0
22:05:01.940,6181263.0
22:05:01.980,6182059.0
22:05:02.020,6181439.0
22:05:02.060,6180988.0
22:05:02.100,6181827.0
22:05:02.140,6181038.0
22:05:02.180,6181375.0
22:05:02.220,6181594.0
22:05:02.260,6181591.0
22:05:02.300,6182192.0
22:05:02.340,6182267.0
22:05:02.380,6181347.0
22:05:02.420,6181369.0
22:05:02.460,6181295.0
22:05:02.500,6181384.0
22:05:02.540,6181328.0
22:05:02.580,6181410.0
22:05:02.620,6181299.0
22:05:02.660,6181259.0
22:05:02.700,6181224.0
22:05:02.740,6181299.0
22:05:02.780,6181770.0
22:05:02.820,6181631.0
22:05:03.129,6181204.0
22:05:03.169,6182362.0
22:05:03.209,6182372.0
22:05:03.249,6181801.0
22:05:03.289,6181507.0
22:05:03.329,6181576.0
22:05:03.369,6181675.0
22:05:03.409,6181838.0
22:05:03.449,6181782.0
22:05:03.489,6181402.0
22:05:03.529,6181472.0
22:05:03.569,6181509.0
22:05:03.609,6181492.0
22:05:03.649,6181964.0
22:05:03.689,6181464.0
22:05:03.729,6181365.0
22:05:03.769,6183160.0
22:05:03.809,6182293.0
22:05:03.849,6181679.0
22:05:03.889,6181793.0
22:05:03.929,6182276.0
22:05:03.969,6182451.0
22:05:04.009,6182227.0
22:05:04.049,6181675.0
22:05:04.089,6181430.0
22:05:04.129,6181770.0
22:05:04.169,6181611.0
22:05:04.209,6181531.0
22:05:04.249,6181722.0
22:05:04.289,6181664.0
22:05:04.329,6181529.0
22:05:04.369,6181425.0
22:05:04.409,6181307.0
22:05:04.449,6182037.0
22:05:04.489,6181620.0
22:05:04.529,6181245.0
22:05:04.569,6181676.0
22:05:04.609,6181031.0
22:05:04.649,6181464.0
22:05:04.689,6181774.0
22:05:04.729,6182187.0
22:05:04.769,6182284.0
22:05:04.809,6182290.0
22:05:04.849,6181364.0
22:05:04.889,6181564.0
22:05:04.929,6181333.0
22:05:04.969,6181549.0
22:05:05.009,6181595.0
22:05:05.049,6181801.0
22:05:05.089,6181490.0
22:05:05.129,6181463.0
22:05:05.169,6181413.0
22:05:05.209,6181353.0
22:05:05.249,6181760.0
22:05:05.289,6181627.0
22:05:05.329,6181004.0
22:05:05.369,6181179.0
22:05:05.409,6183365.0
22:05:05.449,6181787.0
22:05:05.489,6181576.0
22:05:05.529,6181621.0
22:05:05.569,6182162.0
22:05:05.609,6182968.0
22:05:05.649,6181972.0
22:05:05.689,6181778.0
22:05:05.729,6181473.0
22:05:05.769,6181592.0
22:05:05.809,6181741.0
22:05:05.849,6181942.0
22:05:05.889,6181592.0
22:05:05.929,6181702.0
22:05:05.969,6181749.0
22:05:06.009,6182341.0
22:05:06.049,6181976.0
22:05:06.089,6181673.0
22:05:06.129,6182254.0
22:05:06.169,6181622.0
22:05:06.209,6181931.0
22:05:06.249,6181901.0
22:05:06.289,6182287.0
22:05:06.329,6182463.0
22:05:06.369,6182727.0
22:05:06.409,6182049.0
22:05:06.449,6181659.0
22:05:06.489,6181883.0
22:05:06.529,6181869.0
22:05:06.569,6181872.0
22:05:06.609,6181741.0
22:05:06.649,6181797.0
22:05:06.689,6181762.0
22:05:06.729,6182056.0
22:05:06.769,6182090.0
22:05:06.809,6181495.0
22:05:06.849,6181857.0
22:05:06.889,6181702.0
22:05:06.929,6181873.0
22:05:06.969,6181828.0
22:05:07.009,6182094.0
22:05:07.049,6182060.0
22:05:07.089,6182576.0
22:05:07.554,6182084.0
22:05:07.594,6181677.0
22:05:07.634,6181573.0
22:05:07.674,6181619.0
22:05:07.714,6181459.0
22:05:07.754,6181424.0
22:05:07.794,6181722.0
22:05:07.834,6182132.0
22:05:07.874,6181689.0
22:05:07.914,6181340.0
22:05:07.954,6182465.0
22:05:07.994,6180379.0
22:05:08.034,6181811.0
22:05:08.074,6181706.0
22:05:08.114,6182054.0
22:05:08.154,6182546.0
22:05:08.194,6182463.0
22:05:08.234,6181431.0
22:05:08.274,6181549.0
22:05:08.314,6181521.0
22:05:08.354,6181666.0
22:05:08.394,6181789.0
22:05:08.434,6181755.0
22:05:08.474,6181724.0
22:05:08.514,6181748.0
22:05:08.554,6181728.0
22:05:08.594,6182272.0
22:05:08.634,6182021.0
22:05:08.674,6181616.0
22:05:08.714,6182218.0
22:05:08.754,6181308.0
22:05:08.794,6182000.0
22:05:08.834,6181838.0
22:05:08.874,6182264.0
22:05:08.914,6182560.0
22:05:08.954,6182836.0
22:05:08.994,6182093.0
22:05:09.034,6181751.0
22:05:09.074,6181808.0
22:05:09.114,6181495.0
22:05:09.154,6181856.0
22:05:09.194,6181473.0
22:05:09.234,6181833.0
22:05:09.274,6181782.0
22:05:09.314,6181987.0
22:05:09.354,6181867.0
22:05:09.394,6182208.0
22:05:09.434,6181805.0
22:05:09.474,6181393.0
22:05:09.514,6182710.0
22:05:09.554,6180162.0
22:05:09.594,6181912.0
22:05:09.634,6181996.0
22:05:09.674,6182096.0
22:05:09.714,6182417.0
22:05:09.754,6182504.0
22:05:09.794,6181823.0
22:05:09.834,6181497.0
22:05:09.874,6181363.0
22:05:09.914,6181583.0
22:05:09.954,6181760.0
22:05:09.994,6181615.0
22:05:10.034,6181554.0
22:05:10.074,6181348.0
22:05:10.114,6181768.0
22:05:10.154,6181657.0
22:05:10.194,6181930.0
22:05:10.234,6181527.0
22:05:10.274,6181123.0
22:05:10.314,6183341.0
22:05:10.354,6181592.0
22:05:10.394,6181663.0
22:05:10.434,6181968.0
22:05:10.474,6182011.0
22:05:10.514,6182436.0
22:05:10.554,6182266.0
22:05:10.594,6181541.0
22:05:10.634,6181282.0
22:05:10.674,6181419.0
22:05:10.714,6181331.0
22:05:10.754,6181628.0
22:05:10.794,6181517.0
22:05:10.834,6181454.0
22:05:10.874,6181505.0
22:05:10.914,6181750.0
22:05:10.954,6181666.0
22:05:10.994,6181455.0
22:05:11.034,6181437.0
22:05:11.074,6182439.0
22:05:11.114,6181882.0
22:05:11.154,6181883.0
22:05:11.194,6182122.0
22:05:11.234,6182416.0
22:05:11.274,6182739.0
22:05:11.314,6182087.0
22:05:11.354,6181681.0
22:05:11.394,6180772.0
22:05:11.434,6181916.0
22:05:11.474,6181764.0
22:05:11.514,6181590.0
22:05:11.824,6181593.0
22:05:11.864,6181917.0
22:05:11.904,6182182.0
22:05:11.944,6182529.0
22:05:11.984,6182661.0
22:05:12.024,6181856.0
22:05:12.064,6181565.0
22:05:12.104,6181508.0
22:05:12.144,6181512.0
22:05:12.184,6181639.0
22:05:12.224,6181580.0
22:05:12.264,6181517.0
22:05:12.304,6181835.0
22:05:12.344,6181533.0
22:05:12.384,6182014.0
22:05:12.424,6181506.0
22:05:12.464,6181332.0
22:05:12.504,6183176.0
22:05:12.544,6180824.0
22:05:12.584,6182102.0
22:05:12.624,6182039.0
22:05:12.664,6182220.0
22:05:12.704,6182686.0
22:05:12.744,6182314.0
22:05:12.784,6181663.0
22:05:12.824,6181637.0
22:05:12.864,6181404.0
22:05:12.904,6181599.0
22:05:12.944,6181676.0
22:05:12.984,6181585.0
22:05:13.024,6181232.0
22:05:13.064,6181475.0
22:05:13.104,6181673.0
22:05:13.144,6181987.0
22:05:13.184,6181420.0
22:05:13.224,6181465.0
22:05:13.264,6182857.0
22:05:13.304,6179110.0
22:05:13.344,6181869.0
22:05:13.384,6182109.0
22:05:13.424,6182062.0
22:05:13.464,6182755.0
22:05:13.504,6182628.0
22:05:13.544,6181598.0
22:05:13.584,6181214.0
22:05:13.624,6181705.0
22:05:13.664,6181550.0
22:05:13.704,6182319.0
22:05:13.744,6181706.0
22:05:13.784,6182195.0
22:05:13.824,6182097.0
22:05:13.864,6182768.0
22:05:13.904,6181742.0
22:05:13.944,6181134.0
22:05:13.984,6183213.0
22:05:14.024,6180441.0
22:05:14.064,6182575.0
22:05:14.104,6182228.0
22:05:14.144,6182657.0
22:05:14.184,6183425.0
22:05:14.224,6183198.0
22:05:14.264,6181726.0
22:05:14.304,6182256.0
22:05:14.344,6181865.0
22:05:14.384,6182629.0
22:05:14.424,6181366.0
22:05:14.464,6182282.0
22:05:14.504,6182094.0
22:05:14.544,6182279.0
22:05:14.584,6182997.0
22:05:14.624,6182147.0
22:05:14.664,6182111.0
22:05:14.704,6184157.0
22:05:14.744,6182561.0
22:05:14.784,6182282.0
22:05:14.824,6182567.0
22:05:14.864,6182872.0
22:05:14.904,6183267.0
22:05:14.944,6182708.0
22:05:14.984,6182572.0
22:05:15.024,6182123.0
22:05:15.064,6182215.0
22:05:15.104,6182213.0
22:05:15.144,6182559.0
22:05:15.184,6182208.0
22:05:15.224,6182244.0
22:05:15.264,6183055.0
22:05:15.304,6182390.0
22:05:15.344,6182391.0
22:05:15.384,6182623.0
22:05:15.424,6181484.0
22:05:15.464,6182285.0
22:05:15.504,6182297.0
22:05:15.544,6182867.0
22:05:15.584,6183019.0
22:05:15.624,6182842.0
22:05:15.664,6182682.0
22:05:15.704,6182078.0
22:05:15.744,6182117.0
22:05:15.784,6182268.0
22:05:16.300,6182325.0
22:05:16.340,6181863.0
22:05:16.380,6182312.0
22:05:16.420,6181466.0
22:05:16.460,6182504.0
22:05:16.500,6182325.0
22:05:16.540,6182973.0
22:05:16.580,6183025.0
22:05:16.620,6183126.0
22:05:16.660,6182526.0
22:05:16.700,6182171.0
22:05:16.740,6182063.0
22:05:16.780,6182256.0
22:05:16.820,6182289.0
22:05:16.860,6182186.0
22:05:16.900,6181908.0
22:05:16.940,6181942.0
22:05:16.980,6182229.0
22:05:17.020,6182407.0
22:05:17.060,6181848.0
22:05:17.100,6182006.0
22:05:17.140,6183935.0
22:05:17.180,6182113.0
22:05:17.220,6182387.0
22:05:17.260,6182597.0
22:05:17.300,6182679.0
22:05:17.340,6183136.0
22:05:17.380,6182735.0
22:05:17.420,6182299.0
22:05:17.460,6182106.0
22:05:17.500,6182187.0
22:05:17.540,6182264.0
22:05:17.580,6182254.0
22:05:17.620,6182179.0
22:05:17.660,6182198.0
22:05:17.700,6182223.0
22:05:17.740,6182539.0
22:05:17.780,6182253.0
22:05:17.820,6181973.0
22:05:17.860,6183256.0
22:05:17.900,6180602.0
22:05:17.940,6182257.0
22:05:17.980,6182568.0
22:05:18.020,6182806.0
22:05:18.060,6183232.0
22:05:18.100,6183192.0
22:05:18.140,6182628.0
22:05:18.180,6182510.0
22:05:18.220,6182317.0
22:05:18.260,6182676.0
22:05:18.300,6182571.0
22:05:18.340,6182417.0
22:05:18.380,6182510.0
22:05:18.420,6182469.0
22:05:18.460,6182775.0
22:05:18.500,6182296.0
22:05:18.540,6182230.0
22:05:18.580,6183368.0
22:05:18.620,6180710.0
22:05:18.660,6182475.0
22:05:18.700,6182585.0
22:05:18.740,6182851.0
22:05:18.780,6183252.0
22:05:18.820,6182924.0
22:05:18.860,6182422.0
22:05:18.900,6182390.0
22:05:18.940,6182399.0
22:05:18.980,6182424.0
22:05:19.020,6182492.0
22:05:19.060,6182247.0
22:05:19.100,6182087.0
22:05:19.140,6182258.0
22:05:19.180,6182570.0
22:05:19.220,6182472.0
22:05:19.260,6182274.0
22:05:19.300,6181998.0
22:05:19.340,6183701.0
22:05:19.380,6182465.0
22:05:19.420,6182359.0
22:05:19.460,6182741.0
22:05:19.500,6183033.0
22:05:19.540,6182831.0
22:05:19.580,6182618.0
22:05:19.620,6182210.0
22:05:19.660,6181954.0
22:05:19.700,6182145.0
22:05:19.740,6182352.0
22:05:19.780,6182278.0
22:05:19.820,6182322.0
22:05:19.860,6182214.0
22:05:19.900,6182105.0
22:05:19.940,6182705.0
22:05:19.980,6182439.0
22:05:20.020,6181912.0
22:05:20.060,6182230.0
22:05:20.100,6182125.0
22:05:20.140,6182201.0
22:05:20.180,6182534.0
22:05:20.220,6182642.0
22:05:20.260,6182563.0
22:05:20.619,6183296.0
22:05:20.659,6182684.0
22:05:20.699,6182204.0
22:05:20.739,6182112.0
22:05:20.779,6183571.0
22:05:20.819,6181465.0
22:05:20.859,6182621.0
22:05:20.899,6182811.0
22:05:20.939,6183205.0
22:05:20.979,6183567.0
22:05:21.019,6183156.0
22:05:21.059,6182496.0
22:05:21.099,6182490.0
22:05:21.139,6182383.0
22:05:21.179,6182491.0
22:05:21.219,6182255.0
22:05:21.259,6182485.0
22:05:21.299,6182257.0
22:05:21.339,6182453.0
22:05:21.379,6182313.0
22:05:21.419,6182596.0
22:05:21.459,6182107.0
22:05:21.499,6182139.0
22:05:21.539,6183987.0
22:05:21.579,6182377.0
22:05:21.619,6182580.0
22:05:21.659,6182666.0
22:05:21.699,6183108.0
22:05:21.739,6183339.0
22:05:21.779,6183044.0
22:05:21.819,6182453.0
22:05:21.859,6182384.0
22:05:21.899,6182209.0
22:05:21.939,6182416.0
22:05:21.979,6182455.0
22:05:22.019,6182318.0
22:05:22.059,6182244.0
22:05:22.099,6182137.0
22:05:22.139,6182162.0
22:05:22.179,6182689.0
22:05:22.219,6182584.0
22:05:22.259,6182002.0
22:05:22.299,6182207.0
22:05:22.339,6183079.0
22:05:22.379,6182618.0
22:05:22.419,6182458.0
22:05:22.459,6182799.0
22:05:22.499,6183189.0
22:05:22.539,6183384.0
22:05:22.579,6182785.0
22:05:22.619,6182214.0
22:05:22.659,6182465.0
22:05:22.699,6182502.0
22:05:22.739,6182633.0
22:05:22.779,6182569.0
22:05:22.819,6182409.0
22:05:22.859,6182464.0
22:05:22.899,6182298.0
22:05:22.939,6182533.0
22:05:22.979,6182702.0
22:05:23.019,6182285.0
22:05:23.059,6182019.0
22:05:23.099,6183722.0
22:05:23.139,6180593.0
22:05:23.179,6182683.0
22:05:23.219,6182826.0
22:05:23.259,6182976.0
22:05:23.299,6183691.0
22:05:23.339,6183425.0
22:05:23.379,6182763.0
22:05:23.419,6182514.0
22:05:23.459,6182441.0
22:05:23.499,6182683.0
22:05:23.539,6182718.0
22:05:23.579,6182556.0
22:05:23.619,6182541.0
22:05:23.659,6182542.0
22:05:23.699,6182556.0
22:05:23.739,6182948.0
22:05:23.779,6182458.0
22:05:23.819,6182315.0
22:05:23.859,6184151.0
22:05:23.899,6181516.0
22:05:23.939,6182740.0
22:05:23.979,6183205.0
22:05:24.019,6183280.0
22:05:24.059,6183674.0
22:05:24.099,6183631.0
22:05:24.139,6182806.0
22:05:24.179,6182660.0
22:05:24.219,6182678.0
22:05:24.259,6182540.0
22:05:24.299,6182552.0
22:05:24.339,6182692.0
22:05:24.379,6182525.0
22:05:24.419,6182531.0
22:05:24.459,6183026.0
22:05:24.499,6182926.0
22:05:24.539,6182337.0
22:05:24.579,6182493.0
22:05:24.862,6183105.0
22:05:24.902,6183232.0
22:05:24.942,6182766.0
22:05:24.982,6182737.0
22:05:25.022,6182759.0
22:05:25.062,6182830.0
22:05:25.102,6182883.0
22:05:25.142,6182754.0
22:05:25.182,6182849.0
22:05:25.222,6182947.0
22:05:25.262,6182741.0
22:05:25.302,6182651.0
22:05:25.342,6182492.0
22:05:25.382,6184372.0
22:05:25.422,6182852.0
22:05:25.462,6182867.0
22:05:25.502,6183121.0
22:05:25.542,6183413.0
22:05:25.582,6183871.0
22:05:25.622,6183196.0
22:05:25.662,6182959.0
22:05:25.702,6182722.0
22:05:25.742,6182860.0
22:05:25.782,6183057.0
22:05:25.822,6182844.0
22:05:25.862,6182989.0
22:05:25.902,6182963.0
22:05:25.942,6183273.0
22:05:25.982,6183247.0
22:05:26.022,6182860.0
22:05:26.062,6183031.0
22:05:26.102,6183643.0
22:05:26.142,6183187.0
22:05:26.182,6183156.0
22:05:26.222,6183329.0
22:05:26.262,6183730.0
22:05:26.302,6184029.0
22:05:26.342,6183572.0
22:05:26.382,6182973.0
22:05:26.422,6182985.0
22:05:26.462,6182922.0
22:05:26.502,6182856.0
22:05:26.542,6183097.0
22:05:26.582,6182886.0
22:05:26.622,6182999.0
22:05:26.662,6182825.0
22:05:26.702,6183546.0
22:05:26.742,6183171.0
22:05:26.782,6182897.0
22:05:26.822,6183400.0
22:05:26.862,6182687.0
22:05:26.902,6183084.0
22:05:26.942,6183070.0
22:05:26.982,6183554.0
22:05:27.022,6183564.0
22:05:27.062,6183777.0
22:05:27.102,6183095.0
22:05:27.142,6182752.0
22:05:27.182,6182752.0
22:05:27.222,6182878.0
22:05:27.262,6182940.0
22:05:27.302,6182811.0
22:05:27.342,6182738.0
22:05:27.382,6182858.0
22:05:27.422,6182874.0
22:05:27.462,6183487.0
22:05:27.502,6182961.0
22:05:27.542,6182773.0
22:05:27.582,6183426.0
22:05:27.622,6182346.0
22:05:27.662,6183061.0
22:05:27.702,6183127.0
22:05:27.742,6183363.0
22:05:27.782,6183657.0
22:05:27.822,6183693.0
22:05:27.862,6183169.0
22:05:27.902,6182803.0
22:05:27.942,6182616.0
22:05:27.982,6182971.0
22:05:28.022,6182963.0
22:05:28.062,6182840.0
22:05:28.102,6182747.0
22:05:28.142,6182883.0
22:05:28.182,6182817.0
22:05:28.222,6183015.0
22:05:28.262,6183555.0
22:05:28.302,6182822.0
22:05:28.342,6182872.0
22:05:28.382,6183644.0
22:05:28.422,6182250.0
22:05:28.462,6183104.0
22:05:28.502,6183526.0
22:05:28.542,6183387.0
22:05:28.582,6183693.0
22:05:28.622,6183845.0
22:05:28.662,6183170.0
22:05:28.702,6182911.0
22:05:28.742,6182918.0
22:05:28.782,6183036.0
22:05:28.822,6182831.0
22:05:29.155,6183165.0
22:05:29.195,6183152.0
22:05:29.235,6182716.0
22:05:29.275,6183434.0
22:05:29.315,6182358.0
22:05:29.355,6183160.0
22:05:29.395,6183373.0
22:05:29.435,6183805.0
22:05:29.475,6183985.0
22:05:29.515,6184197.0
22:05:29.555,6183492.0
22:05:29.595,6183177.0
22:05:29.635,6182702.0
22:05:29.675,6183258.0
22:05:29.715,6183101.0
22:05:29.755,6182723.0
22:05:29.795,6183066.0
22:05:29.835,6183047.0
22:05:29.875,6183510.0
22:05:29.915,6183376.0
22:05:29.955,6182705.0
22:05:29.995,6182876.0
22:05:30.035,6183817.0
22:05:30.075,6183036.0
22:05:30.115,6183011.0
22:05:30.155,6183478.0
22:05:30.195,6183765.0
22:05:30.235,6184175.0
22:05:30.275,6183578.0
22:05:30.315,6183151.0
22:05:30.355,6183021.0
22:05:30.395,6183126.0
22:05:30.435,6183215.0
22:05:30.475,6183107.0
22:05:30.515,6182968.0
22:05:30.555,6183291.0
22:05:30.595,6183266.0
22:05:30.635,6183660.0
22:05:30.675,6183162.0
22:05:30.715,6182919.0
22:05:30.755,6184794.0
22:05:30.795,6182962.0
22:05:30.835,6183292.0
22:05:30.875,6183459.0
22:05:30.915,6183772.0
22:05:30.955,6183973.0
22:05:30.995,6183839.0
22:05:31.035,6183382.0
22:05:31.075,6183132.0
22:05:31.115,6183308.0
22:05:31.155,6183246.0
22:05:31.195,6183379.0
22:05:31.235,6183416.0
22:05:31.275,6183465.0
22:05:31.315,6183327.0
22:05:31.355,6183253.0
22:05:31.395,6183702.0
22:05:31.435,6183618.0
22:05:31.475,6183291.0
22:05:31.515,6183230.0
22:05:31.555,6183804.0
22:05:31.595,6183462.0
22:05:31.635,6183424.0
22:05:31.675,6183771.0
22:05:31.715,6183970.0
22:05:31.755,6184269.0
22:05:31.795,6183700.0
22:05:31.835,6183265.0
22:05:31.875,6183244.0
22:05:31.915,6183463.0
22:05:31.955,6183545.0
22:05:31.995,6183545.0
22:05:32.035,6183418.0
22:05:32.075,6183633.0
22:05:32.115,6183492.0
22:05:32.155,6184063.0
22:05:32.195,6183669.0
22:05:32.235,6183256.0
22:05:32.275,6184535.0
22:05:32.315,6181828.0
22:05:32.355,6183658.0
22:05:32.395,6183573.0
22:05:32.435,6184090.0
22:05:32.475,6184110.0
22:05:32.515,6184416.0
22:05:32.555,6183523.0
22:05:32.595,6183421.0
22:05:32.635,6183274.0
22:05:32.675,6183550.0
22:05:32.715,6183663.0
22:05:32.755,6183661.0
22:05:32.795,6183498.0
22:05:32.835,6183424.0
22:05:32.875,6183639.0
22:05:32.915,6183984.0
22:05:32.955,6183494.0
22:05:32.995,6183664.0
22:05:33.035,6185505.0
22:05:33.075,6184222.0
22:05:33.115,6183982.0
22:05:34.750,6183982.0
22:05:34.790,6183699.0
22:05:34.830,6183587.0
22:05:34.870,6183790.0
22:05:34.910,6183637.0
22:05:34.950,6183566.0
22:05:34.990,6184380.0
22:05:35.030,6183718.0
22:05:35.070,6183002.0
22:05:35.110,6184348.0
22:05:35.150,6182881.0
22:05:35.190,6183687.0
22:05:35.230,6183756.0
22:05:35.270,6184141.0
22:05:35.310,6184248.0
22:05:35.350,6184479.0
22:05:35.390,6183729.0
22:05:35.430,6183580.0
22:05:35.470,6183484.0
22:05:35.510,6183650.0
22:05:35.550,6183523.0
22:05:35.590,6183562.0
22:05:35.630,6183558.0
22:05:35.670,6183837.0
22:05:35.710,6184058.0
22:05:35.750,6183510.0
22:05:35.790,6183561.0
22:05:35.830,6184746.0
22:05:35.870,6182552.0
22:05:35.910,6183377.0
22:05:35.950,6183969.0
22:05:35.990,6184211.0
22:05:36.030,6184403.0
22:05:36.070,6184261.0
22:05:36.110,6183727.0
22:05:36.150,6183462.0
22:05:36.190,6183336.0
22:05:36.230,6183628.0
22:05:36.270,6183671.0
22:05:36.310,6183610.0
22:05:36.350,6183724.0
22:05:36.390,6183466.0
22:05:36.430,6183822.0
22:05:36.470,6183516.0
22:05:36.510,6183405.0
22:05:36.550,6184706.0
22:05:36.590,6183081.0
22:05:36.630,6183803.0
22:05:36.670,6183937.0
22:05:36.710,6184125.0
22:05:36.750,6184530.0
22:05:36.790,6184225.0
22:05:36.830,6183604.0
22:05:36.870,6183509.0
22:05:36.910,6183623.0
22:05:36.950,6183587.0
22:05:36.990,6183692.0
22:05:37.030,6183577.0
22:05:37.070,6183446.0
22:05:37.110,6184129.0
22:05:37.150,6183754.0
22:05:37.190,6183301.0
22:05:37.230,6183994.0
22:05:37.270,6182604.0
22:05:37.310,6183802.0
22:05:37.350,6183941.0
22:05:37.390,6184101.0
22:05:37.430,6184391.0
22:05:37.470,6184487.0
22:05:37.510,6184013.0
22:05:37.550,6183527.0
22:05:37.590,6183239.0
22:05:37.630,6183718.0
22:05:37.670,6183653.0
22:05:37.710,6183657.0
22:05:37.750,6183596.0
22:05:37.790,6183707.0
22:05:37.830,6183959.0
22:05:37.870,6183728.0
22:05:37.910,6183497.0
22:05:37.950,6185099.0
22:05:37.990,6182322.0
22:05:38.030,6183909.0
22:05:38.070,6183915.0
22:05:38.110,6184592.0
22:05:38.150,6184824.0
22:05:38.190,6184516.0
22:05:38.230,6184141.0
22:05:38.270,6183834.0
22:05:38.310,6183973.0
22:05:38.350,6183856.0
22:05:38.390,6183835.0
22:05:38.430,6183647.0
22:05:38.470,6183990.0
22:05:38.510,6184117.0
22:05:38.550,6183748.0
22:05:38.590,6183748.0
22:05:38.630,6185311.0
22:05:38.670,6183866.0
22:05:38.710,6184146.0
22:05:39.090,6184233.0
22:05:39.130,6184892.0
22:05:39.170,6184675.0
22:05:39.210,6184118.0
22:05:39.250,6183788.0
22:05:39.290,6183851.0
22:05:39.330,6184049.0
22:05:39.370,6184090.0
22:05:39.410,6183933.0
22:05:39.450,6183802.0
22:05:39.490,6183886.0
22:05:39.530,6183979.0
22:05:39.570,6184490.0
22:05:39.610,6184049.0
22:05:39.650,6183975.0
22:05:39.690,6184950.0
22:05:39.730,6182618.0
22:05:39.770,6184388.0
22:05:39.810,6184480.0
22:05:39.850,6184911.0
22:05:39.890,6185302.0
22:05:39.930,6185025.0
22:05:39.970,6184459.0
22:05:40.010,6184164.0
22:05:40.050,6184265.0
22:05:40.090,6184439.0
22:05:40.130,6184119.0
22:05:40.170,6184158.0
22:05:40.210,6184365.0
22:05:40.250,6184325.0
22:05:40.290,6184777.0
22:05:40.330,6184085.0
22:05:40.370,6184115.0
22:05:40.410,6185578.0
22:05:40.450,6183379.0
22:05:40.490,6184668.0
22:05:40.530,6184924.0
22:05:40.570,6184961.0
22:05:40.610,6185367.0
22:05:40.650,6185208.0
22:05:40.690,6184619.0
22:05:40.730,6184439.0
22:05:40.770,6184342.0
22:05:40.810,6184362.0
22:05:40.850,6184514.0
22:05:40.890,6184298.0
22:05:40.930,6184325.0
22:05:40.970,6184327.0
22:05:41.010,6184561.0
22:05:41.050,6184242.0
22:05:41.090,6184215.0
22:05:41.130,6186193.0
22:05:41.170,6184708.0
22:05:41.210,6184588.0
22:05:41.250,6184788.0
22:05:41.290,6184817.0
22:05:41.330,6185244.0
22:05:41.370,6184998.0
22:05:41.410,6184394.0
22:05:41.450,6184094.0
22:05:41.490,6184353.0
22:05:41.530,6184429.0
22:05:41.570,6184366.0
22:05:41.610,6184317.0
22:05:41.650,6184090.0
22:05:41.690,6184142.0
22:05:41.730,6184858.0
22:05:41.770,6184360.0
22:05:41.810,6183856.0
22:05:41.850,6184815.0
22:05:41.890,6183699.0
22:05:41.930,6184516.0
22:05:41.970,6184814.0
22:05:42.010,6184881.0
22:05:42.050,6185149.0
22:05:42.090,6185332.0
22:05:42.130,6184710.0
22:05:42.170,6184358.0
22:05:42.210,6184466.0
22:05:42.250,6184411.0
22:05:42.290,6184606.0
22:05:42.330,6184398.0
22:05:42.370,6184382.0
22:05:42.410,6184455.0
22:05:42.450,6184934.0
22:05:42.490,6184671.0
22:05:42.530,6184235.0
22:05:42.570,6184390.0
22:05:42.610,6184371.0
22:05:42.650,6184620.0
22:05:42.690,6184846.0
22:05:42.730,6185067.0
22:05:42.770,6185352.0
22:05:42.810,6185462.0
22:05:42.850,6184916.0
22:05:42.890,6184560.0
22:05:42.930,6184354.0
22:05:42.970,6184780.0
22:05:43.010,6184541.0
22:05:43.050,6184382.0
22:05:43.394,6184579.0
22:05:43.434,6185652.0
22:05:43.474,6185117.0
22:05:43.514,6184708.0
22:05:43.554,6184656.0
22:05:43.594,6185269.0
22:05:43.634,6185395.0
22:05:43.674,6184972.0
22:05:43.714,6184573.0
22:05:43.754,6184579.0
22:05:43.794,6184521.0
22:05:43.834,6184746.0
22:05:43.874,6184443.0
22:05:43.914,6184589.0
22:05:43.954,6184382.0
22:05:43.994,6184282.0
22:05:44.034,6184690.0
22:05:44.074,6184523.0
22:05:44.114,6184097.0
22:05:44.154,6184149.0
22:05:44.194,6186189.0
22:05:44.234,6184547.0
22:05:44.274,6184416.0
22:05:44.314,6185045.0
22:05:44.354,6185063.0
22:05:44.394,6185476.0
22:05:44.434,6184958.0
22:05:44.474,6184581.0
22:05:44.514,6184268.0
22:05:44.554,6184350.0
22:05:44.594,6184559.0
22:05:44.634,6184372.0
22:05:44.674,6184486.0
22:05:44.714,6184182.0
22:05:44.754,6184460.0
22:05:44.794,6184683.0
22:05:44.834,6184611.0
22:05:44.874,6184130.0
22:05:44.914,6184463.0
22:05:44.954,6186125.0
22:05:44.994,6184609.0
22:05:45.034,6184860.0
22:05:45.074,6184760.0
22:05:45.114,6185326.0
22:05:45.154,6185619.0
22:05:45.194,6185008.0
22:05:45.234,6184866.0
22:05:45.274,6184624.0
22:05:45.314,6184453.0
22:05:45.354,6184721.0
22:05:45.394,6184663.0
22:05:45.434,6184714.0
22:05:45.474,6184890.0
22:05:45.514,6184594.0
22:05:45.554,6184556.0
22:05:45.594,6185065.0
22:05:45.634,6184540.0
22:05:45.674,6184327.0
22:05:45.714,6185287.0
22:05:45.754,6182956.0
22:05:45.794,6184566.0
22:05:45.834,6184779.0
22:05:45.874,6185192.0
22:05:45.914,6185277.0
22:05:45.954,6185380.0
22:05:45.994,6184580.0
22:05:46.034,6184358.0
22:05:46.074,6184527.0
22:05:46.114,6184562.0
22:05:46.154,6184663.0
22:05:46.194,6184595.0
22:05:46.234,6184491.0
22:05:46.274,6184538.0
22:05:46.314,6184626.0
22:05:46.354,6185032.0
22:05:46.394,6184635.0
22:05:46.434,6184274.0
22:05:46.474,6185149.0
22:05:46.514,6183608.0
22:05:46.554,6184643.0
22:05:46.594,6184735.0
22:05:46.634,6184826.0
22:05:46.674,6185313.0
22:05:46.714,6185460.0
22:05:46.754,6184779.0
22:05:46.794,6184483.0
22:05:46.834,6184394.0
22:05:46.874,6184577.0
22:05:46.914,6184623.0
22:05:46.954,6184533.0
22:05:46.994,6184360.0
22:05:47.034,6184379.0
22:05:47.074,6184374.0
22:05:47.114,6184788.0
22:05:47.154,6184797.0
22:05:47.194,6184346.0
22:05:47.234,6184484.0
22:05:47.274,6184535.0
22:05:47.314,6184697.0
22:05:47.354,6184659.0
22:05:47.686,6184892.0
22:05:47.726,6184517.0
22:05:47.766,6184735.0
22:05:47.806,6184539.0
22:05:47.846,6184238.0
22:05:47.886,6184558.0
22:05:47.926,6184468.0
22:05:47.966,6184939.0
22:05:48.006,6184615.0
22:05:48.046,6184439.0
22:05:48.086,6186023.0
22:05:48.126,6184329.0
22:05:48.166,6185131.0
22:05:48.206,6185142.0
22:05:48.246,6185287.0
22:05:48.286,6185884.0
22:05:48.326,6185505.0
22:05:48.366,6184954.0
22:05:48.406,6184674.0
22:05:48.446,6184885.0
22:05:48.486,6184821.0
22:05:48.526,6184837.0
22:05:48.566,6184755.0
22:05:48.606,6184609.0
22:05:48.646,6184667.0
22:05:48.686,6185309.0
22:05:48.726,6184611.0
22:05:48.766,6184501.0
22:05:48.806,6185453.0
22:05:48.846,6183631.0
22:05:48.886,6184797.0
22:05:48.926,6184903.0
22:05:48.966,6185118.0
22:05:49.006,6185523.0
22:05:49.046,6185501.0
22:05:49.086,6184793.0
22:05:49.126,6184485.0
22:05:49.166,6184454.0
22:05:49.206,6184599.0
22:05:49.246,6184621.0
22:05:49.286,6184600.0
22:05:49.326,6184576.0
22:05:49.366,6184398.0
22:05:49.406,6185139.0
22:05:49.446,6184583.0
22:05:49.486,6184257.0
22:05:49.526,6184929.0
22:05:49.566,6183889.0
22:05:49.606,6184528.0
22:05:49.646,6184664.0
22:05:49.686,6185018.0
22:05:49.726,6185424.0
22:05:49.766,6185401.0
22:05:49.806,6184773.0
22:05:49.846,6184535.0
22:05:49.886,6184476.0
22:05:49.926,6184537.0
22:05:49.966,6184629.0
22:05:50.006,6184605.0
22:05:50.046,6184753.0
22:05:50.086,6184994.0
22:05:50.126,6184949.0
22:05:50.166,6184462.0
22:05:50.206,6184518.0
22:05:50.246,6184920.0
22:05:50.286,6184815.0
22:05:50.326,6184858.0
22:05:50.366,6184910.0
22:05:50.406,6185227.0
22:05:50.446,6185381.0
22:05:50.486,6184975.0
22:05:50.526,6184538.0
22:05:50.566,6184368.0
22:05:50.606,6184557.0
22:05:50.646,6184526.0
22:05:50.686,6184572.0
22:05:50.726,6184548.0
22:05:50.766,6185048.0
22:05:50.806,6184644.0
22:05:50.846,6184292.0
22:05:50.886,6184841.0
22:05:50.926,6184088.0
22:05:50.966,6184738.0
22:05:51.006,6184668.0
22:05:51.046,6185101.0
22:05:51.086,6185385.0
22:05:51.126,6185459.0
22:05:51.166,6184883.0
22:05:51.206,6184529.0
22:05:51.246,6184504.0
22:05:51.286,6184458.0
22:05:51.326,6184734.0
22:05:51.366,6184539.0
22:05:51.406,6184669.0
22:05:51.446,6185252.0
22:05:51.486,6184776.0
22:05:51.526,6184511.0
22:05:51.566,6185126.0
22:05:51.606,6184659.0
22:05:51.646,6185057.0
22:05:51.965,6185121.0
22:05:52.005,6184833.0
22:05:52.045,6184939.0
22:05:52.085,6184986.0
22:05:52.125,6184945.0
22:05:52.165,6185027.0
22:05:52.205,6185220.0
22:05:52.245,6184863.0
22:05:52.285,6184782.0
22:05:52.325,6186375.0
22:05:52.365,6185278.0
22:05:52.405,6185284.0
22:05:52.445,6185405.0
22:05:52.485,6185582.0
22:05:52.525,6185744.0
22:05:52.565,6185507.0
22:05:52.605,6184997.0
22:05:52.645,6184847.0
22:05:52.685,6184910.0
22:05:52.725,6184902.0
22:05:52.765,6184929.0
22:05:52.805,6184832.0
22:05:52.845,6184795.0
22:05:52.885,6184829.0
22:05:52.925,6185050.0
22:05:52.965,6184575.0
22:05:53.005,6184556.0
22:05:53.045,6186363.0
22:05:53.085,6185268.0
22:05:53.125,6184893.0
22:05:53.165,6185259.0
22:05:53.205,6185384.0
22:05:53.245,6185617.0
22:05:53.285,6185372.0
22:05:53.325,6184984.0
22:05:53.365,6184779.0
22:05:53.405,6184811.0
22:05:53.445,6184866.0
22:05:53.485,6184865.0
22:05:53.525,6184763.0
22:05:53.565,6184626.0
22:05:53.605,6184678.0
22:05:53.645,6184687.0
22:05:53.685,6184667.0
22:05:53.725,6185132.0
22:05:53.765,6184780.0
22:05:53.805,6184478.0
22:05:53.845,6185115.0
22:05:53.885,6184180.0
22:05:53.925,6184708.0
22:05:53.965,6184950.0
22:05:54.005,6185196.0
22:05:54.045,6185599.0
22:05:54.085,6185572.0
22:05:54.125,6185046.0
22:05:54.165,6184743.0
22:05:54.205,6184758.0
22:05:54.245,6184818.0
22:05:54.285,6184936.0
22:05:54.325,6184793.0
22:05:54.365,6184676.0
22:05:54.405,6184521.0
22:05:54.445,6184790.0
22:05:54.485,6185062.0
22:05:54.525,6184422.0
22:05:54.565,6184415.0
22:05:54.605,6186531.0
22:05:54.645,6184919.0
22:05:54.685,6184729.0
22:05:54.725,6185106.0
22:05:54.765,6185457.0
22:05:54.805,6185749.0
22:05:54.845,6185421.0
22:05:54.885,6184879.0
22:05:54.925,6184743.0
22:05:54.965,6184947.0
22:05:55.005,6185027.0
22:05:55.045,6185136.0
22:05:55.085,6184974.0
22:05:55.125,6184937.0
22:05:55.165,6184949.0
22:05:55.205,6184998.0
22:05:55.245,6185273.0
22:05:55.285,6184736.0
22:05:55.325,6184802.0
22:05:55.365,6186258.0
22:05:55.405,6184924.0
22:05:55.445,6185184.0
22:05:55.485,6185362.0
22:05:55.525,6185507.0
22:05:55.565,6185871.0
22:05:55.605,6185519.0
22:05:55.645,6185088.0
22:05:55.685,6184912.0
22:05:55.725,6184981.0
22:05:55.765,6185041.0
22:05:55.805,6184940.0
22:05:55.845,6184997.0
22:05:55.885,6185091.0
22:05:55.925,6184904.0
22:05:56.222,6185227.0
22:05:56.262,6185244.0
22:05:56.302,6185099.0
22:05:56.342,6185242.0
22:05:56.382,6185545.0
22:05:56.422,6185812.0
22:05:56.462,6185428.0
22:05:56.502,6185036.0
22:05:56.542,6184830.0
22:05:56.582,6184800.0
22:05:56.622,6184831.0
22:05:56.662,6184899.0
22:05:56.702,6184763.0
22:05:56.742,6184644.0
22:05:56.782,6184744.0
22:05:56.822,6184789.0
22:05:56.862,6184844.0
22:05:56.902,6185101.0
22:05:56.942,6184596.0
22:05:56.982,6184667.0
22:05:57.022,6185711.0
22:05:57.062,6183258.0
22:05:57.102,6185013.0
22:05:57.142,6185093.0
22:05:57.182,6185339.0
22:05:57.222,6185712.0
22:05:57.262,6185727.0
22:05:57.302,6185074.0
22:05:57.342,6184725.0
22:05:57.382,6184773.0
22:05:57.422,6184966.0
22:05:57.462,6184850.0
22:05:57.502,6184910.0
22:05:57.542,6184823.0
22:05:57.582,6184635.0
22:05:57.622,6184821.0
22:05:57.662,6185264.0
22:05:57.702,6184905.0
22:05:57.742,6184592.0
22:05:57.782,6185005.0
22:05:57.822,6184449.0
22:05:57.862,6184940.0
22:05:57.902,6185015.0
22:05:57.942,6185268.0
22:05:57.982,6185588.0
22:05:58.022,6185740.0
22:05:58.062,6185216.0
22:05:58.102,6184921.0
22:05:58.142,6184680.0
22:05:58.182,6184807.0
22:05:58.222,6184905.0
22:05:58.262,6184976.0
22:05:58.302,6184858.0
22:05:58.342,6184884.0
22:05:58.382,6185150.0
22:05:58.422,6185111.0
22:05:58.462,6184712.0
22:05:58.502,6184629.0
22:05:58.542,6186135.0
22:05:58.582,6185120.0
22:05:58.622,6185116.0
22:05:58.662,6185341.0
22:05:58.702,6185773.0
22:05:58.742,6185959.0
22:05:58.782,6185520.0
22:05:58.822,6185124.0
22:05:58.862,6184971.0
22:05:58.902,6184848.0
22:05:58.942,6185234.0
22:05:58.982,6185200.0
22:05:59.022,6184959.0
22:05:59.062,6185006.0
22:05:59.102,6185266.0
22:05:59.142,6185393.0
22:05:59.182,6184852.0
22:05:59.222,6184974.0
22:05:59.262,6185806.0
22:05:59.302,6185403.0
22:05:59.342,6185185.0
22:05:59.382,6185321.0
22:05:59.422,6185722.0
22:05:59.462,6185849.0
22:05:59.502,6185457.0
22:05:59.542,6185121.0
22:05:59.582,6184916.0
22:05:59.622,6185035.0
22:05:59.662,6185037.0
22:05:59.702,6185017.0
22:05:59.742,6185037.0
22:05:59.782,6184927.0
22:05:59.822,6185471.0
22:05:59.862,6185240.0
22:05:59.902,6184790.0
22:05:59.942,6185034.0
22:05:59.982,6184994.0
22:06:00.022,6185074.0
22:06:00.062,6185144.0
22:06:00.102,6185348.0
22:06:00.142,6185621.0
22:06:00.182,6185830.0
22:06:00.546,6185218.0
22:06:00.586,6185017.0
22:06:00.626,6184955.0
22:06:00.666,6184977.0
22:06:00.706,6185349.0
22:06:00.746,6184846.0
22:06:00.786,6184741.0
22:06:00.826,6186174.0
22:06:00.866,6183098.0
22:06:00.906,6185063.0
22:06:00.946,6184942.0
22:06:00.986,6185581.0
22:06:01.026,6185805.0
22:06:01.066,6185838.0
22:06:01.106,6185178.0
22:06:01.146,6184916.0
22:06:01.186,6185064.0
22:06:01.226,6185181.0
22:06:01.266,6185123.0
22:06:01.306,6185081.0
22:06:01.346,6185083.0
22:06:01.386,6185442.0
22:06:01.426,6185360.0
22:06:01.466,6185064.0
22:06:01.506,6184936.0
22:06:01.546,6186701.0
22:06:01.586,6185299.0
22:06:01.626,6185354.0
22:06:01.666,6185537.0
22:06:01.706,6185798.0
22:06:01.746,6186031.0
22:06:01.786,6185696.0
22:06:01.826,6185150.0
22:06:01.866,6185003.0
22:06:01.906,6185053.0
22:06:01.946,6185176.0
22:06:01.986,6185131.0
22:06:02.026,6185095.0
22:06:02.066,6185065.0
22:06:02.106,6185837.0
22:06:02.146,6185181.0
22:06:02.186,6184926.0
22:06:02.226,6185489.0
22:06:02.266,6184863.0
22:06:02.306,6185320.0
22:06:02.346,6185185.0
22:06:02.386,6185455.0
22:06:02.426,6185801.0
22:06:02.466,6185856.0
22:06:02.506,6185280.0
22:06:02.546,6184952.0
22:06:02.586,6184892.0
22:06:02.626,6184934.0
22:06:02.666,6184971.0
22:06:02.706,6185010.0
22:06:02.746,6184752.0
22:06:02.786,6184844.0
22:06:02.826,6185260.0
22:06:02.866,6185129.0
22:06:02.906,6184648.0
22:06:02.946,6184766.0
22:06:02.986,6185586.0
22:06:03.026,6185162.0
22:06:03.066,6185161.0
22:06:03.106,6185391.0
22:06:03.146,6185698.0
22:06:03.186,6185789.0
22:06:03.226,6185244.0
22:06:03.266,6184851.0
22:06:03.306,6184770.0
22:06:03.346,6184861.0
22:06:03.386,6184797.0
22:06:03.426,6184754.0
22:06:03.466,6184705.0
22:06:03.506,6184790.0
22:06:03.546,6185035.0
22:06:03.586,6185069.0
22:06:03.626,6184781.0
22:06:03.666,6184726.0
22:06:03.706,6186904.0
22:06:03.746,6185139.0
22:06:03.786,6185239.0
22:06:03.826,6185493.0
22:06:03.866,6185775.0
22:06:03.906,6186116.0
22:06:03.946,6185776.0
22:06:03.986,6185248.0
22:06:04.026,6185123.0
22:06:04.066,6185178.0
22:06:04.106,6185229.0
22:06:04.146,6185252.0
22:06:04.186,6184972.0
22:06:04.226,6185154.0
22:06:04.266,6185464.0
22:06:04.306,6185353.0
22:06:04.346,6184982.0
22:06:04.386,6185008.0
22:06:04.426,6185566.0
22:06:04.466,6185589.0
22:06:04.506,6185410.0
22:06:04.894,6185572.0
22:06:04.934,6185223.0
22:06:04.974,6185115.0
22:06:05.014,6185148.0
22:06:05.054,6184995.0
22:06:05.094,6185125.0
22:06:05.134,6185420.0
22:06:05.174,6184986.0
22:06:05.214,6184906.0
22:06:05.254,6186417.0
22:06:05.294,6184772.0
22:06:05.334,6185239.0
22:06:05.374,6185480.0
22:06:05.414,6185613.0
22:06:05.454,6186109.0
22:06:05.494,6185751.0
22:06:05.534,6185246.0
22:06:05.574,6185011.0
22:06:05.614,6185021.0
22:06:05.654,6185237.0
22:06:05.694,6185172.0
22:06:05.734,6184990.0
22:06:05.774,6185009.0
22:06:05.814,6184946.0
22:06:05.854,6185427.0
22:06:05.894,6185441.0
22:06:05.934,6184935.0
22:06:05.974,6184933.0
22:06:06.014,6185791.0
22:06:06.054,6185376.0
22:06:06.094,6185255.0
22:06:06.134,6185709.0
22:06:06.174,6186145.0
22:06:06.214,6186191.0
22:06:06.254,6185782.0
22:06:06.294,6185357.0
22:06:06.334,6185264.0
22:06:06.374,6185335.0
22:06:06.414,6185350.0
22:06:06.454,6185256.0
22:06:06.494,6185211.0
22:06:06.534,6185298.0
22:06:06.574,6185633.0
22:06:06.614,6185553.0
22:06:06.654,6185091.0
22:06:06.694,6185277.0
22:06:06.734,6185660.0
22:06:06.774,6185632.0
22:06:06.814,6185530.0
22:06:06.854,6185648.0
22:06:06.894,6186045.0
22:06:06.934,6186242.0
22:06:06.974,6185739.0
22:06:07.014,6185409.0
22:06:07.054,6185184.0
22:06:07.094,6185321.0
22:06:07.134,6185299.0
22:06:07.174,6185233.0
22:06:07.214,6185271.0
22:06:07.254,6185124.0
22:06:07.294,6185369.0
22:06:07.334,6185598.0
22:06:07.374,6185059.0
22:06:07.414,6184850.0
22:06:07.454,6186917.0
22:06:07.494,6185332.0
22:06:07.534,6185283.0
22:06:07.574,6185492.0
22:06:07.614,6185746.0
22:06:07.654,6186106.0
22:06:07.694,6185600.0
22:06:07.734,6185154.0
22:06:07.774,6185082.0
22:06:07.814,6185129.0
22:06:07.854,6185303.0
22:06:07.894,6185200.0
22:06:07.934,6185162.0
22:06:07.974,6185217.0
22:06:08.014,6185057.0
22:06:08.054,6185378.0
22:06:08.094,6185460.0
22:06:08.134,6184874.0
22:06:08.174,6184900.0
22:06:08.214,6187017.0
22:06:08.254,6185288.0
22:06:08.294,6185349.0
22:06:08.334,6185500.0
22:06:08.374,6185849.0
22:06:08.414,6186092.0
22:06:08.454,6185708.0
22:06:08.494,6185186.0
22:06:08.534,6185050.0
22:06:08.574,6185219.0
22:06:08.614,6185220.0
22:06:08.654,6185292.0
22:06:08.694,6185314.0
22:06:08.734,6185467.0
22:06:08.774,6185469.0
22:06:08.814,6185653.0
22:06:08.854,6185145.0
22:06:09.151,6185098.0
22:06:09.191,6186381.0
22:06:09.231,6185771.0
22:06:09.271,6185467.0
22:06:09.311,6185185.0
22:06:09.351,6185357.0
22:06:09.391,6185405.0
22:06:09.431,6185392.0
22:06:09.471,6185287.0
22:06:09.511,6185271.0
22:06:09.551,6185570.0
22:06:09.591,6185198.0
22:06:09.631,6185034.0
22:06:09.671,6186370.0
22:06:09.711,6183571.0
22:06:09.751,6185400.0
22:06:09.791,6185581.0
22:06:09.831,6185811.0
22:06:09.871,6186229.0
22:06:09.911,6186153.0
22:06:09.951,6185475.0
22:06:09.991,6185251.0
22:06:10.031,6185193.0
22:06:10.071,6185247.0
22:06:10.111,6185230.0
22:06:10.151,6185276.0
22:06:10.191,6185193.0
22:06:10.231,6185268.0
22:06:10.271,6185475.0
22:06:10.311,6185042.0
22:06:10.351,6184813.0
22:06:10.391,6186350.0
22:06:10.431,6183845.0
22:06:10.471,6185334.0
22:06:10.511,6185593.0
22:06:10.551,6185711.0
22:06:10.591,6186197.0
22:06:10.631,6186099.0
22:06:10.671,6185428.0
22:06:10.711,6185230.0
22:06:10.751,6185219.0
22:06:10.791,6185455.0
22:06:10.831,6185481.0
22:06:10.871,6185442.0
22:06:10.911,6185430.0
22:06:10.951,6185627.0
22:06:10.991,6185647.0
22:06:11.031,6185257.0
22:06:11.071,6185084.0
22:06:11.111,6186671.0
22:06:11.151,6185729.0
22:06:11.191,6185522.0
22:06:11.231,6185633.0
22:06:11.271,6185905.0
22:06:11.311,6186136.0
22:06:11.351,6185569.0
22:06:11.391,6185213.0
22:06:11.431,6184984.0
22:06:11.471,6185179.0
22:06:11.511,6185253.0
22:06:11.551,6185239.0
22:06:11.591,6185113.0
22:06:11.631,6185327.0
22:06:11.671,6185600.0
22:06:11.711,6184990.0
22:06:11.751,6184788.0
22:06:11.791,6186227.0
22:06:11.831,6183558.0
22:06:11.871,6185256.0
22:06:11.911,6185427.0
22:06:11.951,6185587.0
22:06:11.991,6185903.0
22:06:12.031,6185758.0
22:06:12.071,6185126.0
22:06:12.111,6185018.0
22:06:12.151,6184894.0
22:06:12.191,6184861.0
22:06:12.231,6184950.0
22:06:12.271,6184925.0
22:06:12.311,6185113.0
22:06:12.351,6185462.0
22:06:12.391,6184946.0
22:06:12.431,6184785.0
22:06:12.471,6186261.0
22:06:12.511,6183494.0
22:06:12.551,6185179.0
22:06:12.591,6185334.0
22:06:12.631,6185690.0
22:06:12.671,6186017.0
22:06:12.711,6185876.0
22:06:12.751,6185146.0
22:06:12.791,6184921.0
22:06:12.831,6185002.0
22:06:12.871,6185028.0
22:06:12.911,6185005.0
22:06:12.951,6184911.0
22:06:12.991,6185036.0
22:06:13.031,6185501.0
22:06:13.071,6184958.0
22:06:13.111,6184961.0
22:06:14.672,6186319.0
22:06:14.712,6185939.0
22:06:14.752,6185424.0
22:06:14.792,6185314.0
22:06:14.832,6185213.0
22:06:14.872,6185378.0
22:06:14.912,6185420.0
22:06:14.952,6185321.0
22:06:14.992,6185287.0
22:06:15.032,6185719.0
22:06:15.072,6185195.0
22:06:15.112,6184865.0
22:06:15.152,6186172.0
22:06:15.192,6183941.0
22:06:15.232,6185424.0
22:06:15.272,6185575.0
22:06:15.312,6185560.0
22:06:15.352,6185979.0
22:06:15.392,6185911.0
22:06:15.432,6185368.0
22:06:15.472,6185017.0
22:06:15.512,6185027.0
22:06:15.552,6185122.0
22:06:15.592,6185195.0
22:06:15.632,6185164.0
22:06:15.672,6185046.0
22:06:15.712,6185311.0
22:06:15.752,6185506.0
22:06:15.792,6185133.0
22:06:15.832,6185083.0
22:06:15.872,6186626.0
22:06:15.912,6185207.0
22:06:15.952,6185414.0
22:06:15.992,6185615.0
22:06:16.032,6185973.0
22:06:16.072,6186185.0
22:06:16.112,6185680.0
22:06:16.152,6185170.0
22:06:16.192,6185154.0
22:06:16.232,6185167.0
22:06:16.272,6185180.0
22:06:16.312,6185198.0
22:06:16.352,6185190.0
22:06:16.392,6185383.0
22:06:16.432,6185769.0
22:06:16.472,6185284.0
22:06:16.512,6185109.0
22:06:16.552,6186645.0
22:06:16.592,6184183.0
22:06:16.632,6185723.0
22:06:16.672,6185747.0
22:06:16.712,6186049.0
22:06:16.752,6186350.0
22:06:16.792,6186186.0
22:06:16.832,6185556.0
22:06:16.872,6185473.0
22:06:16.912,6185445.0
22:06:16.952,6185533.0
22:06:16.992,6185526.0
22:06:17.032,6185541.0
22:06:17.072,6185540.0
22:06:17.112,6185745.0
22:06:17.152,6185232.0
22:06:17.192,6185230.0
22:06:17.232,6186620.0
22:06:17.272,6184628.0
22:06:17.312,6185705.0
22:06:17.352,6185640.0
22:06:17.392,6186097.0
22:06:17.432,6186382.0
22:06:17.472,6186080.0
22:06:17.512,6185460.0
22:06:17.552,6185374.0
22:06:17.592,6185484.0
22:06:17.632,6185435.0
22:06:17.672,6185445.0
22:06:17.712,6185355.0
22:06:17.752,6185321.0
22:06:17.792,6185456.0
22:06:17.832,6185598.0
22:06:17.872,6185104.0
22:06:17.912,6185012.0
22:06:17.952,6186754.0
22:06:17.992,6185353.0
22:06:18.032,6185363.0
22:06:18.072,6185569.0
22:06:18.112,6185996.0
22:06:18.152,6186149.0
22:06:18.192,6185660.0
22:06:18.232,6185227.0
22:06:18.272,6185165.0
22:06:18.312,6185271.0
22:06:18.352,6185372.0
22:06:18.392,6185309.0
22:06:18.432,6185139.0
22:06:18.472,6185307.0
22:06:18.512,6185685.0
22:06:18.552,6185052.0
22:06:18.592,6184937.0
22:06:18.632,6186992.0
22:06:19.013,6185089.0
22:06:19.053,6186019.0
22:06:19.093,6185941.0
22:06:19.133,6185462.0
22:06:19.173,6185169.0
22:06:19.213,6185206.0
22:06:19.253,6185239.0
22:06:19.293,6185091.0
22:06:19.333,6185088.0
22:06:19.373,6185093.0
22:06:19.413,6185085.0
22:06:19.453,6185150.0
22:06:19.493,6185564.0
22:06:19.533,6185158.0
22:06:19.573,6184886.0
22:06:19.613,6186435.0
22:06:19.653,6184489.0
22:06:19.693,6185465.0
22:06:19.733,6185564.0
22:06:19.773,6185769.0
22:06:19.813,6186006.0
22:06:19.853,6185769.0
22:06:19.893,6185316.0
22:06:19.933,6185086.0
22:06:19.973,6185174.0
22:06:20.013,6185252.0
22:06:20.053,6185097.0
22:06:20.093,6185044.0
22:06:20.133,6184948.0
22:06:20.173,6185122.0
22:06:20.213,6185426.0
22:06:20.253,6184663.0
22:06:20.293,6184813.0
22:06:20.333,6186600.0
22:06:20.373,6185059.0
22:06:20.413,6185252.0
22:06:20.453,6185470.0
22:06:20.493,6185946.0
22:06:20.533,6186147.0
22:06:20.573,6185743.0
22:06:20.613,6185207.0
22:06:20.653,6184977.0
22:06:20.693,6185228.0
22:06:20.733,6185242.0
22:06:20.773,6185100.0
22:06:20.813,6185108.0
22:06:20.853,6185035.0
22:06:20.893,6184962.0
22:06:20.933,6185199.0
22:06:20.973,6185546.0
22:06:21.013,6184878.0
22:06:21.053,6184915.0
22:06:21.093,6186618.0
22:06:21.133,6185139.0
22:06:21.173,6185330.0
22:06:21.213,6185454.0
22:06:21.253,6185996.0
22:06:21.293,6185949.0
22:06:21.333,6186196.0
22:06:21.373,6185279.0
22:06:21.413,6185677.0
22:06:21.453,6185494.0
22:06:21.493,6185605.0
22:06:21.533,6184930.0
22:06:21.573,6185373.0
22:06:21.613,6184934.0
22:06:21.653,6185598.0
22:06:21.693,6185840.0
22:06:21.733,6185557.0
22:06:21.773,6185227.0
22:06:21.813,6185680.0
22:06:21.853,6185971.0
22:06:21.893,6185315.0
22:06:21.933,6186057.0
22:06:21.973,6185217.0
22:06:22.013,6185463.0
22:06:22.053,6186415.0
22:06:22.093,6186130.0
22:06:22.133,6185624.0
22:06:22.173,6186099.0
22:06:22.213,6185621.0
22:06:22.253,6184790.0
22:06:22.293,6186002.0
22:06:22.333,6185015.0
22:06:22.373,6186396.0
22:06:22.413,6185609.0
22:06:22.453,6186037.0
22:06:22.493,6185383.0
22:06:22.533,6187360.0
22:06:22.573,6186218.0
22:06:22.613,6185402.0
22:06:22.653,6185603.0
22:06:22.693,6186728.0
22:06:22.733,6186036.0
22:06:22.773,6186478.0
22:06:22.813,6185380.0
22:06:22.853,6185705.0
22:06:22.893,6185783.0
22:06:22.933,6186122.0
22:06:22.973,6186192.0
22:06:23.303,6186205.0
22:06:23.343,6186118.0
22:06:23.383,6185989.0
22:06:23.423,6186450.0
22:06:23.463,6186260.0
22:06:23.503,6186769.0
22:06:23.543,6186114.0
22:06:23.583,6186036.0
22:06:23.623,6185152.0
22:06:23.663,6185179.0
22:06:23.703,6185763.0
22:06:23.743,6185803.0
22:06:23.783,6185038.0
22:06:23.823,6185897.0
22:06:23.863,6186006.0
22:06:23.903,6185603.0
22:06:23.943,6185636.0
22:06:23.983,6186802.0
22:06:24.023,6183429.0
22:06:24.063,6185377.0
22:06:24.103,6185876.0
22:06:24.143,6186219.0
22:06:24.183,6187049.0
22:06:24.223,6186356.0
22:06:24.263,6185217.0
22:06:24.303,6185534.0
22:06:24.343,6184858.0
22:06:24.383,6185715.0
22:06:24.423,6185864.0
22:06:24.463,6185410.0
22:06:24.503,6185459.0
22:06:24.543,6186132.0
22:06:24.583,6185636.0
22:06:24.623,6185809.0
22:06:24.663,6186340.0
22:06:24.703,6185997.0
22:06:24.743,6186059.0
22:06:24.783,6185814.0
22:06:24.823,6185669.0
22:06:24.863,6186862.0
22:06:24.903,6186778.0
22:06:24.943,6185795.0
22:06:24.983,6185849.0
22:06:25.023,6185512.0
22:06:25.063,6185586.0
22:06:25.103,6185631.0
22:06:25.143,6185651.0
22:06:25.183,6185519.0
22:06:25.223,6185671.0
22:06:25.263,6185582.0
22:06:25.303,6185550.0
22:06:25.343,6185536.0
22:06:25.383,6186220.0
22:06:25.423,6184974.0
22:06:25.463,6185799.0
22:06:25.503,6185806.0
22:06:25.543,6186102.0
22:06:25.583,6186295.0
22:06:25.623,6186208.0
22:06:25.663,6185609.0
22:06:25.703,6185618.0
22:06:25.743,6185273.0
22:06:25.783,6185582.0
22:06:25.823,6185437.0
22:06:25.863,6185425.0
22:06:25.903,6185193.0
22:06:25.943,6185439.0
22:06:25.983,6185292.0
22:06:26.023,6185337.0
22:06:26.063,6185307.0
22:06:26.103,6185203.0
22:06:26.143,6186871.0
22:06:26.183,6185001.0
22:06:26.223,6185313.0
22:06:26.263,6185602.0
22:06:26.303,6186061.0
22:06:26.343,6186203.0
22:06:26.383,6186012.0
22:06:26.423,6185344.0
22:06:26.463,6185234.0
22:06:26.503,6185393.0
22:06:26.543,6185264.0
22:06:26.583,6185307.0
22:06:26.623,6185242.0
22:06:26.663,6185159.0
22:06:26.703,6185240.0
22:06:26.743,6185228.0
22:06:26.783,6185282.0
22:06:26.823,6185526.0
22:06:26.863,6185223.0
22:06:26.903,6184961.0
22:06:26.943,6186908.0
22:06:26.983,6184953.0
22:06:27.023,6185575.0
22:06:27.063,6185662.0
22:06:27.103,6186124.0
22:06:27.143,6186334.0
22:06:27.183,6185939.0
22:06:27.223,6185261.0
22:06:27.263,6185370.0
22:06:27.572,6185332.0
22:06:27.612,6185196.0
22:06:27.652,6185615.0
22:06:27.692,6185634.0
22:06:27.732,6185116.0
22:06:27.772,6185034.0
22:06:27.812,6187287.0
22:06:27.852,6185413.0
22:06:27.892,6185458.0
22:06:27.932,6185795.0
22:06:27.972,6185984.0
22:06:28.012,6186464.0
22:06:28.052,6186017.0
22:06:28.092,6185341.0
22:06:28.132,6185042.0
22:06:28.172,6185154.0
22:06:28.212,6185239.0
22:06:28.252,6185415.0
22:06:28.292,6185164.0
22:06:28.332,6185256.0
22:06:28.372,6185229.0
22:06:28.412,6185260.0
22:06:28.452,6185979.0
22:06:28.492,6185523.0
22:06:28.532,6185318.0
22:06:28.572,6185652.0
22:06:28.612,6185364.0
22:06:28.652,6185759.0
22:06:28.692,6185881.0
22:06:28.732,6185856.0
22:06:28.772,6186460.0
22:06:28.812,6186576.0
22:06:28.852,6185921.0
22:06:28.892,6185581.0
22:06:28.932,6185323.0
22:06:28.972,6185455.0
22:06:29.012,6185775.0
22:06:29.052,6185567.0
22:06:29.092,6185416.0
22:06:29.132,6185398.0
22:06:29.172,6185763.0
22:06:29.212,6185878.0
22:06:29.252,6185443.0
22:06:29.292,6185367.0
22:06:29.332,6187343.0
22:06:29.372,6186231.0
22:06:29.412,6185796.0
22:06:29.452,6186120.0
22:06:29.492,6186326.0
22:06:29.532,6186635.0
22:06:29.572,6186061.0
22:06:29.612,6185648.0
22:06:29.652,6185483.0
22:06:29.692,6185459.0
22:06:29.732,6185635.0
22:06:29.772,6185265.0
22:06:29.812,6185405.0
22:06:29.852,6185288.0
22:06:29.892,6185289.0
22:06:29.932,6186083.0
22:06:29.972,6185661.0
22:06:30.012,6185238.0
22:06:30.052,6185934.0
22:06:30.092,6185432.0
22:06:30.132,6185657.0
22:06:30.172,6185855.0
22:06:30.212,6186083.0
22:06:30.252,6186405.0
22:06:30.292,6186481.0
22:06:30.332,6185971.0
22:06:30.372,6185640.0
22:06:30.412,6185430.0
22:06:30.452,6185562.0
22:06:30.492,6185775.0
22:06:30.532,6185526.0
22:06:30.572,6185595.0
22:06:30.612,6185551.0
22:06:30.652,6185631.0
22:06:30.692,6186017.0
22:06:30.732,6185947.0
22:06:30.772,6185356.0
22:06:30.812,6185638.0
22:06:30.852,6185321.0
22:06:30.892,6185900.0
22:06:30.932,6185868.0
22:06:30.972,6186339.0
22:06:31.012,6186637.0
22:06:31.052,6186899.0
22:06:31.092,6186186.0
22:06:31.132,6185916.0
22:06:31.172,6185764.0
22:06:31.212,6185968.0
22:06:31.252,6185898.0
22:06:31.292,6185685.0
22:06:31.332,6185864.0
22:06:31.372,6185791.0
22:06:31.412,6186048.0
22:06:31.452,6186247.0
22:06:31.492,6185746.0
22:06:31.532,6185641.0
22:06:31.861,6187192.0
22:06:31.901,6186922.0
22:06:31.941,6186454.0
22:06:31.981,6185922.0
22:06:32.021,6185836.0
22:06:32.061,6185952.0
22:06:32.101,6186005.0
22:06:32.141,6185970.0
22:06:32.181,6185901.0
22:06:32.221,6185998.0
22:06:32.261,6186046.0
22:06:32.301,6186458.0
22:06:32.341,6185738.0
22:06:32.381,6185697.0
22:06:32.421,6186910.0
22:06:32.461,6184056.0
22:06:32.501,6185919.0
22:06:32.541,6186079.0
22:06:32.581,6186400.0
22:06:32.621,6186739.0
22:06:32.661,6186737.0
22:06:32.701,6185956.0
22:06:32.741,6185751.0
22:06:32.781,6185844.0
22:06:32.821,6185857.0
22:06:32.861,6185687.0
22:06:32.901,6185971.0
22:06:32.941,6185809.0
22:06:32.981,6186051.0
22:06:33.021,6185870.0
22:06:33.061,6186229.0
22:06:33.101,6185628.0
22:06:33.141,6185661.0
22:06:33.181,6187433.0
22:06:33.221,6185460.0
22:06:33.261,6186073.0
22:06:33.301,6186183.0
22:06:33.341,6186593.0
22:06:33.381,6186883.0
22:06:33.421,6186629.0
22:06:33.461,6185738.0
22:06:33.501,6185889.0
22:06:33.541,6185727.0
22:06:33.581,6185911.0
22:06:33.621,6186100.0
22:06:33.661,6186160.0
22:06:33.701,6186115.0
22:06:33.741,6185970.0
22:06:33.781,6186333.0
22:06:33.821,6185921.0
22:06:33.861,6185668.0
22:06:33.901,6187295.0
22:06:33.941,6184666.0
22:06:33.981,6186315.0
22:06:34.021,6186303.0
22:06:34.061,6186528.0
22:06:34.101,6186956.0
22:06:34.141,6186716.0
22:06:34.181,6186091.0
22:06:34.221,6185878.0
22:06:34.261,6185844.0
22:06:34.301,6185940.0
22:06:34.341,6185940.0
22:06:34.381,6185867.0
22:06:34.421,6185968.0
22:06:34.461,6185986.0
22:06:34.501,6186480.0
22:06:34.541,6185996.0
22:06:34.581,6185827.0
22:06:34.621,6186648.0
22:06:34.661,6185189.0
22:06:34.701,6186218.0
22:06:34.741,6186233.0
22:06:34.781,6186559.0
22:06:34.821,6186889.0
22:06:34.861,6186924.0
22:06:34.901,6186247.0
22:06:34.941,6185912.0
22:06:34.981,6185865.0
22:06:35.021,6185807.0
22:06:35.061,6185906.0
22:06:35.101,6185772.0
22:06:35.141,6185795.0
22:06:35.181,6185891.0
22:06:35.221,6185762.0
22:06:35.261,6185967.0
22:06:35.301,6186298.0
22:06:35.341,6185657.0
22:06:35.381,6185826.0
22:06:35.421,6187995.0
22:06:35.461,6186186.0
22:06:35.501,6186185.0
22:06:35.541,6186282.0
22:06:35.581,6186693.0
22:06:35.621,6186681.0
22:06:35.661,6186600.0
22:06:35.701,6185760.0
22:06:35.741,6185911.0
22:06:35.781,6185888.0
22:06:35.821,6185784.0
22:06:36.153,6185968.0
22:06:36.193,6185870.0
22:06:36.233,6186557.0
22:06:36.273,6185445.0
22:06:36.313,6186216.0
22:06:36.353,6186283.0
22:06:36.393,6186569.0
22:06:36.433,6186985.0
22:06:36.473,6186896.0
22:06:36.513,6186487.0
22:06:36.553,6186193.0
22:06:36.593,6186099.0
22:06:36.633,6186273.0
22:06:36.673,6186181.0
22:06:36.713,6186213.0
22:06:36.753,6185987.0
22:06:36.793,6186347.0
22:06:36.833,6186628.0
22:06:36.873,6186424.0
22:06:36.913,6186095.0
22:06:36.953,6186626.0
22:06:36.993,6185838.0
22:06:37.033,6186434.0
22:06:37.073,6186405.0
22:06:37.113,6186788.0
22:06:37.153,6186865.0
22:06:37.193,6186863.0
22:06:37.233,6186452.0
22:06:37.273,6186089.0
22:06:37.313,6186083.0
22:06:37.353,6186141.0
22:06:37.393,6186189.0
22:06:37.433,6186266.0
22:06:37.473,6186073.0
22:06:37.513,6186157.0
22:06:37.553,6186191.0
22:06:37.593,6186773.0
22:06:37.633,6186449.0
22:06:37.673,6185985.0
22:06:37.713,6186657.0
22:06:37.753,6185924.0
22:06:37.793,6186303.0
22:06:37.833,6186410.0
22:06:37.873,6186520.0
22:06:37.913,6186896.0
22:06:37.953,6186931.0
22:06:37.993,6186371.0
22:06:38.033,6185851.0
22:06:38.073,6185979.0
22:06:38.113,6185974.0
22:06:38.153,6186064.0
22:06:38.193,6186242.0
22:06:38.233,6186140.0
22:06:38.273,6186164.0
22:06:38.313,6186142.0
22:06:38.353,6186633.0
22:06:38.393,6186478.0
22:06:38.433,6185846.0
22:06:38.473,6186098.0
22:06:38.513,6186619.0
22:06:38.553,6186526.0
22:06:38.593,6186467.0
22:06:38.633,6186574.0
22:06:38.673,6187015.0
22:06:38.713,6187275.0
22:06:38.753,6186620.0
22:06:38.793,6186272.0
22:06:38.833,6186017.0
22:06:38.873,6186202.0
22:06:38.913,6186146.0
22:06:38.953,6186117.0
22:06:38.993,6186140.0
22:06:39.033,6185987.0
22:06:39.073,6186169.0
22:06:39.113,6186772.0
22:06:39.153,6186241.0
22:06:39.193,6185982.0
22:06:39.233,6186490.0
22:06:39.273,6186493.0
22:06:39.313,6186807.0
22:06:39.353,6186654.0
22:06:39.393,6186840.0
22:06:39.433,6187180.0
22:06:39.473,6187525.0
22:06:39.513,6186841.0
22:06:39.553,6186423.0
22:06:39.593,6186293.0
22:06:39.633,6186415.0
22:06:39.673,6186401.0
22:06:39.713,6186453.0
22:06:39.753,6186313.0
22:06:39.793,6186189.0
22:06:39.833,6186736.0
22:06:39.873,6186540.0
22:06:39.913,6186136.0
22:06:39.953,6186282.0
22:06:39.993,6186459.0
22:06:40.033,6186760.0
22:06:40.073,6186799.0
22:06:40.113,6186891.0
22:06:40.368,6187125.0
22:06:40.408,6186242.0
22:06:40.448,6186597.0
22:06:40.488,6186425.0
22:06:40.528,6186376.0
22:06:40.568,6186284.0
22:06:40.608,6186185.0
22:06:40.648,6186394.0
22:06:40.688,6186604.0
22:06:40.728,6186152.0
22:06:40.768,6186097.0
22:06:40.808,6187583.0
22:06:40.848,6185853.0
22:06:40.888,6186497.0
22:06:40.928,6186577.0
22:06:40.968,6186941.0
22:06:41.008,6187198.0
22:06:41.048,6187044.0
22:06:41.088,6186268.0
22:06:41.128,6186391.0
22:06:41.168,6186303.0
22:06:41.208,6186467.0
22:06:41.248,6186417.0
22:06:41.288,6186227.0
22:06:41.328,6186367.0
22:06:41.368,6186265.0
22:06:41.408,6186458.0
22:06:41.448,6186735.0
22:06:41.488,6186122.0
22:06:41.528,6186084.0
22:06:41.568,6187696.0
22:06:41.608,6186319.0
22:06:41.648,6186296.0
22:06:41.688,6186623.0
22:06:41.728,6186893.0
22:06:41.768,6187146.0
22:06:41.808,6186789.0
22:06:41.848,6186313.0
22:06:41.888,6186142.0
22:06:41.928,6186243.0
22:06:41.968,6186315.0
22:06:42.008,6186258.0
22:06:42.048,6186393.0
22:06:42.088,6186261.0
22:06:42.128,6186132.0
22:06:42.168,6186430.0
22:06:42.208,6186833.0
22:06:42.248,6186411.0
22:06:42.288,6186096.0
22:06:42.328,6186956.0
22:06:42.368,6185319.0
22:06:42.408,6186145.0
22:06:42.448,6186628.0
22:06:42.488,6186628.0
22:06:42.528,6187180.0
22:06:42.568,6187010.0
22:06:42.608,6186416.0
22:06:42.648,6186226.0
22:06:42.688,6186091.0
22:06:42.728,6186307.0
22:06:42.768,6186363.0
22:06:42.808,6186062.0
22:06:42.848,6186500.0
22:06:42.888,6186219.0
22:06:42.928,6186339.0
22:06:42.968,6186739.0
22:06:43.008,6186167.0
22:06:43.048,6186187.0
22:06:43.088,6187609.0
22:06:43.128,6185701.0
22:06:43.168,6186440.0
22:06:43.208,6186659.0
22:06:43.248,6186916.0
22:06:43.288,6187324.0
22:06:43.328,6187123.0
22:06:43.368,6186360.0
22:06:43.408,6186089.0
22:06:43.448,6186278.0
22:06:43.488,6186179.0
22:06:43.528,6186271.0
22:06:43.568,6186195.0
22:06:43.608,6186242.0
22:06:43.648,6186189.0
22:06:43.688,6186392.0
22:06:43.728,6186558.0
22:06:43.768,6185988.0
22:06:43.808,6186042.0
22:06:43.848,6187562.0
22:06:43.888,6186625.0
22:06:43.928,6186390.0
22:06:43.968,6186510.0
22:06:44.008,6186785.0
22:06:44.048,6186978.0
22:06:44.088,6186581.0
22:06:44.128,6185974.0
22:06:44.168,6185850.0
22:06:44.208,6185905.0
22:06:44.248,6185933.0
22:06:44.288,6185991.0
22:06:44.328,6185897.0
22:06:44.679,6185811.0
22:06:44.719,6185908.0
22:06:44.759,6186230.0
22:06:44.799,6186233.0
22:06:44.839,6186514.0
22:06:44.879,6186752.0
22:06:44.919,6187021.0
22:06:44.959,6186371.0
22:06:44.999,6186014.0
22:06:45.039,6185933.0
22:06:45.079,6186008.0
22:06:45.119,6186015.0
22:06:45.159,6185904.0
22:06:45.199,6185928.0
22:06:45.239,6186054.0
22:06:45.279,6186261.0
22:06:45.319,6186351.0
22:06:45.359,6185945.0
22:06:45.399,6185947.0
22:06:45.439,6187893.0
22:06:45.479,6186601.0
22:06:45.519,6186507.0
22:06:45.559,6186598.0
22:06:45.599,6186997.0
22:06:45.639,6187354.0
22:06:45.679,6186900.0
22:06:45.719,6186423.0
22:06:45.759,6186145.0
22:06:45.799,6186367.0
22:06:45.839,6186349.0
22:06:45.879,6186329.0
22:06:45.919,6186294.0
22:06:45.959,6186141.0
22:06:45.999,6186354.0
22:06:46.039,6186375.0
22:06:46.079,6186106.0
22:06:46.119,6185960.0
22:06:46.159,6187822.0
22:06:46.199,6186765.0
22:06:46.239,6186520.0
22:06:46.279,6186642.0
22:06:46.319,6186969.0
22:06:46.359,6187230.0
22:06:46.399,6186944.0
22:06:46.439,6186418.0
22:06:46.479,6186299.0
22:06:46.519,6186396.0
22:06:46.559,6186408.0
22:06:46.599,6186431.0
22:06:46.639,6186346.0
22:06:46.679,6186340.0
22:06:46.719,6186394.0
22:06:46.759,6186657.0
22:06:46.799,6186247.0
22:06:46.839,6186083.0
22:06:46.879,6187459.0
22:06:46.919,6185707.0
22:06:46.959,6186329.0
22:06:46.999,6186469.0
22:06:47.039,6186843.0
22:06:47.079,6187166.0
22:06:47.119,6187006.0
22:06:47.159,6186331.0
22:06:47.199,6186313.0
22:06:47.239,6186310.0
22:06:47.279,6186328.0
22:06:47.319,6186409.0
22:06:47.359,6186372.0
22:06:47.399,6186266.0
22:06:47.439,6186418.0
22:06:47.479,6186650.0
22:06:47.519,6186132.0
22:06:47.559,6185981.0
22:06:47.599,6187782.0
22:06:47.639,6186266.0
22:06:47.679,6186659.0
22:06:47.719,6186667.0
22:06:47.759,6187030.0
22:06:47.799,6187465.0
22:06:47.839,6187194.0
22:06:47.879,6186676.0
22:06:47.919,6186346.0
22:06:47.959,6186397.0
22:06:47.999,6186496.0
22:06:48.039,6186741.0
22:06:48.079,6186514.0
22:06:48.119,6186691.0
22:06:48.159,6187136.0
22:06:48.199,6186563.0
22:06:48.239,6186490.0
22:06:48.279,6187459.0
22:06:48.319,6185321.0
22:06:48.359,6186842.0
22:06:48.399,6186886.0
22:06:48.439,6187109.0
22:06:48.479,6187369.0
22:06:48.519,6187427.0
22:06:48.559,6186738.0
22:06:48.599,6186404.0
22:06:48.639,6186544.0
22:06:49.037,6186525.0
22:06:49.077,6186694.0
22:06:49.117,6186409.0
22:06:49.157,6186828.0
22:06:49.197,6186556.0
22:06:49.237,6186971.0
22:06:49.277,6186871.0
22:06:49.317,6187068.0
22:06:49.357,6187322.0
22:06:49.397,6187484.0
22:06:49.437,6186833.0
22:06:49.477,6186509.0
22:06:49.517,6186405.0
22:06:49.557,6186575.0
22:06:49.597,6186547.0
22:06:49.637,6186477.0
22:06:49.677,6186541.0
22:06:49.717,6186479.0
22:06:49.757,6186698.0
22:06:49.797,6186808.0
22:06:49.837,6186506.0
22:06:49.877,6186343.0
22:06:49.917,6187679.0
22:06:49.957,6184671.0
22:06:49.997,6186650.0
22:06:50.037,6186909.0
22:06:50.077,6187370.0
22:06:50.117,6187594.0
22:06:50.157,6187495.0
22:06:50.197,6186779.0
22:06:50.237,6186532.0
22:06:50.277,6186464.0
22:06:50.317,6186698.0
22:06:50.357,6186664.0
22:06:50.397,6186632.0
22:06:50.437,6186562.0
22:06:50.477,6186704.0
22:06:50.517,6187003.0
22:06:50.557,6186518.0
22:06:50.597,6186470.0
22:06:50.637,6188055.0
22:06:50.677,6186309.0
22:06:50.717,6186983.0
22:06:50.757,6187162.0
22:06:50.797,6187445.0
22:06:50.837,6187768.0
22:06:50.877,6187664.0
22:06:50.917,6187051.0
22:06:50.957,6186875.0
22:06:50.997,6186835.0
22:06:51.037,6186926.0
22:06:51.077,6186828.0
22:06:51.117,6186721.0
22:06:51.157,6186851.0
22:06:51.197,6187178.0
22:06:51.237,6186641.0
22:06:51.277,6186458.0
22:06:51.317,6187546.0
22:06:51.357,6185410.0
22:06:51.397,6186882.0
22:06:51.437,6187001.0
22:06:51.477,6187150.0
22:06:51.517,6187594.0
22:06:51.557,6187529.0
22:06:51.597,6186871.0
22:06:51.637,6186623.0
22:06:51.677,6186568.0
22:06:51.717,6186743.0
22:06:51.757,6186702.0
22:06:51.797,6186714.0
22:06:51.837,6186588.0
22:06:51.877,6186845.0
22:06:51.917,6186689.0
22:06:51.957,6186386.0
22:06:51.997,6186328.0
22:06:52.037,6187248.0
22:06:52.077,6186812.0
22:06:52.117,6186808.0
22:06:52.157,6186976.0
22:06:52.197,6187372.0
22:06:52.237,6187651.0
22:06:52.277,6187093.0
22:06:52.317,6186547.0
22:06:52.357,6186543.0
22:06:52.397,6186547.0
22:06:52.437,6186773.0
22:06:52.477,6186613.0
22:06:52.517,6186669.0
22:06:52.557,6186968.0
22:06:52.597,6186856.0
22:06:52.637,6186539.0
22:06:52.677,6186502.0
22:06:52.717,6188500.0
22:06:52.757,6187059.0
22:06:52.797,6186884.0
22:06:52.837,6187066.0
22:06:52.877,6187348.0
22:06:52.917,6187639.0
22:06:52.957,6187231.0
22:06:52.997,6186683.0
22:06:53.266,6186646.0
22:06:53.306,6186717.0
22:06:53.346,6186607.0
22:06:53.386,6188148.0
22:06:53.426,6186410.0
22:06:53.466,6186965.0
22:06:53.506,6187066.0
22:06:53.546,6187528.0
22:06:53.586,6187844.0
22:06:53.626,6187508.0
22:06:53.666,6188141.0
22:06:53.706,6186395.0
22:06:53.746,6187944.0
22:06:53.786,6186542.0
22:06:53.826,6187593.0
22:06:53.866,6186443.0
22:06:53.906,6188817.0
22:06:53.946,6187148.0
22:06:53.986,6187105.0
22:06:54.026,6186399.0
22:06:54.066,6187198.0
22:06:54.106,6187024.0
22:06:54.146,6188192.0
22:06:54.186,6187317.0
22:06:54.226,6187628.0
22:06:54.266,6188332.0
22:06:54.306,6188242.0
22:06:54.346,6187573.0
22:06:54.386,6187551.0
22:06:54.426,6187530.0
22:06:54.466,6187466.0
22:06:54.506,6188165.0
22:06:54.546,6187586.0
22:06:54.586,6187853.0
22:06:54.626,6188256.0
22:06:54.666,6187573.0
22:06:54.706,6187273.0
22:06:54.746,6189071.0
22:06:54.786,6186551.0
22:06:54.826,6187446.0
22:06:54.866,6187450.0
22:06:54.906,6187604.0
22:06:54.946,6187764.0
22:06:54.986,6187080.0
22:06:55.026,6186430.0
22:06:55.066,6185680.0
22:06:55.106,6186079.0
22:06:55.146,6185804.0
22:06:55.186,6185814.0
22:06:55.226,6185756.0
22:06:55.266,6186686.0
22:06:55.306,6185715.0
22:06:55.346,6185677.0
22:06:55.386,6186236.0
22:06:55.426,6185587.0
22:06:55.466,6186031.0
22:06:55.506,6186354.0
22:06:55.546,6186591.0
22:06:55.586,6186967.0
22:06:55.626,6186851.0
22:06:55.666,6186763.0
22:06:55.706,6186034.0
22:06:55.746,6186326.0
22:06:55.786,6185993.0
22:06:55.826,6186487.0
22:06:55.866,6186213.0
22:06:55.906,6186653.0
22:06:55.946,6186666.0
22:06:55.986,6186713.0
22:06:56.026,6186285.0
22:06:56.066,6187113.0
22:06:56.106,6186755.0
22:06:56.146,6186883.0
22:06:56.186,6187009.0
22:06:56.226,6187247.0
22:06:56.266,6187476.0
22:06:56.306,6186884.0
22:06:56.346,6186337.0
22:06:56.386,6186227.0
22:06:56.426,6186244.0
22:06:56.466,6186215.0
22:06:56.506,6186283.0
22:06:56.546,6185978.0
22:06:56.586,6186402.0
22:06:56.626,6186219.0
22:06:56.666,6185889.0
22:06:56.706,6185857.0
22:06:56.746,6186925.0
22:06:56.786,6186265.0
22:06:56.826,6186366.0
22:06:56.866,6186618.0
22:06:56.906,6186595.0
22:06:56.946,6187314.0
22:06:56.986,6186830.0
22:06:57.026,6186157.0
22:06:57.066,6186443.0
22:06:57.106,6186259.0
22:06:57.146,6186374.0
22:06:57.186,6186594.0
22:06:57.226,6186381.0
22:06:57.575,6186782.0
22:06:57.615,6186807.0
22:06:57.655,6187025.0
22:06:57.695,6187289.0
22:06:57.735,6187443.0
22:06:57.775,6186848.0
22:06:57.815,6186494.0
22:06:57.855,6186514.0
22:06:57.895,6186628.0
22:06:57.935,6186574.0
22:06:57.975,6186483.0
22:06:58.015,6186499.0
22:06:58.055,6186621.0
22:06:58.095,6186881.0
22:06:58.135,6186389.0
22:06:58.175,6186208.0
22:06:58.215,6187851.0
22:06:58.255,6186226.0
22:06:58.295,6186654.0
22:06:58.335,6186966.0
22:06:58.375,6187176.0
22:06:58.415,6187491.0
22:06:58.455,6187377.0
22:06:58.495,6186665.0
22:06:58.535,6186602.0
22:06:58.575,6186567.0
22:06:58.615,6186670.0
22:06:58.655,6186830.0
22:06:58.695,6186708.0
22:06:58.735,6186677.0
22:06:58.775,6186615.0
22:06:58.815,6186746.0
22:06:58.855,6187052.0
22:06:58.895,6186613.0
22:06:58.935,6186447.0
22:06:58.975,6187774.0
22:06:59.015,6184615.0
22:06:59.055,6186737.0
22:06:59.095,6186821.0
22:06:59.135,6187297.0
22:06:59.175,6187566.0
22:06:59.215,6187483.0
22:06:59.255,6186761.0
22:06:59.295,6186581.0
22:06:59.335,6186729.0
22:06:59.375,6186802.0
22:06:59.415,6186739.0
22:06:59.455,6186594.0
22:06:59.495,6186661.0
22:06:59.535,6186668.0
22:06:59.575,6186873.0
22:06:59.615,6187257.0
22:06:59.655,6186813.0
22:06:59.695,6186494.0
22:06:59.735,6187883.0
22:06:59.775,6184401.0
22:06:59.815,6186869.0
22:06:59.855,6186986.0
22:06:59.895,6187387.0
22:06:59.935,6187734.0
22:06:59.975,6187638.0
22:07:00.015,6187038.0
22:07:00.055,6186732.0
22:07:00.095,6186536.0
22:07:00.135,6186884.0
22:07:00.175,6186844.0
22:07:00.215,6186802.0
22:07:00.255,6186828.0
22:07:00.295,6186800.0
22:07:00.335,6187197.0
22:07:00.375,6187200.0
22:07:00.415,6186868.0
22:07:00.455,6186914.0
22:07:00.495,6187910.0
22:07:00.535,6187267.0
22:07:00.575,6187372.0
22:07:00.615,6187466.0
22:07:00.655,6187922.0
22:07:00.695,6188036.0
22:07:00.735,6187646.0
22:07:00.775,6187153.0
22:07:00.815,6187015.0
22:07:00.855,6187025.0
22:07:00.895,6187063.0
22:07:00.935,6186954.0
22:07:00.975,6186974.0
22:07:01.015,6187071.0
22:07:01.055,6187485.0
22:07:01.095,6187117.0
22:07:01.135,6186698.0
22:07:01.175,6187698.0
22:07:01.215,6186194.0
22:07:01.255,6187261.0
22:07:01.295,6187424.0
22:07:01.335,6187697.0
22:07:01.375,6187899.0
22:07:01.415,6187985.0
22:07:01.455,6187466.0
22:07:01.495,6186999.0
22:07:01.535,6186886.0
22:07:03.148,6187084.0
22:07:03.188,6187001.0
22:07:03.228,6186811.0
22:07:03.268,6186912.0
22:07:03.308,6187390.0
22:07:03.348,6187248.0
22:07:03.388,6187284.0
22:07:03.428,6187550.0
22:07:03.468,6187844.0
22:07:03.508,6188083.0
22:07:03.548,6187504.0
22:07:03.588,6186954.0
22:07:03.628,6186932.0
22:07:03.668,6187012.0
22:07:03.708,6186991.0
22:07:03.748,6186993.0
22:07:03.788,6186994.0
22:07:03.828,6186875.0
22:07:03.868,6186712.0
22:07:03.908,6187364.0
22:07:03.948,6187293.0
22:07:03.988,6186786.0
22:07:04.028,6186707.0
22:07:04.068,6188975.0
22:07:04.108,6187374.0
22:07:04.148,6187364.0
22:07:04.188,6187621.0
22:07:04.228,6187992.0
22:07:04.268,6188129.0
22:07:04.308,6187786.0
22:07:04.348,6187322.0
22:07:04.388,6187233.0
22:07:04.428,6187185.0
22:07:04.468,6187378.0
22:07:04.508,6187348.0
22:07:04.548,6187123.0
22:07:04.588,6187209.0
22:07:04.628,6187094.0
22:07:04.668,6187619.0
22:07:04.708,6187219.0
22:07:04.748,6186922.0
22:07:04.788,6187487.0
22:07:04.828,6186667.0
22:07:04.868,6187263.0
22:07:04.908,6187351.0
22:07:04.948,6187665.0
22:07:04.988,6188034.0
22:07:05.028,6188063.0
22:07:05.068,6187565.0
22:07:05.108,6187288.0
22:07:05.148,6186990.0
22:07:05.188,6187205.0
22:07:05.228,6187238.0
22:07:05.268,6187326.0
22:07:05.308,6187070.0
22:07:05.348,6187149.0
22:07:05.388,6186998.0
22:07:05.428,6187851.0
22:07:05.468,6187232.0
22:07:05.508,6186984.0
22:07:05.548,6187569.0
22:07:05.588,6186652.0
22:07:05.628,6187258.0
22:07:05.668,6187248.0
22:07:05.708,6187465.0
22:07:05.748,6187874.0
22:07:05.788,6188006.0
22:07:05.828,6187461.0
22:07:05.868,6187011.0
22:07:05.908,6187226.0
22:07:05.948,6187089.0
22:07:05.988,6187146.0
22:07:06.028,6187118.0
22:07:06.068,6187152.0
22:07:06.108,6187221.0
22:07:06.148,6187259.0
22:07:06.188,6187410.0
22:07:06.228,6187090.0
22:07:06.268,6186880.0
22:07:06.308,6188918.0
22:07:06.348,6187134.0
22:07:06.388,6187217.0
22:07:06.428,6187506.0
22:07:06.468,6187833.0
22:07:06.508,6188119.0
22:07:06.548,6187666.0
22:07:06.588,6187089.0
22:07:06.628,6187016.0
22:07:06.668,6186977.0
22:07:06.708,6187180.0
22:07:06.748,6187114.0
22:07:06.788,6187087.0
22:07:06.828,6187150.0
22:07:06.868,6187885.0
22:07:06.908,6187236.0
22:07:06.948,6186989.0
22:07:06.988,6187926.0
22:07:07.028,6186249.0
22:07:07.068,6187465.0
22:07:07.108,6187571.0
22:07:07.413,6187725.0
22:07:07.453,6187866.0
22:07:07.493,6187297.0
22:07:07.533,6187039.0
22:07:07.573,6186986.0
22:07:07.613,6187214.0
22:07:07.653,6186933.0
22:07:07.693,6186960.0
22:07:07.733,6187146.0
22:07:07.773,6187482.0
22:07:07.813,6186851.0
22:07:07.853,6186817.0
22:07:07.893,6188586.0
22:07:07.933,6186484.0
22:07:07.973,6187295.0
22:07:08.013,6187472.0
22:07:08.053,6187779.0
22:07:08.093,6188107.0
22:07:08.133,6187831.0
22:07:08.173,6187228.0
22:07:08.213,6187149.0
22:07:08.253,6187156.0
22:07:08.293,6187165.0
22:07:08.333,6187171.0
22:07:08.373,6187137.0
22:07:08.413,6187386.0
22:07:08.453,6187101.0
22:07:08.493,6186965.0
22:07:08.533,6187612.0
22:07:08.573,6186755.0
22:07:08.613,6187425.0
22:07:08.653,6187264.0
22:07:08.693,6187708.0
22:07:08.733,6188005.0
22:07:08.773,6188174.0
22:07:08.813,6187530.0
22:07:08.853,6187375.0
22:07:08.893,6187355.0
22:07:08.933,6187224.0
22:07:08.973,6187461.0
22:07:09.013,6187316.0
22:07:09.053,6187626.0
22:07:09.093,6187522.0
22:07:09.133,6187184.0
22:07:09.173,6187113.0
22:07:09.213,6188520.0
22:07:09.253,6187833.0
22:07:09.293,6187530.0
22:07:09.333,6187796.0
22:07:09.373,6188106.0
22:07:09.413,6188162.0
22:07:09.453,6187703.0
22:07:09.493,6187070.0
22:07:09.533,6187112.0
22:07:09.573,6187201.0
22:07:09.613,6187251.0
22:07:09.653,6187284.0
22:07:09.693,6187182.0
22:07:09.733,6187602.0
22:07:09.773,6186981.0
22:07:09.813,6186977.0
22:07:09.853,6188229.0
22:07:09.893,6186206.0
22:07:09.933,6187198.0
22:07:09.973,6187379.0
22:07:10.013,6187559.0
22:07:10.053,6187908.0
22:07:10.093,6187765.0
22:07:10.133,6187040.0
22:07:10.173,6186787.0
22:07:10.213,6186881.0
22:07:10.253,6187037.0
22:07:10.293,6186948.0
22:07:10.333,6186894.0
22:07:10.373,6187351.0
22:07:10.413,6186919.0
22:07:10.453,6186933.0
22:07:10.493,6188062.0
22:07:10.533,6185344.0
22:07:10.573,6187208.0
22:07:10.613,6187341.0
22:07:10.653,6187634.0
22:07:10.693,6187833.0
22:07:10.733,6187703.0
22:07:10.773,6187184.0
22:07:10.813,6186961.0
22:07:10.853,6186882.0
22:07:10.893,6186995.0
22:07:10.933,6186891.0
22:07:10.973,6187246.0
22:07:11.013,6187047.0
22:07:11.053,6186645.0
22:07:11.093,6186716.0
22:07:11.133,6187034.0
22:07:11.173,6187196.0
22:07:11.213,6187228.0
22:07:11.253,6187386.0
22:07:11.293,6187732.0
22:07:11.333,6187813.0
22:07:11.373,6187314.0
22:07:11.706,6186890.0
22:07:11.746,6186788.0
22:07:11.786,6186684.0
22:07:11.826,6188188.0
22:07:11.866,6184921.0
22:07:11.906,6186993.0
22:07:11.946,6187172.0
22:07:11.986,6187549.0
22:07:12.026,6187750.0
22:07:12.066,6187645.0
22:07:12.106,6186974.0
22:07:12.146,6186719.0
22:07:12.186,6186799.0
22:07:12.226,6186922.0
22:07:12.266,6186903.0
22:07:12.306,6186815.0
22:07:12.346,6187306.0
22:07:12.386,6186891.0
22:07:12.426,6186740.0
22:07:12.466,6187507.0
22:07:12.506,6186575.0
22:07:12.546,6187202.0
22:07:12.586,6187177.0
22:07:12.626,6187353.0
22:07:12.666,6187791.0
22:07:12.706,6187640.0
22:07:12.746,6187115.0
22:07:12.786,6186929.0
22:07:12.826,6186890.0
22:07:12.866,6186905.0
22:07:12.906,6186981.0
22:07:12.946,6186906.0
22:07:12.986,6186800.0
22:07:13.026,6187092.0
22:07:13.066,6187084.0
22:07:13.106,6186633.0
22:07:13.146,6186618.0
22:07:13.186,6188517.0
22:07:13.226,6187328.0
22:07:13.266,6187219.0
22:07:13.306,6187315.0
22:07:13.346,6187700.0
22:07:13.386,6187751.0
22:07:13.426,6187276.0
22:07:13.466,6187088.0
22:07:13.506,6186967.0
22:07:13.546,6187054.0
22:07:13.586,6187071.0
22:07:13.626,6186962.0
22:07:13.666,6186868.0
22:07:13.706,6186805.0
22:07:13.746,6186778.0
22:07:13.786,6186969.0
22:07:13.826,6187140.0
22:07:13.866,6186654.0
22:07:13.906,6186626.0
22:07:13.946,6188626.0
22:07:13.986,6187237.0
22:07:14.026,6187169.0
22:07:14.066,6187373.0
22:07:14.106,6187725.0
22:07:14.146,6187806.0
22:07:14.186,6187368.0
22:07:14.226,6187015.0
22:07:14.266,6186888.0
22:07:14.306,6186948.0
22:07:14.346,6187084.0
22:07:14.386,6186994.0
22:07:14.426,6186912.0
22:07:14.466,6186853.0
22:07:14.506,6186857.0
22:07:14.546,6186939.0
22:07:14.586,6187099.0
22:07:14.626,6186589.0
22:07:14.666,6186555.0
22:07:14.706,6188241.0
22:07:14.746,6186621.0
22:07:14.786,6187008.0
22:07:14.826,6187213.0
22:07:14.866,6187467.0
22:07:14.906,6187875.0
22:07:14.946,6187525.0
22:07:14.986,6186996.0
22:07:15.026,6186878.0
22:07:15.066,6186937.0
22:07:15.106,6187138.0
22:07:15.146,6187075.0
22:07:15.186,6187052.0
22:07:15.226,6187143.0
22:07:15.266,6187491.0
22:07:15.306,6186953.0
22:07:15.346,6186881.0
22:07:15.386,6188039.0
22:07:15.426,6185148.0
22:07:15.466,6187143.0
22:07:15.506,6187294.0
22:07:15.546,6187625.0
22:07:15.586,6188009.0
22:07:15.626,6187943.0
22:07:15.666,6187255.0
22:07:15.941,6186821.0
22:07:15.981,6187359.0
22:07:16.021,6186885.0
22:07:16.061,6186795.0
22:07:16.101,6188095.0
22:07:16.141,6185504.0
22:07:16.181,6187293.0
22:07:16.221,6187532.0
22:07:16.261,6187697.0
22:07:16.301,6188041.0
22:07:16.341,6187955.0
22:07:16.381,6187417.0
22:07:16.421,6187113.0
22:07:16.461,6187065.0
22:07:16.501,6187111.0
22:07:16.541,6187147.0
22:07:16.581,6187036.0
22:07:16.621,6186924.0
22:07:16.661,6187062.0
22:07:16.701,6187317.0
22:07:16.741,6186885.0
22:07:16.781,6186757.0
22:07:16.821,6188337.0
22:07:16.861,6186371.0
22:07:16.901,6187125.0
22:07:16.941,6187329.0
22:07:16.981,6187723.0
22:07:17.021,6187827.0
22:07:17.061,6187752.0
22:07:17.101,6187174.0
22:07:17.141,6186904.0
22:07:17.181,6187063.0
22:07:17.221,6187143.0
22:07:17.261,6187127.0
22:07:17.301,6187014.0
22:07:17.341,6186839.0
22:07:17.381,6187029.0
22:07:17.421,6187205.0
22:07:17.461,6186837.0
22:07:17.501,6186669.0
22:07:17.541,6188031.0
22:07:17.581,6184697.0
22:07:17.621,6187061.0
22:07:17.661,6187337.0
22:07:17.701,6187575.0
22:07:17.741,6188149.0
22:07:17.781,6187860.0
22:07:17.821,6187246.0
22:07:17.861,6187000.0
22:07:17.901,6187108.0
22:07:17.941,6187271.0
22:07:17.981,6187269.0
22:07:18.021,6187128.0
22:07:18.061,6187159.0
22:07:18.101,6187469.0
22:07:18.141,6187261.0
22:07:18.181,6186885.0
22:07:18.221,6188015.0
22:07:18.261,6185502.0
22:07:18.301,6187331.0
22:07:18.341,6187276.0
22:07:18.381,6187594.0
22:07:18.421,6187897.0
22:07:18.461,6187821.0
22:07:18.501,6187146.0
22:07:18.541,6187015.0
22:07:18.581,6187040.0
22:07:18.621,6187027.0
22:07:18.661,6187091.0
22:07:18.701,6187014.0
22:07:18.741,6187174.0
22:07:18.781,6187360.0
22:07:18.821,6186896.0
22:07:18.861,6186778.0
22:07:18.901,6188336.0
22:07:18.941,6186759.0
22:07:18.981,6187112.0
22:07:19.021,6187298.0
22:07:19.061,6187525.0
22:07:19.101,6187826.0
22:07:19.141,6187623.0
22:07:19.181,6186992.0
22:07:19.221,6186791.0
22:07:19.261,6186907.0
22:07:19.301,6186873.0
22:07:19.341,6186919.0
22:07:19.381,6186835.0
22:07:19.421,6186876.0
22:07:19.461,6186777.0
22:07:19.501,6187163.0
22:07:19.541,6187165.0
22:07:19.581,6186731.0
22:07:19.621,6186658.0
22:07:19.661,6188782.0
22:07:19.701,6187072.0
22:07:19.741,6187081.0
22:07:19.781,6187285.0
22:07:19.821,6187526.0
22:07:19.861,6187825.0
22:07:19.901,6187325.0
22:07:20.383,6186747.0
22:07:20.423,6186701.0
22:07:20.463,6186721.0
22:07:20.503,6186671.0
22:07:20.543,6186900.0
22:07:20.583,6187118.0
22:07:20.623,6186538.0
22:07:20.663,6186604.0
22:07:20.703,6188800.0
22:07:20.743,6187170.0
22:07:20.783,6187229.0
22:07:20.823,6187432.0
22:07:20.863,6187711.0
22:07:20.903,6187973.0
22:07:20.943,6187450.0
22:07:20.983,6187045.0
22:07:21.023,6186845.0
22:07:21.063,6187047.0
22:07:21.103,6187015.0
22:07:21.143,6186987.0
22:07:21.183,6186791.0
22:07:21.223,6186934.0
22:07:21.263,6187049.0
22:07:21.303,6186724.0
22:07:21.343,6186657.0
22:07:21.383,6188018.0
22:07:21.423,6185852.0
22:07:21.463,6186976.0
22:07:21.503,6187143.0
22:07:21.543,6187437.0
22:07:21.583,6187780.0
22:07:21.623,6187584.0
22:07:21.663,6186941.0
22:07:21.703,6186689.0
22:07:21.743,6186746.0
22:07:21.783,6186768.0
22:07:21.823,6186747.0
22:07:21.863,6186748.0
22:07:21.903,6186694.0
22:07:21.943,6186903.0
22:07:21.983,6186898.0
22:07:22.023,6186425.0
22:07:22.063,6186356.0
22:07:22.103,6188518.0
22:07:22.143,6186715.0
22:07:22.183,6186860.0
22:07:22.223,6187086.0
22:07:22.263,6187304.0
22:07:22.303,6187572.0
22:07:22.343,6187180.0
22:07:22.383,6186727.0
22:07:22.423,6186616.0
22:07:22.463,6186692.0
22:07:22.503,6186761.0
22:07:22.543,6186744.0
22:07:22.583,6186764.0
22:07:22.623,6186583.0
22:07:22.663,6187124.0
22:07:22.703,6186866.0
22:07:22.743,6186465.0
22:07:22.783,6186314.0
22:07:22.823,6187730.0
22:07:22.863,6186887.0
22:07:22.903,6186849.0
22:07:22.943,6187026.0
22:07:22.983,6187476.0
22:07:23.023,6187668.0
22:07:23.063,6187134.0
22:07:23.103,6186582.0
22:07:23.143,6186553.0
22:07:23.183,6186745.0
22:07:23.223,6186803.0
22:07:23.263,6186807.0
22:07:23.303,6186835.0
22:07:23.343,6186708.0
22:07:23.383,6186888.0
22:07:23.423,6187101.0
22:07:23.463,6186644.0
22:07:23.503,6186610.0
22:07:23.543,6188600.0
22:07:23.583,6187062.0
22:07:23.623,6186847.0
22:07:23.663,6187166.0
22:07:23.703,6187398.0
22:07:23.743,6187738.0
22:07:23.783,6187333.0
22:07:23.823,6186844.0
22:07:23.863,6186725.0
22:07:23.903,6186855.0
22:07:23.943,6186895.0
22:07:23.983,6186906.0
22:07:24.023,6186881.0
22:07:24.063,6186800.0
22:07:24.103,6187434.0
22:07:24.143,6187018.0
22:07:24.183,6186565.0
22:07:24.223,6187029.0
22:07:24.263,6186506.0
22:07:24.303,6186914.0
22:07:24.343,6187009.0
22:07:24.530,6187206.0
22:07:24.570,6186827.0
22:07:24.610,6186749.0
22:07:24.650,6186749.0
22:07:24.690,6186658.0
22:07:24.730,6186687.0
22:07:24.770,6186850.0
22:07:24.810,6186890.0
22:07:24.850,6186439.0
22:07:24.890,6186407.0
22:07:24.930,6188243.0
22:07:24.970,6186815.0
22:07:25.010,6186865.0
22:07:25.050,6187026.0
22:07:25.090,6187438.0
22:07:25.130,6187710.0
22:07:25.170,6187443.0
22:07:25.210,6186779.0
22:07:25.250,6186681.0
22:07:25.290,6186719.0
22:07:25.330,6186791.0
22:07:25.370,6186787.0
22:07:25.410,6186709.0
22:07:25.450,6186621.0
22:07:25.490,6186667.0
22:07:25.530,6187329.0
22:07:25.570,6186788.0
22:07:25.610,6186474.0
22:07:25.650,6186947.0
22:07:25.690,6185923.0
22:07:25.730,6186710.0
22:07:25.770,6186865.0
22:07:25.810,6187076.0
22:07:25.850,6187475.0
22:07:25.890,6187618.0
22:07:25.930,6186907.0
22:07:25.970,6186626.0
22:07:26.010,6186608.0
22:07:26.050,6186707.0
22:07:26.090,6186744.0
22:07:26.130,6186773.0
22:07:26.170,6186622.0
22:07:26.210,6186659.0
22:07:26.250,6186789.0
22:07:26.290,6187032.0
22:07:26.330,6186478.0
22:07:26.370,6186439.0
22:07:26.410,6188104.0
22:07:26.450,6186523.0
22:07:26.490,6186817.0
22:07:26.530,6186966.0
22:07:26.570,6187295.0
22:07:26.610,6187650.0
22:07:26.650,6187378.0
22:07:26.690,6186771.0
22:07:26.730,6186502.0
22:07:26.770,6186580.0
22:07:26.810,6186759.0
22:07:26.850,6186772.0
22:07:26.890,6186725.0
22:07:26.930,6186723.0
22:07:26.970,6186713.0
22:07:27.010,6187373.0
22:07:27.050,6186899.0
22:07:27.090,6186628.0
22:07:27.130,6186936.0
22:07:27.170,6186299.0
22:07:27.210,6187009.0
22:07:27.250,6187022.0
22:07:27.290,6187304.0
22:07:27.330,6187635.0
22:07:27.370,6187860.0
22:07:27.410,6187142.0
22:07:27.450,6186642.0
22:07:27.490,6186563.0
22:07:27.530,6186736.0
22:07:27.570,6186769.0
22:07:27.610,6186830.0
22:07:27.650,6186659.0
22:07:27.690,6186654.0
22:07:27.730,6187227.0
22:07:27.770,6187053.0
22:07:27.810,6186623.0
22:07:27.850,6186714.0
22:07:27.890,6186849.0
22:07:27.930,6186978.0
22:07:27.970,6187083.0
22:07:28.010,6187320.0
22:07:28.050,6187700.0
22:07:28.090,6187846.0
22:07:28.130,6187260.0
22:07:28.170,6186828.0
22:07:28.210,6186708.0
22:07:28.250,6186760.0
22:07:28.290,6186894.0
22:07:28.330,6186813.0
22:07:28.370,6186792.0
22:07:28.410,6186823.0
22:07:28.450,6187119.0
22:07:28.490,6186692.0
22:07:28.830,6186473.0
22:07:28.870,6187641.0
22:07:28.910,6187654.0
22:07:28.950,6186937.0
22:07:28.990,6186734.0
22:07:29.030,6186715.0
22:07:29.070,6186889.0
22:07:29.110,6186871.0
22:07:29.150,6186758.0
22:07:29.190,6186706.0
22:07:29.230,6186697.0
22:07:29.270,6187158.0
22:07:29.310,6186977.0
22:07:29.350,6186469.0
22:07:29.390,6186410.0
22:07:29.430,6187501.0
22:07:29.470,6187076.0
22:07:29.510,6186796.0
22:07:29.550,6186985.0
22:07:29.590,6187379.0
22:07:29.630,6187592.0
22:07:29.670,6187116.0
22:07:29.710,6186638.0
22:07:29.750,6186664.0
22:07:29.790,6186628.0
22:07:29.830,6186808.0
22:07:29.870,6186712.0
22:07:29.910,6186642.0
22:07:29.950,6186566.0
22:07:29.990,6186899.0
22:07:30.030,6186984.0
22:07:30.070,6186350.0
22:07:30.110,6186360.0
22:07:30.150,6188128.0
22:07:30.190,6186702.0
22:07:30.230,6186743.0
22:07:30.270,6186939.0
22:07:30.310,6187262.0
22:07:30.350,6187501.0
22:07:30.390,6187302.0
22:07:30.430,6186663.0
22:07:30.470,6186505.0
22:07:30.510,6186582.0
22:07:30.550,6186697.0
22:07:30.590,6186668.0
22:07:30.630,6186685.0
22:07:30.670,6186657.0
22:07:30.710,6186568.0
22:07:30.750,6186768.0
22:07:30.790,6187242.0
22:07:30.830,6186519.0
22:07:30.870,6186381.0
22:07:30.910,6187206.0
22:07:30.950,6186040.0
22:07:30.990,6186749.0
22:07:31.030,6186841.0
22:07:31.070,6187129.0
22:07:31.110,6187547.0
22:07:31.150,6187554.0
22:07:31.190,6186928.0
22:07:31.230,6186608.0
22:07:31.270,6186503.0
22:07:31.310,6186760.0
22:07:31.350,6186748.0
22:07:31.390,6186820.0
22:07:31.430,6186671.0
22:07:31.470,6186784.0
22:07:31.510,6187426.0
22:07:31.550,6187032.0
22:07:31.590,6186572.0
22:07:31.630,6187206.0
22:07:31.670,6186419.0
22:07:31.710,6186975.0
22:07:31.750,6186956.0
22:07:31.790,6187297.0
22:07:31.830,6187603.0
22:07:31.870,6187620.0
22:07:31.910,6187061.0
22:07:31.950,6186716.0
22:07:31.990,6186574.0
22:07:32.030,6186735.0
22:07:32.070,6186812.0
22:07:32.110,6186824.0
22:07:32.150,6186703.0
22:07:32.190,6186719.0
22:07:32.230,6187404.0
22:07:32.270,6186887.0
22:07:32.310,6186643.0
22:07:32.350,6187266.0
22:07:32.390,6186619.0
22:07:32.430,6187013.0
22:07:32.470,6187092.0
22:07:32.510,6187216.0
22:07:32.550,6187577.0
22:07:32.590,6187639.0
22:07:32.630,6187027.0
22:07:32.670,6186706.0
22:07:32.710,6186607.0
22:07:32.750,6186664.0
22:07:32.790,6186726.0
22:07:33.150,6186659.0
22:07:33.190,6186435.0
22:07:33.230,6187373.0
22:07:33.270,6185849.0
22:07:33.310,6186779.0
22:07:33.350,6187003.0
22:07:33.390,6187156.0
22:07:33.430,6187545.0
22:07:33.470,6187633.0
22:07:33.510,6186872.0
22:07:33.550,6186779.0
22:07:33.590,6186566.0
22:07:33.630,6186770.0
22:07:33.670,6186760.0
22:07:33.710,6186689.0
22:07:33.750,6186727.0
22:07:33.790,6186582.0
22:07:33.830,6186668.0
22:07:33.870,6186886.0
22:07:33.910,6186386.0
22:07:33.950,6186310.0
22:07:33.990,6187444.0
22:07:34.030,6184952.0
22:07:34.070,6186714.0
22:07:34.110,6186891.0
22:07:34.150,6187307.0
22:07:34.190,6187670.0
22:07:34.230,6187629.0
22:07:34.270,6187076.0
22:07:34.310,6186784.0
22:07:34.350,6186675.0
22:07:34.390,6186847.0
22:07:34.430,6186945.0
22:07:34.470,6186790.0
22:07:34.510,6186786.0
22:07:34.550,6186889.0
22:07:34.590,6187115.0
22:07:34.630,6186590.0
22:07:34.670,6186588.0
22:07:34.710,6187971.0
22:07:34.750,6186173.0
22:07:34.790,6186818.0
22:07:34.830,6187033.0
22:07:34.870,6187258.0
22:07:34.910,6187685.0
22:07:34.950,6187484.0
22:07:34.990,6186805.0
22:07:35.030,6186685.0
22:07:35.070,6186656.0
22:07:35.110,6186713.0
22:07:35.150,6186777.0
22:07:35.190,6186582.0
22:07:35.230,6186571.0
22:07:35.270,6186698.0
22:07:35.310,6186979.0
22:07:35.350,6186573.0
22:07:35.390,6186399.0
22:07:35.430,6187901.0
22:07:35.470,6186531.0
22:07:35.510,6186624.0
22:07:35.550,6186888.0
22:07:35.590,6187071.0
22:07:35.630,6187394.0
22:07:35.670,6187129.0
22:07:35.710,6186583.0
22:07:35.750,6186426.0
22:07:35.790,6186464.0
22:07:35.830,6186535.0
22:07:35.870,6186610.0
22:07:35.910,6186583.0
22:07:35.950,6186521.0
22:07:35.990,6186535.0
22:07:36.030,6186526.0
22:07:36.070,6186661.0
22:07:36.110,6186959.0
22:07:36.150,6186569.0
22:07:36.190,6186339.0
22:07:36.230,6187676.0
22:07:36.270,6184652.0
22:07:36.310,6186602.0
22:07:36.350,6186796.0
22:07:36.390,6186986.0
22:07:36.430,6187415.0
22:07:36.470,6187320.0
22:07:36.510,6186660.0
22:07:36.550,6186497.0
22:07:36.590,6186408.0
22:07:36.630,6186521.0
22:07:36.670,6186654.0
22:07:36.710,6186507.0
22:07:36.750,6186529.0
22:07:36.790,6186556.0
22:07:36.830,6186718.0
22:07:36.870,6187024.0
22:07:36.910,6186522.0
22:07:36.950,6186346.0
22:07:36.990,6187964.0
22:07:37.030,6185459.0
22:07:37.070,6186654.0
22:07:37.110,6186838.0
22:07:37.482,6187193.0
22:07:37.522,6186740.0
22:07:37.562,6186715.0
22:07:37.602,6186760.0
22:07:37.642,6186576.0
22:07:37.682,6186617.0
22:07:37.722,6186648.0
22:07:37.762,6187111.0
22:07:37.802,6186465.0
22:07:37.842,6186427.0
22:07:37.882,6187462.0
22:07:37.922,6185192.0
22:07:37.962,6186848.0
22:07:38.002,6187093.0
22:07:38.042,6187231.0
22:07:38.082,6187608.0
22:07:38.122,6187543.0
