'Time','ECG1'
'[10:42:00.000]',0.675
'[10:42:00.008]',0.665
'[10:42:00.016]',0.655
'[10:42:00.023]',0.645
'[10:42:00.031]',0.635
'[10:42:00.039]',0.625
'[10:42:00.047]',0.605
'[10:42:00.055]',0.595
'[10:42:00.063]',0.585
'[10:42:00.070]',0.575
'[10:42:00.078]',0.565
'[10:42:00.086]',0.555
'[10:42:00.094]',0.545
'[10:42:00.102]',0.535
'[10:42:00.109]',0.515
'[10:42:00.117]',0.515
'[10:42:00.125]',0.505
'[10:42:00.133]',0.495
'[10:42:00.141]',0.475
'[10:42:00.148]',0.475
'[10:42:00.156]',0.475
'[10:42:00.164]',0.465
'[10:42:00.172]',0.445
'[10:42:00.180]',0.445
'[10:42:00.188]',0.435
'[10:42:00.195]',0.425
'[10:42:00.203]',0.415
'[10:42:00.211]',0.415
'[10:42:00.219]',0.395
'[10:42:00.227]',0.395
'[10:42:00.234]',0.385
'[10:42:00.242]',0.375
'[10:42:00.250]',0.365
'[10:42:00.258]',0.365
'[10:42:00.266]',0.355
'[10:42:00.273]',0.345
'[10:42:00.281]',0.335
'[10:42:00.289]',0.335
'[10:42:00.297]',0.315
'[10:42:00.305]',0.315
'[10:42:00.313]',0.295
'[10:42:00.320]',0.295
'[10:42:00.328]',0.275
'[10:42:00.336]',0.285
'[10:42:00.344]',0.275
'[10:42:00.352]',0.265
'[10:42:00.359]',0.255
'[10:42:00.367]',0.255
'[10:42:00.375]',0.245
'[10:42:00.383]',0.235
'[10:42:00.391]',0.225
'[10:42:00.398]',0.215
'[10:42:00.406]',0.215
'[10:42:00.414]',0.205
'[10:42:00.422]',0.195
'[10:42:00.430]',0.195
'[10:42:00.438]',0.185
'[10:42:00.445]',0.165
'[10:42:00.453]',0.155
'[10:42:00.461]',0.135
'[10:42:00.469]',-0.375
'[10:42:00.477]',-0.955
'[10:42:00.484]',-0.885
'[10:42:00.492]',-0.865
'[10:42:00.500]',-0.855
'[10:42:00.508]',-0.845
'[10:42:00.516]',-0.845
'[10:42:00.523]',-0.835
'[10:42:00.531]',-0.815
'[10:42:00.539]',-0.805
'[10:42:00.547]',-0.805
'[10:42:00.555]',-0.785
'[10:42:00.563]',-0.775
'[10:42:00.570]',-0.775
'[10:42:00.578]',-0.765
'[10:42:00.586]',-0.745
'[10:42:00.594]',-0.735
'[10:42:00.602]',-0.735
'[10:42:00.609]',-0.725
'[10:42:00.617]',-0.705
'[10:42:00.625]',-0.695
'[10:42:00.633]',-0.695
'[10:42:00.641]',-0.685
'[10:42:00.648]',-0.675
'[10:42:00.656]',-0.665
'[10:42:00.664]',-0.655
'[10:42:00.672]',-0.655
'[10:42:00.680]',-0.635
'[10:42:00.688]',-0.625
'[10:42:00.695]',-0.625
'[10:42:00.703]',-0.615
'[10:42:00.711]',-0.605
'[10:42:00.719]',-0.595
'[10:42:00.727]',-0.585
'[10:42:00.734]',-0.585
'[10:42:00.742]',-0.575
'[10:42:00.750]',-0.555
'[10:42:00.758]',-0.555
'[10:42:00.766]',-0.545
'[10:42:00.773]',-0.535
'[10:42:00.781]',-0.525
'[10:42:00.789]',-0.515
'[10:42:00.797]',-0.515
'[10:42:00.805]',-0.505
'[10:42:00.813]',-0.495
'[10:42:00.820]',-0.485
'[10:42:00.828]',-0.475
'[10:42:00.836]',-0.465
'[10:42:00.844]',-0.455
'[10:42:00.852]',-0.445
'[10:42:00.859]',-0.445
'[10:42:00.867]',-0.425
'[10:42:00.875]',-0.415
'[10:42:00.883]',-0.415
'[10:42:00.891]',-0.415
'[10:42:00.898]',-0.395
'[10:42:00.906]',-0.385
'[10:42:00.914]',-0.375
'[10:42:00.922]',-0.375
'[10:42:00.930]',-0.375
'[10:42:00.938]',-0.365
'[10:42:00.945]',-0.355
'[10:42:00.953]',-0.335
'[10:42:00.961]',-0.315
'[10:42:00.969]',-0.145
'[10:42:00.977]',0.755
'[10:42:00.984]',0.685
'[10:42:00.992]',0.665
'[10:42:01.000]',0.665
'[10:42:01.008]',0.655
'[10:42:01.016]',0.635
'[10:42:01.023]',0.625
'[10:42:01.031]',0.615
'[10:42:01.039]',0.615
'[10:42:01.047]',0.595
'[10:42:01.055]',0.585
'[10:42:01.063]',0.565
'[10:42:01.070]',0.555
'[10:42:01.078]',0.535
'[10:42:01.086]',0.525
'[10:42:01.094]',0.515
'[10:42:01.102]',0.505
'[10:42:01.109]',0.495
'[10:42:01.117]',0.485
'[10:42:01.125]',0.475
'[10:42:01.133]',0.465
'[10:42:01.141]',0.445
'[10:42:01.148]',0.445
'[10:42:01.156]',0.425
'[10:42:01.164]',0.425
'[10:42:01.172]',0.405
'[10:42:01.180]',0.405
'[10:42:01.188]',0.395
'[10:42:01.195]',0.385
'[10:42:01.203]',0.375
'[10:42:01.211]',0.375
'[10:42:01.219]',0.365
'[10:42:01.227]',0.365
'[10:42:01.234]',0.355
'[10:42:01.242]',0.345
'[10:42:01.250]',0.345
'[10:42:01.258]',0.345
'[10:42:01.266]',0.325
'[10:42:01.273]',0.325
'[10:42:01.281]',0.315
'[10:42:01.289]',0.315
'[10:42:01.297]',0.295
'[10:42:01.305]',0.295
'[10:42:01.313]',0.295
'[10:42:01.320]',0.285
'[10:42:01.328]',0.275
'[10:42:01.336]',0.265
'[10:42:01.344]',0.265
'[10:42:01.352]',0.265
'[10:42:01.359]',0.245
'[10:42:01.367]',0.245
'[10:42:01.375]',0.245
'[10:42:01.383]',0.235
'[10:42:01.391]',0.225
'[10:42:01.398]',0.215
'[10:42:01.406]',0.215
'[10:42:01.414]',0.205
'[10:42:01.422]',0.205
'[10:42:01.430]',0.195
'[10:42:01.438]',0.195
'[10:42:01.445]',0.175
'[10:42:01.453]',0.165
'[10:42:01.461]',0.145
'[10:42:01.469]',0.075
'[10:42:01.477]',-0.905
'[10:42:01.484]',-0.855
'[10:42:01.492]',-0.845
'[10:42:01.500]',-0.835
'[10:42:01.508]',-0.835
'[10:42:01.516]',-0.835
'[10:42:01.523]',-0.815
'[10:42:01.531]',-0.815
'[10:42:01.539]',-0.805
'[10:42:01.547]',-0.795
'[10:42:01.555]',-0.785
'[10:42:01.563]',-0.775
'[10:42:01.570]',-0.765
'[10:42:01.578]',-0.755
'[10:42:01.586]',-0.735
'[10:42:01.594]',-0.735
'[10:42:01.602]',-0.715
'[10:42:01.609]',-0.705
'[10:42:01.617]',-0.705
'[10:42:01.625]',-0.685
'[10:42:01.633]',-0.685
'[10:42:01.641]',-0.675
'[10:42:01.648]',-0.655
'[10:42:01.656]',-0.655
'[10:42:01.664]',-0.645
'[10:42:01.672]',-0.635
'[10:42:01.680]',-0.625
'[10:42:01.688]',-0.615
'[10:42:01.695]',-0.605
'[10:42:01.703]',-0.595
'[10:42:01.711]',-0.585
'[10:42:01.719]',-0.585
'[10:42:01.727]',-0.565
'[10:42:01.734]',-0.565
'[10:42:01.742]',-0.545
'[10:42:01.750]',-0.535
'[10:42:01.758]',-0.535
'[10:42:01.766]',-0.525
'[10:42:01.773]',-0.515
'[10:42:01.781]',-0.505
'[10:42:01.789]',-0.495
'[10:42:01.797]',-0.485
'[10:42:01.805]',-0.475
'[10:42:01.813]',-0.465
'[10:42:01.820]',-0.455
'[10:42:01.828]',-0.455
'[10:42:01.836]',-0.445
'[10:42:01.844]',-0.435
'[10:42:01.852]',-0.435
'[10:42:01.859]',-0.425
'[10:42:01.867]',-0.415
'[10:42:01.875]',-0.405
'[10:42:01.883]',-0.395
'[10:42:01.891]',-0.395
'[10:42:01.898]',-0.375
'[10:42:01.906]',-0.365
'[10:42:01.914]',-0.375
'[10:42:01.922]',-0.365
'[10:42:01.930]',-0.345
'[10:42:01.938]',-0.335
'[10:42:01.945]',-0.335
'[10:42:01.953]',-0.325
'[10:42:01.961]',-0.295
'[10:42:01.969]',-0.095
'[10:42:01.977]',0.795
'[10:42:01.984]',0.715
'[10:42:01.992]',0.705
'[10:42:02.000]',0.695
'[10:42:02.008]',0.685
'[10:42:02.016]',0.675
'[10:42:02.023]',0.675
'[10:42:02.031]',0.665
'[10:42:02.039]',0.645
'[10:42:02.047]',0.635
'[10:42:02.055]',0.625
'[10:42:02.063]',0.615
'[10:42:02.070]',0.615
'[10:42:02.078]',0.595
'[10:42:02.086]',0.585
'[10:42:02.094]',0.575
'[10:42:02.102]',0.565
'[10:42:02.109]',0.545
'[10:42:02.117]',0.545
'[10:42:02.125]',0.535
'[10:42:02.133]',0.525
'[10:42:02.141]',0.515
'[10:42:02.148]',0.505
'[10:42:02.156]',0.495
'[10:42:02.164]',0.485
'[10:42:02.172]',0.475
'[10:42:02.180]',0.475
'[10:42:02.188]',0.465
'[10:42:02.195]',0.455
'[10:42:02.203]',0.445
'[10:42:02.211]',0.435
'[10:42:02.219]',0.425
'[10:42:02.227]',0.425
'[10:42:02.234]',0.405
'[10:42:02.242]',0.405
'[10:42:02.250]',0.405
'[10:42:02.258]',0.395
'[10:42:02.266]',0.375
'[10:42:02.273]',0.365
'[10:42:02.281]',0.365
'[10:42:02.289]',0.355
'[10:42:02.297]',0.345
'[10:42:02.305]',0.345
'[10:42:02.313]',0.335
'[10:42:02.320]',0.325
'[10:42:02.328]',0.315
'[10:42:02.336]',0.315
'[10:42:02.344]',0.305
'[10:42:02.352]',0.295
'[10:42:02.359]',0.285
'[10:42:02.367]',0.275
'[10:42:02.375]',0.265
'[10:42:02.383]',0.265
'[10:42:02.391]',0.255
'[10:42:02.398]',0.255
'[10:42:02.406]',0.235
'[10:42:02.414]',0.235
'[10:42:02.422]',0.225
'[10:42:02.430]',0.225
'[10:42:02.438]',0.215
'[10:42:02.445]',0.205
'[10:42:02.453]',0.185
'[10:42:02.461]',0.165
'[10:42:02.469]',-0.205
'[10:42:02.477]',-0.935
'[10:42:02.484]',-0.865
'[10:42:02.492]',-0.845
'[10:42:02.500]',-0.835
'[10:42:02.508]',-0.825
'[10:42:02.516]',-0.815
'[10:42:02.523]',-0.795
'[10:42:02.531]',-0.775
'[10:42:02.539]',-0.775
'[10:42:02.547]',-0.765
'[10:42:02.555]',-0.755
'[10:42:02.563]',-0.735
'[10:42:02.570]',-0.725
'[10:42:02.578]',-0.725
'[10:42:02.586]',-0.705
'[10:42:02.594]',-0.695
'[10:42:02.602]',-0.685
'[10:42:02.609]',-0.675
'[10:42:02.617]',-0.655
'[10:42:02.625]',-0.655
'[10:42:02.633]',-0.635
'[10:42:02.641]',-0.635
'[10:42:02.648]',-0.625
'[10:42:02.656]',-0.615
'[10:42:02.664]',-0.595
'[10:42:02.672]',-0.595
'[10:42:02.680]',-0.585
'[10:42:02.688]',-0.585
'[10:42:02.695]',-0.575
'[10:42:02.703]',-0.565
'[10:42:02.711]',-0.555
'[10:42:02.719]',-0.545
'[10:42:02.727]',-0.545
'[10:42:02.734]',-0.535
'[10:42:02.742]',-0.535
'[10:42:02.750]',-0.525
'[10:42:02.758]',-0.515
'[10:42:02.766]',-0.505
'[10:42:02.773]',-0.505
'[10:42:02.781]',-0.495
'[10:42:02.789]',-0.485
'[10:42:02.797]',-0.475
'[10:42:02.805]',-0.465
'[10:42:02.813]',-0.465
'[10:42:02.820]',-0.455
'[10:42:02.828]',-0.445
'[10:42:02.836]',-0.435
'[10:42:02.844]',-0.425
'[10:42:02.852]',-0.415
'[10:42:02.859]',-0.415
'[10:42:02.867]',-0.405
'[10:42:02.875]',-0.395
'[10:42:02.883]',-0.395
'[10:42:02.891]',-0.385
'[10:42:02.898]',-0.375
'[10:42:02.906]',-0.365
'[10:42:02.914]',-0.355
'[10:42:02.922]',-0.355
'[10:42:02.930]',-0.345
'[10:42:02.938]',-0.335
'[10:42:02.945]',-0.325
'[10:42:02.953]',-0.325
'[10:42:02.961]',-0.295
'[10:42:02.969]',-0.235
'[10:42:02.977]',0.815
'[10:42:02.984]',0.735
'[10:42:02.992]',0.715
'[10:42:03.000]',0.705
'[10:42:03.008]',0.705
'[10:42:03.016]',0.695
'[10:42:03.023]',0.685
'[10:42:03.031]',0.665
'[10:42:03.039]',0.665
'[10:42:03.047]',0.645
'[10:42:03.055]',0.635
'[10:42:03.063]',0.625
'[10:42:03.070]',0.615
'[10:42:03.078]',0.605
'[10:42:03.086]',0.595
'[10:42:03.094]',0.585
'[10:42:03.102]',0.575
'[10:42:03.109]',0.565
'[10:42:03.117]',0.555
'[10:42:03.125]',0.555
'[10:42:03.133]',0.545
'[10:42:03.141]',0.525
'[10:42:03.148]',0.515
'[10:42:03.156]',0.505
'[10:42:03.164]',0.495
'[10:42:03.172]',0.485
'[10:42:03.180]',0.485
'[10:42:03.188]',0.475
'[10:42:03.195]',0.465
'[10:42:03.203]',0.445
'[10:42:03.211]',0.445
'[10:42:03.219]',0.435
'[10:42:03.227]',0.435
'[10:42:03.234]',0.415
'[10:42:03.242]',0.415
'[10:42:03.250]',0.405
'[10:42:03.258]',0.395
'[10:42:03.266]',0.385
'[10:42:03.273]',0.385
'[10:42:03.281]',0.375
'[10:42:03.289]',0.355
'[10:42:03.297]',0.355
'[10:42:03.305]',0.345
'[10:42:03.313]',0.335
'[10:42:03.320]',0.335
'[10:42:03.328]',0.315
'[10:42:03.336]',0.315
'[10:42:03.344]',0.305
'[10:42:03.352]',0.295
'[10:42:03.359]',0.285
'[10:42:03.367]',0.275
'[10:42:03.375]',0.275
'[10:42:03.383]',0.265
'[10:42:03.391]',0.255
'[10:42:03.398]',0.255
'[10:42:03.406]',0.245
'[10:42:03.414]',0.235
'[10:42:03.422]',0.225
'[10:42:03.430]',0.225
'[10:42:03.438]',0.215
'[10:42:03.445]',0.205
'[10:42:03.453]',0.185
'[10:42:03.461]',0.155
'[10:42:03.469]',-0.735
'[10:42:03.477]',-0.905
'[10:42:03.484]',-0.855
'[10:42:03.492]',-0.835
'[10:42:03.500]',-0.815
'[10:42:03.508]',-0.805
'[10:42:03.516]',-0.805
'[10:42:03.523]',-0.795
'[10:42:03.531]',-0.785
'[10:42:03.539]',-0.775
'[10:42:03.547]',-0.775
'[10:42:03.555]',-0.755
'[10:42:03.563]',-0.745
'[10:42:03.570]',-0.735
'[10:42:03.578]',-0.725
'[10:42:03.586]',-0.715
'[10:42:03.594]',-0.705
'[10:42:03.602]',-0.695
'[10:42:03.609]',-0.685
'[10:42:03.617]',-0.675
'[10:42:03.625]',-0.675
'[10:42:03.633]',-0.655
'[10:42:03.641]',-0.655
'[10:42:03.648]',-0.635
'[10:42:03.656]',-0.635
'[10:42:03.664]',-0.615
'[10:42:03.672]',-0.615
'[10:42:03.680]',-0.605
'[10:42:03.688]',-0.595
'[10:42:03.695]',-0.585
'[10:42:03.703]',-0.575
'[10:42:03.711]',-0.565
'[10:42:03.719]',-0.555
'[10:42:03.727]',-0.545
'[10:42:03.734]',-0.545
'[10:42:03.742]',-0.525
'[10:42:03.750]',-0.525
'[10:42:03.758]',-0.505
'[10:42:03.766]',-0.505
'[10:42:03.773]',-0.495
'[10:42:03.781]',-0.495
'[10:42:03.789]',-0.485
'[10:42:03.797]',-0.475
'[10:42:03.805]',-0.465
'[10:42:03.813]',-0.455
'[10:42:03.820]',-0.455
'[10:42:03.828]',-0.445
'[10:42:03.836]',-0.435
'[10:42:03.844]',-0.435
'[10:42:03.852]',-0.425
'[10:42:03.859]',-0.415
'[10:42:03.867]',-0.405
'[10:42:03.875]',-0.405
'[10:42:03.883]',-0.395
'[10:42:03.891]',-0.385
'[10:42:03.898]',-0.375
'[10:42:03.906]',-0.375
'[10:42:03.914]',-0.365
'[10:42:03.922]',-0.365
'[10:42:03.930]',-0.345
'[10:42:03.938]',-0.335
'[10:42:03.945]',-0.335
'[10:42:03.953]',-0.325
'[10:42:03.961]',-0.305
'[10:42:03.969]',-0.285
'[10:42:03.977]',0.775
'[10:42:03.984]',0.745
'[10:42:03.992]',0.715
'[10:42:04.000]',0.705
'[10:42:04.008]',0.695
'[10:42:04.016]',0.675
'[10:42:04.023]',0.675
'[10:42:04.031]',0.665
'[10:42:04.039]',0.655
'[10:42:04.047]',0.645
'[10:42:04.055]',0.635
'[10:42:04.063]',0.625
'[10:42:04.070]',0.615
'[10:42:04.078]',0.595
'[10:42:04.086]',0.585
'[10:42:04.094]',0.575
'[10:42:04.102]',0.575
'[10:42:04.109]',0.555
'[10:42:04.117]',0.555
'[10:42:04.125]',0.545
'[10:42:04.133]',0.535
'[10:42:04.141]',0.515
'[10:42:04.148]',0.515
'[10:42:04.156]',0.515
'[10:42:04.164]',0.505
'[10:42:04.172]',0.485
'[10:42:04.180]',0.485
'[10:42:04.188]',0.465
'[10:42:04.195]',0.455
'[10:42:04.203]',0.445
'[10:42:04.211]',0.445
'[10:42:04.219]',0.435
'[10:42:04.227]',0.425
'[10:42:04.234]',0.405
'[10:42:04.242]',0.405
'[10:42:04.250]',0.395
'[10:42:04.258]',0.385
'[10:42:04.266]',0.375
'[10:42:04.273]',0.365
'[10:42:04.281]',0.355
'[10:42:04.289]',0.355
'[10:42:04.297]',0.345
'[10:42:04.305]',0.345
'[10:42:04.313]',0.325
'[10:42:04.320]',0.315
'[10:42:04.328]',0.305
'[10:42:04.336]',0.305
'[10:42:04.344]',0.295
'[10:42:04.352]',0.285
'[10:42:04.359]',0.275
'[10:42:04.367]',0.275
'[10:42:04.375]',0.265
'[10:42:04.383]',0.265
'[10:42:04.391]',0.245
'[10:42:04.398]',0.245
'[10:42:04.406]',0.235
'[10:42:04.414]',0.235
'[10:42:04.422]',0.225
'[10:42:04.430]',0.215
'[10:42:04.438]',0.205
'[10:42:04.445]',0.195
'[10:42:04.453]',0.185
'[10:42:04.461]',0.155
'[10:42:04.469]',-0.685
'[10:42:04.477]',-0.915
'[10:42:04.484]',-0.855
'[10:42:04.492]',-0.835
'[10:42:04.500]',-0.825
'[10:42:04.508]',-0.825
'[10:42:04.516]',-0.815
'[10:42:04.523]',-0.795
'[10:42:04.531]',-0.785
'[10:42:04.539]',-0.775
'[10:42:04.547]',-0.765
'[10:42:04.555]',-0.755
'[10:42:04.563]',-0.755
'[10:42:04.570]',-0.735
'[10:42:04.578]',-0.735
'[10:42:04.586]',-0.715
'[10:42:04.594]',-0.705
'[10:42:04.602]',-0.695
'[10:42:04.609]',-0.695
'[10:42:04.617]',-0.685
'[10:42:04.625]',-0.665
'[10:42:04.633]',-0.665
'[10:42:04.641]',-0.655
'[10:42:04.648]',-0.645
'[10:42:04.656]',-0.635
'[10:42:04.664]',-0.625
'[10:42:04.672]',-0.625
'[10:42:04.680]',-0.605
'[10:42:04.688]',-0.585
'[10:42:04.695]',-0.585
'[10:42:04.703]',-0.575
'[10:42:04.711]',-0.565
'[10:42:04.719]',-0.555
'[10:42:04.727]',-0.545
'[10:42:04.734]',-0.545
'[10:42:04.742]',-0.535
'[10:42:04.750]',-0.525
'[10:42:04.758]',-0.515
'[10:42:04.766]',-0.515
'[10:42:04.773]',-0.495
'[10:42:04.781]',-0.495
'[10:42:04.789]',-0.485
'[10:42:04.797]',-0.485
'[10:42:04.805]',-0.465
'[10:42:04.813]',-0.455
'[10:42:04.820]',-0.455
'[10:42:04.828]',-0.445
'[10:42:04.836]',-0.435
'[10:42:04.844]',-0.425
'[10:42:04.852]',-0.425
'[10:42:04.859]',-0.415
'[10:42:04.867]',-0.405
'[10:42:04.875]',-0.395
'[10:42:04.883]',-0.395
'[10:42:04.891]',-0.385
'[10:42:04.898]',-0.375
'[10:42:04.906]',-0.365
'[10:42:04.914]',-0.365
'[10:42:04.922]',-0.355
'[10:42:04.930]',-0.335
'[10:42:04.938]',-0.335
'[10:42:04.945]',-0.325
'[10:42:04.953]',-0.325
'[10:42:04.961]',-0.285
'[10:42:04.969]',0.555
'[10:42:04.977]',0.795
'[10:42:04.984]',0.725
'[10:42:04.992]',0.705
'[10:42:05.000]',0.705
'[10:42:05.008]',0.695
'[10:42:05.016]',0.685
'[10:42:05.023]',0.675
'[10:42:05.031]',0.675
'[10:42:05.039]',0.655
'[10:42:05.047]',0.645
'[10:42:05.055]',0.635
'[10:42:05.063]',0.625
'[10:42:05.070]',0.625
'[10:42:05.078]',0.595
'[10:42:05.086]',0.595
'[10:42:05.094]',0.585
'[10:42:05.102]',0.575
'[10:42:05.109]',0.565
'[10:42:05.117]',0.555
'[10:42:05.125]',0.555
'[10:42:05.133]',0.535
'[10:42:05.141]',0.525
'[10:42:05.148]',0.525
'[10:42:05.156]',0.505
'[10:42:05.164]',0.495
'[10:42:05.172]',0.485
'[10:42:05.180]',0.485
'[10:42:05.188]',0.475
'[10:42:05.195]',0.465
'[10:42:05.203]',0.455
'[10:42:05.211]',0.455
'[10:42:05.219]',0.435
'[10:42:05.227]',0.425
'[10:42:05.234]',0.425
'[10:42:05.242]',0.415
'[10:42:05.250]',0.405
'[10:42:05.258]',0.395
'[10:42:05.266]',0.385
'[10:42:05.273]',0.375
'[10:42:05.281]',0.375
'[10:42:05.289]',0.355
'[10:42:05.297]',0.355
'[10:42:05.305]',0.355
'[10:42:05.313]',0.335
'[10:42:05.320]',0.325
'[10:42:05.328]',0.315
'[10:42:05.336]',0.315
'[10:42:05.344]',0.305
'[10:42:05.352]',0.295
'[10:42:05.359]',0.285
'[10:42:05.367]',0.285
'[10:42:05.375]',0.275
'[10:42:05.383]',0.265
'[10:42:05.391]',0.255
'[10:42:05.398]',0.255
'[10:42:05.406]',0.235
'[10:42:05.414]',0.235
'[10:42:05.422]',0.225
'[10:42:05.430]',0.215
'[10:42:05.438]',0.215
'[10:42:05.445]',0.195
'[10:42:05.453]',0.185
'[10:42:05.461]',0.175
'[10:42:05.469]',0.175
'[10:42:05.477]',-0.955
'[10:42:05.484]',-0.865
'[10:42:05.492]',-0.845
'[10:42:05.500]',-0.835
'[10:42:05.508]',-0.825
'[10:42:05.516]',-0.815
'[10:42:05.523]',-0.805
'[10:42:05.531]',-0.795
'[10:42:05.539]',-0.785
'[10:42:05.547]',-0.775
'[10:42:05.555]',-0.765
'[10:42:05.563]',-0.755
'[10:42:05.570]',-0.745
'[10:42:05.578]',-0.735
'[10:42:05.586]',-0.725
'[10:42:05.594]',-0.715
'[10:42:05.602]',-0.705
'[10:42:05.609]',-0.695
'[10:42:05.617]',-0.685
'[10:42:05.625]',-0.675
'[10:42:05.633]',-0.665
'[10:42:05.641]',-0.655
'[10:42:05.648]',-0.645
'[10:42:05.656]',-0.635
'[10:42:05.664]',-0.635
'[10:42:05.672]',-0.615
'[10:42:05.680]',-0.605
'[10:42:05.688]',-0.595
'[10:42:05.695]',-0.595
'[10:42:05.703]',-0.585
'[10:42:05.711]',-0.575
'[10:42:05.719]',-0.565
'[10:42:05.727]',-0.555
'[10:42:05.734]',-0.555
'[10:42:05.742]',-0.545
'[10:42:05.750]',-0.535
'[10:42:05.758]',-0.525
'[10:42:05.766]',-0.515
'[10:42:05.773]',-0.505
'[10:42:05.781]',-0.495
'[10:42:05.789]',-0.495
'[10:42:05.797]',-0.485
'[10:42:05.805]',-0.475
'[10:42:05.813]',-0.465
'[10:42:05.820]',-0.455
'[10:42:05.828]',-0.455
'[10:42:05.836]',-0.445
'[10:42:05.844]',-0.435
'[10:42:05.852]',-0.425
'[10:42:05.859]',-0.425
'[10:42:05.867]',-0.415
'[10:42:05.875]',-0.405
'[10:42:05.883]',-0.395
'[10:42:05.891]',-0.395
'[10:42:05.898]',-0.385
'[10:42:05.906]',-0.375
'[10:42:05.914]',-0.365
'[10:42:05.922]',-0.365
'[10:42:05.930]',-0.355
'[10:42:05.938]',-0.335
'[10:42:05.945]',-0.335
'[10:42:05.953]',-0.325
'[10:42:05.961]',-0.295
'[10:42:05.969]',0.045
'[10:42:05.977]',0.805
'[10:42:05.984]',0.725
'[10:42:05.992]',0.705
'[10:42:06.000]',0.695
'[10:42:06.008]',0.695
'[10:42:06.016]',0.675
'[10:42:06.023]',0.665
'[10:42:06.031]',0.665
'[10:42:06.039]',0.655
'[10:42:06.047]',0.635
'[10:42:06.055]',0.635
'[10:42:06.063]',0.615
'[10:42:06.070]',0.605
'[10:42:06.078]',0.595
'[10:42:06.086]',0.585
'[10:42:06.094]',0.575
'[10:42:06.102]',0.565
'[10:42:06.109]',0.545
'[10:42:06.117]',0.545
'[10:42:06.125]',0.535
'[10:42:06.133]',0.525
'[10:42:06.141]',0.515
'[10:42:06.148]',0.515
'[10:42:06.156]',0.505
'[10:42:06.164]',0.495
'[10:42:06.172]',0.475
'[10:42:06.180]',0.475
'[10:42:06.188]',0.465
'[10:42:06.195]',0.455
'[10:42:06.203]',0.445
'[10:42:06.211]',0.435
'[10:42:06.219]',0.425
'[10:42:06.227]',0.415
'[10:42:06.234]',0.405
'[10:42:06.242]',0.405
'[10:42:06.250]',0.395
'[10:42:06.258]',0.385
'[10:42:06.266]',0.375
'[10:42:06.273]',0.365
'[10:42:06.281]',0.355
'[10:42:06.289]',0.355
'[10:42:06.297]',0.335
'[10:42:06.305]',0.345
'[10:42:06.313]',0.315
'[10:42:06.320]',0.315
'[10:42:06.328]',0.315
'[10:42:06.336]',0.305
'[10:42:06.344]',0.295
'[10:42:06.352]',0.285
'[10:42:06.359]',0.275
'[10:42:06.367]',0.275
'[10:42:06.375]',0.265
'[10:42:06.383]',0.255
'[10:42:06.391]',0.245
'[10:42:06.398]',0.245
'[10:42:06.406]',0.225
'[10:42:06.414]',0.225
'[10:42:06.422]',0.215
'[10:42:06.430]',0.215
'[10:42:06.438]',0.205
'[10:42:06.445]',0.185
'[10:42:06.453]',0.175
'[10:42:06.461]',0.155
'[10:42:06.469]',-0.235
'[10:42:06.477]',-0.935
'[10:42:06.484]',-0.865
'[10:42:06.492]',-0.845
'[10:42:06.500]',-0.835
'[10:42:06.508]',-0.835
'[10:42:06.516]',-0.825
'[10:42:06.523]',-0.815
'[10:42:06.531]',-0.795
'[10:42:06.539]',-0.795
'[10:42:06.547]',-0.785
'[10:42:06.555]',-0.775
'[10:42:06.563]',-0.755
'[10:42:06.570]',-0.755
'[10:42:06.578]',-0.735
'[10:42:06.586]',-0.725
'[10:42:06.594]',-0.715
'[10:42:06.602]',-0.715
'[10:42:06.609]',-0.705
'[10:42:06.617]',-0.695
'[10:42:06.625]',-0.685
'[10:42:06.633]',-0.665
'[10:42:06.641]',-0.665
'[10:42:06.648]',-0.655
'[10:42:06.656]',-0.645
'[10:42:06.664]',-0.635
'[10:42:06.672]',-0.635
'[10:42:06.680]',-0.625
'[10:42:06.688]',-0.605
'[10:42:06.695]',-0.605
'[10:42:06.703]',-0.605
'[10:42:06.711]',-0.585
'[10:42:06.719]',-0.575
'[10:42:06.727]',-0.565
'[10:42:06.734]',-0.565
'[10:42:06.742]',-0.555
'[10:42:06.750]',-0.535
'[10:42:06.758]',-0.535
'[10:42:06.766]',-0.525
'[10:42:06.773]',-0.525
'[10:42:06.781]',-0.505
'[10:42:06.789]',-0.495
'[10:42:06.797]',-0.495
'[10:42:06.805]',-0.485
'[10:42:06.813]',-0.475
'[10:42:06.820]',-0.465
'[10:42:06.828]',-0.455
'[10:42:06.836]',-0.445
'[10:42:06.844]',-0.445
'[10:42:06.852]',-0.445
'[10:42:06.859]',-0.435
'[10:42:06.867]',-0.415
'[10:42:06.875]',-0.415
'[10:42:06.883]',-0.405
'[10:42:06.891]',-0.405
'[10:42:06.898]',-0.395
'[10:42:06.906]',-0.385
'[10:42:06.914]',-0.375
'[10:42:06.922]',-0.375
'[10:42:06.930]',-0.365
'[10:42:06.938]',-0.355
'[10:42:06.945]',-0.345
'[10:42:06.953]',-0.325
'[10:42:06.961]',-0.305
'[10:42:06.969]',-0.335
'[10:42:06.977]',0.795
'[10:42:06.984]',0.725
'[10:42:06.992]',0.705
'[10:42:07.000]',0.685
'[10:42:07.008]',0.675
'[10:42:07.016]',0.665
'[10:42:07.023]',0.665
'[10:42:07.031]',0.655
'[10:42:07.039]',0.645
'[10:42:07.047]',0.635
'[10:42:07.055]',0.625
'[10:42:07.063]',0.615
'[10:42:07.070]',0.605
'[10:42:07.078]',0.585
'[10:42:07.086]',0.575
'[10:42:07.094]',0.575
'[10:42:07.102]',0.555
'[10:42:07.109]',0.545
'[10:42:07.117]',0.545
'[10:42:07.125]',0.535
'[10:42:07.133]',0.525
'[10:42:07.141]',0.505
'[10:42:07.148]',0.505
'[10:42:07.156]',0.495
'[10:42:07.164]',0.485
'[10:42:07.172]',0.475
'[10:42:07.180]',0.465
'[10:42:07.188]',0.455
'[10:42:07.195]',0.445
'[10:42:07.203]',0.445
'[10:42:07.211]',0.425
'[10:42:07.219]',0.415
'[10:42:07.227]',0.415
'[10:42:07.234]',0.405
'[10:42:07.242]',0.395
'[10:42:07.250]',0.385
'[10:42:07.258]',0.375
'[10:42:07.266]',0.365
'[10:42:07.273]',0.355
'[10:42:07.281]',0.345
'[10:42:07.289]',0.345
'[10:42:07.297]',0.335
'[10:42:07.305]',0.325
'[10:42:07.313]',0.315
'[10:42:07.320]',0.315
'[10:42:07.328]',0.305
'[10:42:07.336]',0.295
'[10:42:07.344]',0.285
'[10:42:07.352]',0.285
'[10:42:07.359]',0.275
'[10:42:07.367]',0.275
'[10:42:07.375]',0.255
'[10:42:07.383]',0.245
'[10:42:07.391]',0.245
'[10:42:07.398]',0.235
'[10:42:07.406]',0.225
'[10:42:07.414]',0.225
'[10:42:07.422]',0.205
'[10:42:07.430]',0.205
'[10:42:07.438]',0.195
'[10:42:07.445]',0.195
'[10:42:07.453]',0.175
'[10:42:07.461]',0.155
'[10:42:07.469]',0.185
'[10:42:07.477]',-0.955
'[10:42:07.484]',-0.885
'[10:42:07.492]',-0.855
'[10:42:07.500]',-0.845
'[10:42:07.508]',-0.835
'[10:42:07.516]',-0.825
'[10:42:07.523]',-0.815
'[10:42:07.531]',-0.795
'[10:42:07.539]',-0.795
'[10:42:07.547]',-0.785
'[10:42:07.555]',-0.775
'[10:42:07.563]',-0.765
'[10:42:07.570]',-0.755
'[10:42:07.578]',-0.745
'[10:42:07.586]',-0.735
'[10:42:07.594]',-0.715
'[10:42:07.602]',-0.715
'[10:42:07.609]',-0.705
'[10:42:07.617]',-0.695
'[10:42:07.625]',-0.685
'[10:42:07.633]',-0.675
'[10:42:07.641]',-0.665
'[10:42:07.648]',-0.665
'[10:42:07.656]',-0.655
'[10:42:07.664]',-0.645
'[10:42:07.672]',-0.635
'[10:42:07.680]',-0.625
'[10:42:07.688]',-0.615
'[10:42:07.695]',-0.605
'[10:42:07.703]',-0.605
'[10:42:07.711]',-0.585
'[10:42:07.719]',-0.575
'[10:42:07.727]',-0.575
'[10:42:07.734]',-0.565
'[10:42:07.742]',-0.555
'[10:42:07.750]',-0.555
'[10:42:07.758]',-0.535
'[10:42:07.766]',-0.535
'[10:42:07.773]',-0.515
'[10:42:07.781]',-0.515
'[10:42:07.789]',-0.505
'[10:42:07.797]',-0.495
'[10:42:07.805]',-0.485
'[10:42:07.813]',-0.475
'[10:42:07.820]',-0.465
'[10:42:07.828]',-0.465
'[10:42:07.836]',-0.445
'[10:42:07.844]',-0.445
'[10:42:07.852]',-0.435
'[10:42:07.859]',-0.435
'[10:42:07.867]',-0.425
'[10:42:07.875]',-0.405
'[10:42:07.883]',-0.405
'[10:42:07.891]',-0.405
'[10:42:07.898]',-0.395
'[10:42:07.906]',-0.385
'[10:42:07.914]',-0.375
'[10:42:07.922]',-0.375
'[10:42:07.930]',-0.355
'[10:42:07.938]',-0.355
'[10:42:07.945]',-0.345
'[10:42:07.953]',-0.335
'[10:42:07.961]',-0.305
'[10:42:07.969]',0.045
'[10:42:07.977]',0.795
'[10:42:07.984]',0.715
'[10:42:07.992]',0.705
'[10:42:08.000]',0.695
'[10:42:08.008]',0.675
'[10:42:08.016]',0.675
'[10:42:08.023]',0.665
'[10:42:08.031]',0.645
'[10:42:08.039]',0.635
'[10:42:08.047]',0.625
'[10:42:08.055]',0.615
'[10:42:08.063]',0.605
'[10:42:08.070]',0.595
'[10:42:08.078]',0.585
'[10:42:08.086]',0.575
'[10:42:08.094]',0.575
'[10:42:08.102]',0.555
'[10:42:08.109]',0.545
'[10:42:08.117]',0.545
'[10:42:08.125]',0.525
'[10:42:08.133]',0.515
'[10:42:08.141]',0.505
'[10:42:08.148]',0.505
'[10:42:08.156]',0.495
'[10:42:08.164]',0.485
'[10:42:08.172]',0.465
'[10:42:08.180]',0.465
'[10:42:08.188]',0.465
'[10:42:08.195]',0.445
'[10:42:08.203]',0.435
'[10:42:08.211]',0.435
'[10:42:08.219]',0.435
'[10:42:08.227]',0.415
'[10:42:08.234]',0.405
'[10:42:08.242]',0.405
'[10:42:08.250]',0.395
'[10:42:08.258]',0.385
'[10:42:08.266]',0.375
'[10:42:08.273]',0.365
'[10:42:08.281]',0.355
'[10:42:08.289]',0.345
'[10:42:08.297]',0.335
'[10:42:08.305]',0.335
'[10:42:08.313]',0.325
'[10:42:08.320]',0.315
'[10:42:08.328]',0.305
'[10:42:08.336]',0.295
'[10:42:08.344]',0.295
'[10:42:08.352]',0.285
'[10:42:08.359]',0.275
'[10:42:08.367]',0.265
'[10:42:08.375]',0.265
'[10:42:08.383]',0.255
'[10:42:08.391]',0.245
'[10:42:08.398]',0.245
'[10:42:08.406]',0.235
'[10:42:08.414]',0.225
'[10:42:08.422]',0.215
'[10:42:08.430]',0.205
'[10:42:08.438]',0.205
'[10:42:08.445]',0.185
'[10:42:08.453]',0.175
'[10:42:08.461]',0.155
'[10:42:08.469]',-0.035
'[10:42:08.477]',-0.955
'[10:42:08.484]',-0.875
'[10:42:08.492]',-0.855
'[10:42:08.500]',-0.845
'[10:42:08.508]',-0.835
'[10:42:08.516]',-0.825
'[10:42:08.523]',-0.825
'[10:42:08.531]',-0.805
'[10:42:08.539]',-0.805
'[10:42:08.547]',-0.795
'[10:42:08.555]',-0.775
'[10:42:08.563]',-0.765
'[10:42:08.570]',-0.755
'[10:42:08.578]',-0.755
'[10:42:08.586]',-0.735
'[10:42:08.594]',-0.725
'[10:42:08.602]',-0.725
'[10:42:08.609]',-0.715
'[10:42:08.617]',-0.705
'[10:42:08.625]',-0.685
'[10:42:08.633]',-0.685
'[10:42:08.641]',-0.675
'[10:42:08.648]',-0.665
'[10:42:08.656]',-0.655
'[10:42:08.664]',-0.645
'[10:42:08.672]',-0.635
'[10:42:08.680]',-0.625
'[10:42:08.688]',-0.605
'[10:42:08.695]',-0.615
'[10:42:08.703]',-0.605
'[10:42:08.711]',-0.585
'[10:42:08.719]',-0.585
'[10:42:08.727]',-0.575
'[10:42:08.734]',-0.565
'[10:42:08.742]',-0.555
'[10:42:08.750]',-0.535
'[10:42:08.758]',-0.535
'[10:42:08.766]',-0.535
'[10:42:08.773]',-0.515
'[10:42:08.781]',-0.505
'[10:42:08.789]',-0.495
'[10:42:08.797]',-0.495
'[10:42:08.805]',-0.475
'[10:42:08.813]',-0.475
'[10:42:08.820]',-0.465
'[10:42:08.828]',-0.465
'[10:42:08.836]',-0.455
'[10:42:08.844]',-0.445
'[10:42:08.852]',-0.435
'[10:42:08.859]',-0.425
'[10:42:08.867]',-0.415
'[10:42:08.875]',-0.405
'[10:42:08.883]',-0.405
'[10:42:08.891]',-0.405
'[10:42:08.898]',-0.385
'[10:42:08.906]',-0.385
'[10:42:08.914]',-0.375
'[10:42:08.922]',-0.375
'[10:42:08.930]',-0.355
'[10:42:08.938]',-0.355
'[10:42:08.945]',-0.345
'[10:42:08.953]',-0.335
'[10:42:08.961]',-0.315
'[10:42:08.969]',-0.315
'[10:42:08.977]',0.805
'[10:42:08.984]',0.725
'[10:42:08.992]',0.705
'[10:42:09.000]',0.695
'[10:42:09.008]',0.685
'[10:42:09.016]',0.665
'[10:42:09.023]',0.665
'[10:42:09.031]',0.655
'[10:42:09.039]',0.645
'[10:42:09.047]',0.635
'[10:42:09.055]',0.625
'[10:42:09.063]',0.615
'[10:42:09.070]',0.605
'[10:42:09.078]',0.585
'[10:42:09.086]',0.585
'[10:42:09.094]',0.575
'[10:42:09.102]',0.565
'[10:42:09.109]',0.545
'[10:42:09.117]',0.545
'[10:42:09.125]',0.535
'[10:42:09.133]',0.525
'[10:42:09.141]',0.515
'[10:42:09.148]',0.505
'[10:42:09.156]',0.495
'[10:42:09.164]',0.485
'[10:42:09.172]',0.475
'[10:42:09.180]',0.475
'[10:42:09.188]',0.455
'[10:42:09.195]',0.455
'[10:42:09.203]',0.445
'[10:42:09.211]',0.435
'[10:42:09.219]',0.435
'[10:42:09.227]',0.425
'[10:42:09.234]',0.415
'[10:42:09.242]',0.405
'[10:42:09.250]',0.395
'[10:42:09.258]',0.385
'[10:42:09.266]',0.385
'[10:42:09.273]',0.375
'[10:42:09.281]',0.365
'[10:42:09.289]',0.355
'[10:42:09.297]',0.345
'[10:42:09.305]',0.335
'[10:42:09.313]',0.325
'[10:42:09.320]',0.325
'[10:42:09.328]',0.315
'[10:42:09.336]',0.305
'[10:42:09.344]',0.295
'[10:42:09.352]',0.295
'[10:42:09.359]',0.285
'[10:42:09.367]',0.275
'[10:42:09.375]',0.265
'[10:42:09.383]',0.265
'[10:42:09.391]',0.255
'[10:42:09.398]',0.255
'[10:42:09.406]',0.245
'[10:42:09.414]',0.235
'[10:42:09.422]',0.215
'[10:42:09.430]',0.215
'[10:42:09.438]',0.205
'[10:42:09.445]',0.195
'[10:42:09.453]',0.185
'[10:42:09.461]',0.175
'[10:42:09.469]',0.155
'[10:42:09.477]',-0.905
'[10:42:09.484]',-0.885
'[10:42:09.492]',-0.845
'[10:42:09.500]',-0.845
'[10:42:09.508]',-0.835
'[10:42:09.516]',-0.825
'[10:42:09.523]',-0.815
'[10:42:09.531]',-0.805
'[10:42:09.539]',-0.785
'[10:42:09.547]',-0.785
'[10:42:09.555]',-0.775
'[10:42:09.563]',-0.765
'[10:42:09.570]',-0.755
'[10:42:09.578]',-0.745
'[10:42:09.586]',-0.725
'[10:42:09.594]',-0.715
'[10:42:09.602]',-0.715
'[10:42:09.609]',-0.705
'[10:42:09.617]',-0.685
'[10:42:09.625]',-0.685
'[10:42:09.633]',-0.665
'[10:42:09.641]',-0.655
'[10:42:09.648]',-0.645
'[10:42:09.656]',-0.635
'[10:42:09.664]',-0.635
'[10:42:09.672]',-0.625
'[10:42:09.680]',-0.605
'[10:42:09.688]',-0.605
'[10:42:09.695]',-0.605
'[10:42:09.703]',-0.585
'[10:42:09.711]',-0.575
'[10:42:09.719]',-0.575
'[10:42:09.727]',-0.565
'[10:42:09.734]',-0.555
'[10:42:09.742]',-0.535
'[10:42:09.750]',-0.535
'[10:42:09.758]',-0.525
'[10:42:09.766]',-0.525
'[10:42:09.773]',-0.505
'[10:42:09.781]',-0.505
'[10:42:09.789]',-0.495
'[10:42:09.797]',-0.485
'[10:42:09.805]',-0.475
'[10:42:09.813]',-0.465
'[10:42:09.820]',-0.455
'[10:42:09.828]',-0.455
'[10:42:09.836]',-0.445
'[10:42:09.844]',-0.435
'[10:42:09.852]',-0.425
'[10:42:09.859]',-0.425
'[10:42:09.867]',-0.405
'[10:42:09.875]',-0.405
'[10:42:09.883]',-0.395
'[10:42:09.891]',-0.385
'[10:42:09.898]',-0.375
'[10:42:09.906]',-0.365
'[10:42:09.914]',-0.365
'[10:42:09.922]',-0.355
'[10:42:09.930]',-0.355
'[10:42:09.938]',-0.335
'[10:42:09.945]',-0.325
'[10:42:09.953]',-0.325
'[10:42:09.961]',-0.295
'[10:42:09.969]',-0.255
'[10:42:09.977]',0.815
'[10:42:09.984]',0.735
'[10:42:09.992]',0.715
'[10:42:10.000]',0.705
'[10:42:10.008]',0.695
'[10:42:10.016]',0.685
'[10:42:10.023]',0.685
'[10:42:10.031]',0.675
'[10:42:10.039]',0.655
'[10:42:10.047]',0.645
'[10:42:10.055]',0.645
'[10:42:10.063]',0.635
'[10:42:10.070]',0.625
'[10:42:10.078]',0.605
'[10:42:10.086]',0.595
'[10:42:10.094]',0.585
'[10:42:10.102]',0.575
'[10:42:10.109]',0.565
'[10:42:10.117]',0.565
'[10:42:10.125]',0.545
'[10:42:10.133]',0.535
'[10:42:10.141]',0.515
'[10:42:10.148]',0.515
'[10:42:10.156]',0.515
'[10:42:10.164]',0.495
'[10:42:10.172]',0.485
'[10:42:10.180]',0.475
'[10:42:10.188]',0.465
'[10:42:10.195]',0.455
'[10:42:10.203]',0.445
'[10:42:10.211]',0.445
'[10:42:10.219]',0.435
'[10:42:10.227]',0.425
'[10:42:10.234]',0.405
'[10:42:10.242]',0.405
'[10:42:10.250]',0.395
'[10:42:10.258]',0.395
'[10:42:10.266]',0.385
'[10:42:10.273]',0.375
'[10:42:10.281]',0.365
'[10:42:10.289]',0.355
'[10:42:10.297]',0.355
'[10:42:10.305]',0.345
'[10:42:10.313]',0.335
'[10:42:10.320]',0.325
'[10:42:10.328]',0.315
'[10:42:10.336]',0.315
'[10:42:10.344]',0.305
'[10:42:10.352]',0.295
'[10:42:10.359]',0.285
'[10:42:10.367]',0.275
'[10:42:10.375]',0.275
'[10:42:10.383]',0.265
'[10:42:10.391]',0.255
'[10:42:10.398]',0.245
'[10:42:10.406]',0.245
'[10:42:10.414]',0.235
'[10:42:10.422]',0.225
'[10:42:10.430]',0.225
'[10:42:10.438]',0.215
'[10:42:10.445]',0.205
'[10:42:10.453]',0.185
'[10:42:10.461]',0.175
'[10:42:10.469]',0.115
'[10:42:10.477]',-0.945
'[10:42:10.484]',-0.875
'[10:42:10.492]',-0.835
'[10:42:10.500]',-0.825
'[10:42:10.508]',-0.815
'[10:42:10.516]',-0.815
'[10:42:10.523]',-0.805
'[10:42:10.531]',-0.795
'[10:42:10.539]',-0.785
'[10:42:10.547]',-0.775
'[10:42:10.555]',-0.765
'[10:42:10.563]',-0.755
'[10:42:10.570]',-0.735
'[10:42:10.578]',-0.735
'[10:42:10.586]',-0.725
'[10:42:10.594]',-0.705
'[10:42:10.602]',-0.695
'[10:42:10.609]',-0.695
'[10:42:10.617]',-0.685
'[10:42:10.625]',-0.675
'[10:42:10.633]',-0.665
'[10:42:10.641]',-0.655
'[10:42:10.648]',-0.635
'[10:42:10.656]',-0.635
'[10:42:10.664]',-0.625
'[10:42:10.672]',-0.615
'[10:42:10.680]',-0.605
'[10:42:10.688]',-0.595
'[10:42:10.695]',-0.585
'[10:42:10.703]',-0.585
'[10:42:10.711]',-0.575
'[10:42:10.719]',-0.565
'[10:42:10.727]',-0.555
'[10:42:10.734]',-0.555
'[10:42:10.742]',-0.535
'[10:42:10.750]',-0.525
'[10:42:10.758]',-0.515
'[10:42:10.766]',-0.515
'[10:42:10.773]',-0.495
'[10:42:10.781]',-0.485
'[10:42:10.789]',-0.475
'[10:42:10.797]',-0.475
'[10:42:10.805]',-0.465
'[10:42:10.813]',-0.455
'[10:42:10.820]',-0.445
'[10:42:10.828]',-0.445
'[10:42:10.836]',-0.435
'[10:42:10.844]',-0.425
'[10:42:10.852]',-0.415
'[10:42:10.859]',-0.425
'[10:42:10.867]',-0.395
'[10:42:10.875]',-0.395
'[10:42:10.883]',-0.395
'[10:42:10.891]',-0.385
'[10:42:10.898]',-0.375
'[10:42:10.906]',-0.365
'[10:42:10.914]',-0.355
'[10:42:10.922]',-0.355
'[10:42:10.930]',-0.345
'[10:42:10.938]',-0.335
'[10:42:10.945]',-0.325
'[10:42:10.953]',-0.325
'[10:42:10.961]',-0.285
'[10:42:10.969]',-0.295
'[10:42:10.977]',0.815
'[10:42:10.984]',0.735
'[10:42:10.992]',0.715
'[10:42:11.000]',0.705
'[10:42:11.008]',0.695
'[10:42:11.016]',0.675
'[10:42:11.023]',0.675
'[10:42:11.031]',0.665
'[10:42:11.039]',0.655
'[10:42:11.047]',0.645
'[10:42:11.055]',0.635
'[10:42:11.063]',0.625
'[10:42:11.070]',0.615
'[10:42:11.078]',0.595
'[10:42:11.086]',0.595
'[10:42:11.094]',0.585
'[10:42:11.102]',0.565
'[10:42:11.109]',0.555
'[10:42:11.117]',0.555
'[10:42:11.125]',0.545
'[10:42:11.133]',0.535
'[10:42:11.141]',0.525
'[10:42:11.148]',0.515
'[10:42:11.156]',0.505
'[10:42:11.164]',0.495
'[10:42:11.172]',0.485
'[10:42:11.180]',0.485
'[10:42:11.188]',0.475
'[10:42:11.195]',0.465
'[10:42:11.203]',0.445
'[10:42:11.211]',0.445
'[10:42:11.219]',0.435
'[10:42:11.227]',0.425
'[10:42:11.234]',0.415
'[10:42:11.242]',0.415
'[10:42:11.250]',0.405
'[10:42:11.258]',0.395
'[10:42:11.266]',0.375
'[10:42:11.273]',0.375
'[10:42:11.281]',0.365
'[10:42:11.289]',0.355
'[10:42:11.297]',0.345
'[10:42:11.305]',0.345
'[10:42:11.313]',0.335
'[10:42:11.320]',0.325
'[10:42:11.328]',0.315
'[10:42:11.336]',0.315
'[10:42:11.344]',0.295
'[10:42:11.352]',0.295
'[10:42:11.359]',0.285
'[10:42:11.367]',0.285
'[10:42:11.375]',0.275
'[10:42:11.383]',0.255
'[10:42:11.391]',0.255
'[10:42:11.398]',0.255
'[10:42:11.406]',0.235
'[10:42:11.414]',0.235
'[10:42:11.422]',0.225
'[10:42:11.430]',0.215
'[10:42:11.438]',0.205
'[10:42:11.445]',0.195
'[10:42:11.453]',0.185
'[10:42:11.461]',0.165
'[10:42:11.469]',0.185
'[10:42:11.477]',-0.945
'[10:42:11.484]',-0.875
'[10:42:11.492]',-0.845
'[10:42:11.500]',-0.845
'[10:42:11.508]',-0.825
'[10:42:11.516]',-0.825
'[10:42:11.523]',-0.815
'[10:42:11.531]',-0.805
'[10:42:11.539]',-0.795
'[10:42:11.547]',-0.785
'[10:42:11.555]',-0.765
'[10:42:11.563]',-0.755
'[10:42:11.570]',-0.755
'[10:42:11.578]',-0.745
'[10:42:11.586]',-0.735
'[10:42:11.594]',-0.725
'[10:42:11.602]',-0.705
'[10:42:11.609]',-0.705
'[10:42:11.617]',-0.685
'[10:42:11.625]',-0.675
'[10:42:11.633]',-0.665
'[10:42:11.641]',-0.655
'[10:42:11.648]',-0.635
'[10:42:11.656]',-0.625
'[10:42:11.664]',-0.625
'[10:42:11.672]',-0.625
'[10:42:11.680]',-0.605
'[10:42:11.688]',-0.595
'[10:42:11.695]',-0.595
'[10:42:11.703]',-0.585
'[10:42:11.711]',-0.575
'[10:42:11.719]',-0.565
'[10:42:11.727]',-0.555
'[10:42:11.734]',-0.545
'[10:42:11.742]',-0.535
'[10:42:11.750]',-0.525
'[10:42:11.758]',-0.525
'[10:42:11.766]',-0.525
'[10:42:11.773]',-0.505
'[10:42:11.781]',-0.495
'[10:42:11.789]',-0.495
'[10:42:11.797]',-0.495
'[10:42:11.805]',-0.475
'[10:42:11.813]',-0.465
'[10:42:11.820]',-0.455
'[10:42:11.828]',-0.455
'[10:42:11.836]',-0.445
'[10:42:11.844]',-0.435
'[10:42:11.852]',-0.425
'[10:42:11.859]',-0.425
'[10:42:11.867]',-0.415
'[10:42:11.875]',-0.405
'[10:42:11.883]',-0.395
'[10:42:11.891]',-0.385
'[10:42:11.898]',-0.375
'[10:42:11.906]',-0.375
'[10:42:11.914]',-0.375
'[10:42:11.922]',-0.365
'[10:42:11.930]',-0.355
'[10:42:11.938]',-0.345
'[10:42:11.945]',-0.335
'[10:42:11.953]',-0.325
'[10:42:11.961]',-0.295
'[10:42:11.969]',0.195
'[10:42:11.977]',0.795
'[10:42:11.984]',0.715
'[10:42:11.992]',0.705
'[10:42:12.000]',0.695
'[10:42:12.008]',0.685
'[10:42:12.016]',0.675
'[10:42:12.023]',0.675
'[10:42:12.031]',0.665
'[10:42:12.039]',0.645
'[10:42:12.047]',0.635
'[10:42:12.055]',0.635
'[10:42:12.063]',0.615
'[10:42:12.070]',0.605
'[10:42:12.078]',0.595
'[10:42:12.086]',0.595
'[10:42:12.094]',0.575
'[10:42:12.102]',0.565
'[10:42:12.109]',0.555
'[10:42:12.117]',0.555
'[10:42:12.125]',0.545
'[10:42:12.133]',0.535
'[10:42:12.141]',0.515
'[10:42:12.148]',0.515
'[10:42:12.156]',0.505
'[10:42:12.164]',0.485
'[10:42:12.172]',0.475
'[10:42:12.180]',0.475
'[10:42:12.188]',0.465
'[10:42:12.195]',0.455
'[10:42:12.203]',0.445
'[10:42:12.211]',0.445
'[10:42:12.219]',0.425
'[10:42:12.227]',0.415
'[10:42:12.234]',0.405
'[10:42:12.242]',0.405
'[10:42:12.250]',0.395
'[10:42:12.258]',0.385
'[10:42:12.266]',0.365
'[10:42:12.273]',0.375
'[10:42:12.281]',0.365
'[10:42:12.289]',0.345
'[10:42:12.297]',0.345
'[10:42:12.305]',0.335
'[10:42:12.313]',0.335
'[10:42:12.320]',0.315
'[10:42:12.328]',0.305
'[10:42:12.336]',0.305
'[10:42:12.344]',0.305
'[10:42:12.352]',0.285
'[10:42:12.359]',0.275
'[10:42:12.367]',0.275
'[10:42:12.375]',0.265
'[10:42:12.383]',0.255
'[10:42:12.391]',0.245
'[10:42:12.398]',0.245
'[10:42:12.406]',0.235
'[10:42:12.414]',0.225
'[10:42:12.422]',0.215
'[10:42:12.430]',0.215
'[10:42:12.438]',0.205
'[10:42:12.445]',0.195
'[10:42:12.453]',0.175
'[10:42:12.461]',0.155
'[10:42:12.469]',0.005
'[10:42:12.477]',-0.955
'[10:42:12.484]',-0.875
'[10:42:12.492]',-0.845
'[10:42:12.500]',-0.835
'[10:42:12.508]',-0.825
'[10:42:12.516]',-0.825
'[10:42:12.523]',-0.805
'[10:42:12.531]',-0.795
'[10:42:12.539]',-0.785
'[10:42:12.547]',-0.785
'[10:42:12.555]',-0.765
'[10:42:12.563]',-0.755
'[10:42:12.570]',-0.755
'[10:42:12.578]',-0.745
'[10:42:12.586]',-0.735
'[10:42:12.594]',-0.715
'[10:42:12.602]',-0.715
'[10:42:12.609]',-0.705
'[10:42:12.617]',-0.695
'[10:42:12.625]',-0.685
'[10:42:12.633]',-0.665
'[10:42:12.641]',-0.665
'[10:42:12.648]',-0.655
'[10:42:12.656]',-0.645
'[10:42:12.664]',-0.635
'[10:42:12.672]',-0.635
'[10:42:12.680]',-0.615
'[10:42:12.688]',-0.615
'[10:42:12.695]',-0.605
'[10:42:12.703]',-0.595
'[10:42:12.711]',-0.585
'[10:42:12.719]',-0.565
'[10:42:12.727]',-0.565
'[10:42:12.734]',-0.565
'[10:42:12.742]',-0.555
'[10:42:12.750]',-0.545
'[10:42:12.758]',-0.535
'[10:42:12.766]',-0.525
'[10:42:12.773]',-0.515
'[10:42:12.781]',-0.495
'[10:42:12.789]',-0.495
'[10:42:12.797]',-0.485
'[10:42:12.805]',-0.475
'[10:42:12.813]',-0.465
'[10:42:12.820]',-0.455
'[10:42:12.828]',-0.455
'[10:42:12.836]',-0.435
'[10:42:12.844]',-0.435
'[10:42:12.852]',-0.425
'[10:42:12.859]',-0.425
'[10:42:12.867]',-0.415
'[10:42:12.875]',-0.395
'[10:42:12.883]',-0.395
'[10:42:12.891]',-0.385
'[10:42:12.898]',-0.375
'[10:42:12.906]',-0.375
'[10:42:12.914]',-0.365
'[10:42:12.922]',-0.355
'[10:42:12.930]',-0.345
'[10:42:12.938]',-0.335
'[10:42:12.945]',-0.325
'[10:42:12.953]',-0.325
'[10:42:12.961]',-0.305
'[10:42:12.969]',-0.325
'[10:42:12.977]',0.805
'[10:42:12.984]',0.725
'[10:42:12.992]',0.705
'[10:42:13.000]',0.695
'[10:42:13.008]',0.695
'[10:42:13.016]',0.685
'[10:42:13.023]',0.665
'[10:42:13.031]',0.665
'[10:42:13.039]',0.655
'[10:42:13.047]',0.635
'[10:42:13.055]',0.635
'[10:42:13.063]',0.615
'[10:42:13.070]',0.605
'[10:42:13.078]',0.595
'[10:42:13.086]',0.595
'[10:42:13.094]',0.575
'[10:42:13.102]',0.565
'[10:42:13.109]',0.555
'[10:42:13.117]',0.555
'[10:42:13.125]',0.535
'[10:42:13.133]',0.535
'[10:42:13.141]',0.515
'[10:42:13.148]',0.515
'[10:42:13.156]',0.505
'[10:42:13.164]',0.495
'[10:42:13.172]',0.475
'[10:42:13.180]',0.475
'[10:42:13.188]',0.465
'[10:42:13.195]',0.455
'[10:42:13.203]',0.445
'[10:42:13.211]',0.435
'[10:42:13.219]',0.425
'[10:42:13.227]',0.415
'[10:42:13.234]',0.415
'[10:42:13.242]',0.405
'[10:42:13.250]',0.395
'[10:42:13.258]',0.395
'[10:42:13.266]',0.385
'[10:42:13.273]',0.375
'[10:42:13.281]',0.365
'[10:42:13.289]',0.355
'[10:42:13.297]',0.345
'[10:42:13.305]',0.345
'[10:42:13.313]',0.325
'[10:42:13.320]',0.315
'[10:42:13.328]',0.315
'[10:42:13.336]',0.305
'[10:42:13.344]',0.295
'[10:42:13.352]',0.295
'[10:42:13.359]',0.285
'[10:42:13.367]',0.285
'[10:42:13.375]',0.265
'[10:42:13.383]',0.255
'[10:42:13.391]',0.245
'[10:42:13.398]',0.245
'[10:42:13.406]',0.235
'[10:42:13.414]',0.225
'[10:42:13.422]',0.215
'[10:42:13.430]',0.215
'[10:42:13.438]',0.205
'[10:42:13.445]',0.195
'[10:42:13.453]',0.185
'[10:42:13.461]',0.155
'[10:42:13.469]',0.075
'[10:42:13.477]',-0.935
'[10:42:13.484]',-0.865
'[10:42:13.492]',-0.845
'[10:42:13.500]',-0.835
'[10:42:13.508]',-0.825
'[10:42:13.516]',-0.825
'[10:42:13.523]',-0.805
'[10:42:13.531]',-0.795
'[10:42:13.539]',-0.795
'[10:42:13.547]',-0.785
'[10:42:13.555]',-0.765
'[10:42:13.563]',-0.765
'[10:42:13.570]',-0.755
'[10:42:13.578]',-0.745
'[10:42:13.586]',-0.735
'[10:42:13.594]',-0.715
'[10:42:13.602]',-0.715
'[10:42:13.609]',-0.715
'[10:42:13.617]',-0.695
'[10:42:13.625]',-0.685
'[10:42:13.633]',-0.675
'[10:42:13.641]',-0.665
'[10:42:13.648]',-0.655
'[10:42:13.656]',-0.635
'[10:42:13.664]',-0.635
'[10:42:13.672]',-0.635
'[10:42:13.680]',-0.615
'[10:42:13.688]',-0.605
'[10:42:13.695]',-0.595
'[10:42:13.703]',-0.595
'[10:42:13.711]',-0.575
'[10:42:13.719]',-0.565
'[10:42:13.727]',-0.565
'[10:42:13.734]',-0.565
'[10:42:13.742]',-0.545
'[10:42:13.750]',-0.535
'[10:42:13.758]',-0.525
'[10:42:13.766]',-0.525
'[10:42:13.773]',-0.515
'[10:42:13.781]',-0.505
'[10:42:13.789]',-0.495
'[10:42:13.797]',-0.485
'[10:42:13.805]',-0.475
'[10:42:13.813]',-0.475
'[10:42:13.820]',-0.465
'[10:42:13.828]',-0.455
'[10:42:13.836]',-0.445
'[10:42:13.844]',-0.435
'[10:42:13.852]',-0.435
'[10:42:13.859]',-0.425
'[10:42:13.867]',-0.415
'[10:42:13.875]',-0.405
'[10:42:13.883]',-0.405
'[10:42:13.891]',-0.395
'[10:42:13.898]',-0.385
'[10:42:13.906]',-0.375
'[10:42:13.914]',-0.365
'[10:42:13.922]',-0.365
'[10:42:13.930]',-0.355
'[10:42:13.938]',-0.345
'[10:42:13.945]',-0.335
'[10:42:13.953]',-0.325
'[10:42:13.961]',-0.295
'[10:42:13.969]',0.055
'[10:42:13.977]',0.795
'[10:42:13.984]',0.725
'[10:42:13.992]',0.705
'[10:42:14.000]',0.695
'[10:42:14.008]',0.685
'[10:42:14.016]',0.675
'[10:42:14.023]',0.665
'[10:42:14.031]',0.655
'[10:42:14.039]',0.645
'[10:42:14.047]',0.635
'[10:42:14.055]',0.625
'[10:42:14.063]',0.615
'[10:42:14.070]',0.605
'[10:42:14.078]',0.585
'[10:42:14.086]',0.585
'[10:42:14.094]',0.575
'[10:42:14.102]',0.565
'[10:42:14.109]',0.555
'[10:42:14.117]',0.545
'[10:42:14.125]',0.535
'[10:42:14.133]',0.525
'[10:42:14.141]',0.515
'[10:42:14.148]',0.505
'[10:42:14.156]',0.495
'[10:42:14.164]',0.495
'[10:42:14.172]',0.475
'[10:42:14.180]',0.465
'[10:42:14.188]',0.465
'[10:42:14.195]',0.455
'[10:42:14.203]',0.445
'[10:42:14.211]',0.425
'[10:42:14.219]',0.425
'[10:42:14.227]',0.415
'[10:42:14.234]',0.405
'[10:42:14.242]',0.395
'[10:42:14.250]',0.395
'[10:42:14.258]',0.385
'[10:42:14.266]',0.375
'[10:42:14.273]',0.365
'[10:42:14.281]',0.355
'[10:42:14.289]',0.355
'[10:42:14.297]',0.335
'[10:42:14.305]',0.335
'[10:42:14.313]',0.325
'[10:42:14.320]',0.315
'[10:42:14.328]',0.305
'[10:42:14.336]',0.305
'[10:42:14.344]',0.295
'[10:42:14.352]',0.285
'[10:42:14.359]',0.275
'[10:42:14.367]',0.275
'[10:42:14.375]',0.265
'[10:42:14.383]',0.255
'[10:42:14.391]',0.245
'[10:42:14.398]',0.245
'[10:42:14.406]',0.235
'[10:42:14.414]',0.225
'[10:42:14.422]',0.215
'[10:42:14.430]',0.215
'[10:42:14.438]',0.205
'[10:42:14.445]',0.195
'[10:42:14.453]',0.175
'[10:42:14.461]',0.165
'[10:42:14.469]',0.175
'[10:42:14.477]',-0.945
'[10:42:14.484]',-0.885
'[10:42:14.492]',-0.855
'[10:42:14.500]',-0.835
'[10:42:14.508]',-0.825
'[10:42:14.516]',-0.825
'[10:42:14.523]',-0.815
'[10:42:14.531]',-0.805
'[10:42:14.539]',-0.795
'[10:42:14.547]',-0.785
'[10:42:14.555]',-0.775
'[10:42:14.563]',-0.765
'[10:42:14.570]',-0.745
'[10:42:14.578]',-0.745
'[10:42:14.586]',-0.735
'[10:42:14.594]',-0.725
'[10:42:14.602]',-0.715
'[10:42:14.609]',-0.705
'[10:42:14.617]',-0.695
'[10:42:14.625]',-0.675
'[10:42:14.633]',-0.665
'[10:42:14.641]',-0.665
'[10:42:14.648]',-0.655
'[10:42:14.656]',-0.645
'[10:42:14.664]',-0.635
'[10:42:14.672]',-0.625
'[10:42:14.680]',-0.625
'[10:42:14.688]',-0.605
'[10:42:14.695]',-0.595
'[10:42:14.703]',-0.595
'[10:42:14.711]',-0.575
'[10:42:14.719]',-0.575
'[10:42:14.727]',-0.565
'[10:42:14.734]',-0.565
'[10:42:14.742]',-0.545
'[10:42:14.750]',-0.535
'[10:42:14.758]',-0.525
'[10:42:14.766]',-0.525
'[10:42:14.773]',-0.505
'[10:42:14.781]',-0.485
'[10:42:14.789]',-0.485
'[10:42:14.797]',-0.475
'[10:42:14.805]',-0.455
'[10:42:14.813]',-0.445
'[10:42:14.820]',-0.435
'[10:42:14.828]',-0.435
'[10:42:14.836]',-0.425
'[10:42:14.844]',-0.425
'[10:42:14.852]',-0.415
'[10:42:14.859]',-0.415
'[10:42:14.867]',-0.405
'[10:42:14.875]',-0.395
'[10:42:14.883]',-0.385
'[10:42:14.891]',-0.385
'[10:42:14.898]',-0.375
'[10:42:14.906]',-0.375
'[10:42:14.914]',-0.365
'[10:42:14.922]',-0.365
'[10:42:14.930]',-0.355
'[10:42:14.938]',-0.345
'[10:42:14.945]',-0.335
'[10:42:14.953]',-0.325
'[10:42:14.961]',-0.295
'[10:42:14.969]',-0.195
'[10:42:14.977]',0.765
'[10:42:14.984]',0.715
'[10:42:14.992]',0.695
'[10:42:15.000]',0.685
'[10:42:15.008]',0.675
'[10:42:15.016]',0.665
'[10:42:15.023]',0.665
'[10:42:15.031]',0.655
'[10:42:15.039]',0.635
'[10:42:15.047]',0.625
'[10:42:15.055]',0.625
'[10:42:15.063]',0.605
'[10:42:15.070]',0.595
'[10:42:15.078]',0.585
'[10:42:15.086]',0.585
'[10:42:15.094]',0.575
'[10:42:15.102]',0.555
'[10:42:15.109]',0.545
'[10:42:15.117]',0.545
'[10:42:15.125]',0.525
'[10:42:15.133]',0.515
'[10:42:15.141]',0.505
'[10:42:15.148]',0.495
'[10:42:15.156]',0.495
'[10:42:15.164]',0.485
'[10:42:15.172]',0.465
'[10:42:15.180]',0.465
'[10:42:15.188]',0.455
'[10:42:15.195]',0.445
'[10:42:15.203]',0.425
'[10:42:15.211]',0.435
'[10:42:15.219]',0.425
'[10:42:15.227]',0.405
'[10:42:15.234]',0.395
'[10:42:15.242]',0.395
'[10:42:15.250]',0.385
'[10:42:15.258]',0.375
'[10:42:15.266]',0.365
'[10:42:15.273]',0.365
'[10:42:15.281]',0.355
'[10:42:15.289]',0.335
'[10:42:15.297]',0.325
'[10:42:15.305]',0.325
'[10:42:15.313]',0.315
'[10:42:15.320]',0.315
'[10:42:15.328]',0.295
'[10:42:15.336]',0.295
'[10:42:15.344]',0.285
'[10:42:15.352]',0.275
'[10:42:15.359]',0.265
'[10:42:15.367]',0.265
'[10:42:15.375]',0.255
'[10:42:15.383]',0.245
'[10:42:15.391]',0.245
'[10:42:15.398]',0.235
'[10:42:15.406]',0.235
'[10:42:15.414]',0.215
'[10:42:15.422]',0.215
'[10:42:15.430]',0.215
'[10:42:15.438]',0.205
'[10:42:15.445]',0.195
'[10:42:15.453]',0.175
'[10:42:15.461]',0.155
'[10:42:15.469]',-0.005
'[10:42:15.477]',-0.935
'[10:42:15.484]',-0.865
'[10:42:15.492]',-0.845
'[10:42:15.500]',-0.835
'[10:42:15.508]',-0.825
'[10:42:15.516]',-0.815
'[10:42:15.523]',-0.805
'[10:42:15.531]',-0.795
'[10:42:15.539]',-0.785
'[10:42:15.547]',-0.785
'[10:42:15.555]',-0.765
'[10:42:15.563]',-0.765
'[10:42:15.570]',-0.755
'[10:42:15.578]',-0.735
'[10:42:15.586]',-0.725
'[10:42:15.594]',-0.715
'[10:42:15.602]',-0.705
'[10:42:15.609]',-0.705
'[10:42:15.617]',-0.685
'[10:42:15.625]',-0.675
'[10:42:15.633]',-0.675
'[10:42:15.641]',-0.665
'[10:42:15.648]',-0.655
'[10:42:15.656]',-0.645
'[10:42:15.664]',-0.635
'[10:42:15.672]',-0.625
'[10:42:15.680]',-0.615
'[10:42:15.688]',-0.605
'[10:42:15.695]',-0.605
'[10:42:15.703]',-0.595
'[10:42:15.711]',-0.585
'[10:42:15.719]',-0.575
'[10:42:15.727]',-0.575
'[10:42:15.734]',-0.565
'[10:42:15.742]',-0.545
'[10:42:15.750]',-0.545
'[10:42:15.758]',-0.545
'[10:42:15.766]',-0.525
'[10:42:15.773]',-0.515
'[10:42:15.781]',-0.505
'[10:42:15.789]',-0.495
'[10:42:15.797]',-0.495
'[10:42:15.805]',-0.485
'[10:42:15.813]',-0.475
'[10:42:15.820]',-0.465
'[10:42:15.828]',-0.465
'[10:42:15.836]',-0.445
'[10:42:15.844]',-0.445
'[10:42:15.852]',-0.435
'[10:42:15.859]',-0.435
'[10:42:15.867]',-0.415
'[10:42:15.875]',-0.405
'[10:42:15.883]',-0.405
'[10:42:15.891]',-0.395
'[10:42:15.898]',-0.385
'[10:42:15.906]',-0.375
'[10:42:15.914]',-0.365
'[10:42:15.922]',-0.365
'[10:42:15.930]',-0.345
'[10:42:15.938]',-0.345
'[10:42:15.945]',-0.335
'[10:42:15.953]',-0.325
'[10:42:15.961]',-0.295
'[10:42:15.969]',-0.275
'[10:42:15.977]',0.755
'[10:42:15.984]',0.715
'[10:42:15.992]',0.695
'[10:42:16.000]',0.685
'[10:42:16.008]',0.685
'[10:42:16.016]',0.665
'[10:42:16.023]',0.665
'[10:42:16.031]',0.655
'[10:42:16.039]',0.645
'[10:42:16.047]',0.635
'[10:42:16.055]',0.625
'[10:42:16.063]',0.605
'[10:42:16.070]',0.605
'[10:42:16.078]',0.585
'[10:42:16.086]',0.585
'[10:42:16.094]',0.565
'[10:42:16.102]',0.555
'[10:42:16.109]',0.545
'[10:42:16.117]',0.545
'[10:42:16.125]',0.535
'[10:42:16.133]',0.525
'[10:42:16.141]',0.505
'[10:42:16.148]',0.505
'[10:42:16.156]',0.495
'[10:42:16.164]',0.485
'[10:42:16.172]',0.475
'[10:42:16.180]',0.465
'[10:42:16.188]',0.455
'[10:42:16.195]',0.445
'[10:42:16.203]',0.435
'[10:42:16.211]',0.425
'[10:42:16.219]',0.425
'[10:42:16.227]',0.415
'[10:42:16.234]',0.395
'[10:42:16.242]',0.395
'[10:42:16.250]',0.385
'[10:42:16.258]',0.375
'[10:42:16.266]',0.365
'[10:42:16.273]',0.365
'[10:42:16.281]',0.355
'[10:42:16.289]',0.345
'[10:42:16.297]',0.335
'[10:42:16.305]',0.335
'[10:42:16.313]',0.325
'[10:42:16.320]',0.305
'[10:42:16.328]',0.295
'[10:42:16.336]',0.305
'[10:42:16.344]',0.295
'[10:42:16.352]',0.275
'[10:42:16.359]',0.265
'[10:42:16.367]',0.265
'[10:42:16.375]',0.255
'[10:42:16.383]',0.245
'[10:42:16.391]',0.235
'[10:42:16.398]',0.235
'[10:42:16.406]',0.225
'[10:42:16.414]',0.215
'[10:42:16.422]',0.205
'[10:42:16.430]',0.205
'[10:42:16.438]',0.195
'[10:42:16.445]',0.185
'[10:42:16.453]',0.175
'[10:42:16.461]',0.155
'[10:42:16.469]',-0.205
'[10:42:16.477]',-0.945
'[10:42:16.484]',-0.875
'[10:42:16.492]',-0.855
'[10:42:16.500]',-0.845
'[10:42:16.508]',-0.845
'[10:42:16.516]',-0.825
'[10:42:16.523]',-0.815
'[10:42:16.531]',-0.805
'[10:42:16.539]',-0.795
'[10:42:16.547]',-0.785
'[10:42:16.555]',-0.775
'[10:42:16.563]',-0.765
'[10:42:16.570]',-0.755
'[10:42:16.578]',-0.755
'[10:42:16.586]',-0.735
'[10:42:16.594]',-0.725
'[10:42:16.602]',-0.725
'[10:42:16.609]',-0.715
'[10:42:16.617]',-0.695
'[10:42:16.625]',-0.685
'[10:42:16.633]',-0.675
'[10:42:16.641]',-0.675
'[10:42:16.648]',-0.655
'[10:42:16.656]',-0.655
'[10:42:16.664]',-0.645
'[10:42:16.672]',-0.635
'[10:42:16.680]',-0.625
'[10:42:16.688]',-0.615
'[10:42:16.695]',-0.605
'[10:42:16.703]',-0.595
'[10:42:16.711]',-0.585
'[10:42:16.719]',-0.575
'[10:42:16.727]',-0.575
'[10:42:16.734]',-0.565
'[10:42:16.742]',-0.555
'[10:42:16.750]',-0.545
'[10:42:16.758]',-0.535
'[10:42:16.766]',-0.535
'[10:42:16.773]',-0.515
'[10:42:16.781]',-0.505
'[10:42:16.789]',-0.505
'[10:42:16.797]',-0.505
'[10:42:16.805]',-0.475
'[10:42:16.813]',-0.475
'[10:42:16.820]',-0.465
'[10:42:16.828]',-0.455
'[10:42:16.836]',-0.445
'[10:42:16.844]',-0.445
'[10:42:16.852]',-0.435
'[10:42:16.859]',-0.425
'[10:42:16.867]',-0.415
'[10:42:16.875]',-0.415
'[10:42:16.883]',-0.405
'[10:42:16.891]',-0.395
'[10:42:16.898]',-0.385
'[10:42:16.906]',-0.385
'[10:42:16.914]',-0.375
'[10:42:16.922]',-0.365
'[10:42:16.930]',-0.355
'[10:42:16.938]',-0.345
'[10:42:16.945]',-0.335
'[10:42:16.953]',-0.325
'[10:42:16.961]',-0.305
'[10:42:16.969]',-0.125
'[10:42:16.977]',0.785
'[10:42:16.984]',0.705
'[10:42:16.992]',0.695
'[10:42:17.000]',0.685
'[10:42:17.008]',0.675
'[10:42:17.016]',0.665
'[10:42:17.023]',0.665
'[10:42:17.031]',0.645
'[10:42:17.039]',0.635
'[10:42:17.047]',0.625
'[10:42:17.055]',0.625
'[10:42:17.063]',0.615
'[10:42:17.070]',0.605
'[10:42:17.078]',0.595
'[10:42:17.086]',0.585
'[10:42:17.094]',0.575
'[10:42:17.102]',0.575
'[10:42:17.109]',0.555
'[10:42:17.117]',0.545
'[10:42:17.125]',0.535
'[10:42:17.133]',0.525
'[10:42:17.141]',0.515
'[10:42:17.148]',0.505
'[10:42:17.156]',0.495
'[10:42:17.164]',0.485
'[10:42:17.172]',0.475
'[10:42:17.180]',0.475
'[10:42:17.188]',0.465
'[10:42:17.195]',0.455
'[10:42:17.203]',0.445
'[10:42:17.211]',0.435
'[10:42:17.219]',0.425
'[10:42:17.227]',0.415
'[10:42:17.234]',0.405
'[10:42:17.242]',0.405
'[10:42:17.250]',0.395
'[10:42:17.258]',0.385
'[10:42:17.266]',0.375
'[10:42:17.273]',0.365
'[10:42:17.281]',0.365
'[10:42:17.289]',0.345
'[10:42:17.297]',0.345
'[10:42:17.305]',0.335
'[10:42:17.313]',0.315
'[10:42:17.320]',0.315
'[10:42:17.328]',0.305
'[10:42:17.336]',0.305
'[10:42:17.344]',0.295
'[10:42:17.352]',0.295
'[10:42:17.359]',0.275
'[10:42:17.367]',0.275
'[10:42:17.375]',0.265
'[10:42:17.383]',0.265
'[10:42:17.391]',0.245
'[10:42:17.398]',0.245
'[10:42:17.406]',0.235
'[10:42:17.414]',0.225
'[10:42:17.422]',0.215
'[10:42:17.430]',0.215
'[10:42:17.438]',0.195
'[10:42:17.445]',0.185
'[10:42:17.453]',0.175
'[10:42:17.461]',0.155
'[10:42:17.469]',-0.185
'[10:42:17.477]',-0.935
'[10:42:17.484]',-0.865
'[10:42:17.492]',-0.845
'[10:42:17.500]',-0.835
'[10:42:17.508]',-0.835
'[10:42:17.516]',-0.825
'[10:42:17.523]',-0.805
'[10:42:17.531]',-0.805
'[10:42:17.539]',-0.795
'[10:42:17.547]',-0.785
'[10:42:17.555]',-0.775
'[10:42:17.563]',-0.765
'[10:42:17.570]',-0.755
'[10:42:17.578]',-0.745
'[10:42:17.586]',-0.735
'[10:42:17.594]',-0.725
'[10:42:17.602]',-0.715
'[10:42:17.609]',-0.705
'[10:42:17.617]',-0.695
'[10:42:17.625]',-0.685
'[10:42:17.633]',-0.675
'[10:42:17.641]',-0.665
'[10:42:17.648]',-0.655
'[10:42:17.656]',-0.645
'[10:42:17.664]',-0.645
'[10:42:17.672]',-0.625
'[10:42:17.680]',-0.615
'[10:42:17.688]',-0.605
'[10:42:17.695]',-0.595
'[10:42:17.703]',-0.595
'[10:42:17.711]',-0.585
'[10:42:17.719]',-0.575
'[10:42:17.727]',-0.565
'[10:42:17.734]',-0.555
'[10:42:17.742]',-0.545
'[10:42:17.750]',-0.545
'[10:42:17.758]',-0.535
'[10:42:17.766]',-0.525
'[10:42:17.773]',-0.515
'[10:42:17.781]',-0.505
'[10:42:17.789]',-0.495
'[10:42:17.797]',-0.495
'[10:42:17.805]',-0.475
'[10:42:17.813]',-0.475
'[10:42:17.820]',-0.465
'[10:42:17.828]',-0.455
'[10:42:17.836]',-0.445
'[10:42:17.844]',-0.445
'[10:42:17.852]',-0.435
'[10:42:17.859]',-0.425
'[10:42:17.867]',-0.415
'[10:42:17.875]',-0.405
'[10:42:17.883]',-0.395
'[10:42:17.891]',-0.395
'[10:42:17.898]',-0.385
'[10:42:17.906]',-0.375
'[10:42:17.914]',-0.365
'[10:42:17.922]',-0.365
'[10:42:17.930]',-0.355
'[10:42:17.938]',-0.345
'[10:42:17.945]',-0.335
'[10:42:17.953]',-0.335
'[10:42:17.961]',-0.305
'[10:42:17.969]',-0.275
'[10:42:17.977]',0.805
'[10:42:17.984]',0.725
'[10:42:17.992]',0.705
'[10:42:18.000]',0.695
'[10:42:18.008]',0.685
'[10:42:18.016]',0.675
'[10:42:18.023]',0.665
'[10:42:18.031]',0.655
'[10:42:18.039]',0.645
'[10:42:18.047]',0.625
'[10:42:18.055]',0.625
'[10:42:18.063]',0.615
'[10:42:18.070]',0.595
'[10:42:18.078]',0.585
'[10:42:18.086]',0.585
'[10:42:18.094]',0.575
'[10:42:18.102]',0.565
'[10:42:18.109]',0.545
'[10:42:18.117]',0.545
'[10:42:18.125]',0.535
'[10:42:18.133]',0.525
'[10:42:18.141]',0.515
'[10:42:18.148]',0.505
'[10:42:18.156]',0.505
'[10:42:18.164]',0.495
'[10:42:18.172]',0.475
'[10:42:18.180]',0.475
'[10:42:18.188]',0.465
'[10:42:18.195]',0.455
'[10:42:18.203]',0.435
'[10:42:18.211]',0.435
'[10:42:18.219]',0.425
'[10:42:18.227]',0.425
'[10:42:18.234]',0.415
'[10:42:18.242]',0.405
'[10:42:18.250]',0.395
'[10:42:18.258]',0.385
'[10:42:18.266]',0.385
'[10:42:18.273]',0.365
'[10:42:18.281]',0.365
'[10:42:18.289]',0.345
'[10:42:18.297]',0.335
'[10:42:18.305]',0.335
'[10:42:18.313]',0.315
'[10:42:18.320]',0.315
'[10:42:18.328]',0.305
'[10:42:18.336]',0.305
'[10:42:18.344]',0.295
'[10:42:18.352]',0.285
'[10:42:18.359]',0.275
'[10:42:18.367]',0.275
'[10:42:18.375]',0.265
'[10:42:18.383]',0.265
'[10:42:18.391]',0.255
'[10:42:18.398]',0.245
'[10:42:18.406]',0.235
'[10:42:18.414]',0.235
'[10:42:18.422]',0.225
'[10:42:18.430]',0.215
'[10:42:18.438]',0.205
'[10:42:18.445]',0.195
'[10:42:18.453]',0.185
'[10:42:18.461]',0.165
'[10:42:18.469]',0.185
'[10:42:18.477]',-0.945
'[10:42:18.484]',-0.875
'[10:42:18.492]',-0.835
'[10:42:18.500]',-0.835
'[10:42:18.508]',-0.825
'[10:42:18.516]',-0.815
'[10:42:18.523]',-0.805
'[10:42:18.531]',-0.795
'[10:42:18.539]',-0.785
'[10:42:18.547]',-0.785
'[10:42:18.555]',-0.755
'[10:42:18.563]',-0.755
'[10:42:18.570]',-0.745
'[10:42:18.578]',-0.735
'[10:42:18.586]',-0.715
'[10:42:18.594]',-0.715
'[10:42:18.602]',-0.695
'[10:42:18.609]',-0.695
'[10:42:18.617]',-0.685
'[10:42:18.625]',-0.665
'[10:42:18.633]',-0.655
'[10:42:18.641]',-0.645
'[10:42:18.648]',-0.635
'[10:42:18.656]',-0.625
'[10:42:18.664]',-0.615
'[10:42:18.672]',-0.605
'[10:42:18.680]',-0.585
'[10:42:18.688]',-0.585
'[10:42:18.695]',-0.565
'[10:42:18.703]',-0.565
'[10:42:18.711]',-0.545
'[10:42:18.719]',-0.545
'[10:42:18.727]',-0.535
'[10:42:18.734]',-0.525
'[10:42:18.742]',-0.505
'[10:42:18.750]',-0.495
'[10:42:18.758]',-0.495
'[10:42:18.766]',-0.485
'[10:42:18.773]',-0.485
'[10:42:18.781]',-0.475
'[10:42:18.789]',-0.465
'[10:42:18.797]',-0.455
'[10:42:18.805]',-0.455
'[10:42:18.813]',-0.445
'[10:42:18.820]',-0.435
'[10:42:18.828]',-0.435
'[10:42:18.836]',-0.415
'[10:42:18.844]',-0.405
'[10:42:18.852]',-0.395
'[10:42:18.859]',-0.385
'[10:42:18.867]',-0.375
'[10:42:18.875]',-0.365
'[10:42:18.883]',-0.355
'[10:42:18.891]',-0.365
'[10:42:18.898]',-0.355
'[10:42:18.906]',-0.345
'[10:42:18.914]',-0.335
'[10:42:18.922]',-0.325
'[10:42:18.930]',-0.305
'[10:42:18.938]',-0.305
'[10:42:18.945]',-0.295
'[10:42:18.953]',-0.285
'[10:42:18.961]',-0.255
'[10:42:18.969]',0.035
'[10:42:18.977]',0.735
'[10:42:18.984]',0.685
'[10:42:18.992]',0.675
'[10:42:19.000]',0.675
'[10:42:19.008]',0.665
'[10:42:19.016]',0.655
'[10:42:19.023]',0.655
'[10:42:19.031]',0.645
'[10:42:19.039]',0.635
'[10:42:19.047]',0.625
'[10:42:19.055]',0.625
'[10:42:19.063]',0.615
'[10:42:19.070]',0.605
'[10:42:19.078]',0.595
'[10:42:19.086]',0.585
'[10:42:19.094]',0.575
'[10:42:19.102]',0.565
'[10:42:19.109]',0.555
'[10:42:19.117]',0.545
'[10:42:19.125]',0.545
'[10:42:19.133]',0.535
'[10:42:19.141]',0.515
'[10:42:19.148]',0.505
'[10:42:19.156]',0.505
'[10:42:19.164]',0.485
'[10:42:19.172]',0.475
'[10:42:19.180]',0.475
'[10:42:19.188]',0.465
'[10:42:19.195]',0.465
'[10:42:19.203]',0.445
'[10:42:19.211]',0.435
'[10:42:19.219]',0.425
'[10:42:19.227]',0.425
'[10:42:19.234]',0.415
'[10:42:19.242]',0.405
'[10:42:19.250]',0.395
'[10:42:19.258]',0.385
'[10:42:19.266]',0.375
'[10:42:19.273]',0.365
'[10:42:19.281]',0.355
'[10:42:19.289]',0.355
'[10:42:19.297]',0.345
'[10:42:19.305]',0.335
'[10:42:19.313]',0.325
'[10:42:19.320]',0.325
'[10:42:19.328]',0.315
'[10:42:19.336]',0.305
'[10:42:19.344]',0.295
'[10:42:19.352]',0.295
'[10:42:19.359]',0.275
'[10:42:19.367]',0.275
'[10:42:19.375]',0.265
'[10:42:19.383]',0.265
'[10:42:19.391]',0.245
'[10:42:19.398]',0.245
'[10:42:19.406]',0.235
'[10:42:19.414]',0.235
'[10:42:19.422]',0.215
'[10:42:19.430]',0.215
'[10:42:19.438]',0.205
'[10:42:19.445]',0.195
'[10:42:19.453]',0.185
'[10:42:19.461]',0.165
'[10:42:19.469]',0.005
'[10:42:19.477]',-0.945
'[10:42:19.484]',-0.865
'[10:42:19.492]',-0.845
'[10:42:19.500]',-0.835
'[10:42:19.508]',-0.825
'[10:42:19.516]',-0.825
'[10:42:19.523]',-0.805
'[10:42:19.531]',-0.795
'[10:42:19.539]',-0.785
'[10:42:19.547]',-0.775
'[10:42:19.555]',-0.765
'[10:42:19.563]',-0.755
'[10:42:19.570]',-0.745
'[10:42:19.578]',-0.745
'[10:42:19.586]',-0.725
'[10:42:19.594]',-0.715
'[10:42:19.602]',-0.705
'[10:42:19.609]',-0.705
'[10:42:19.617]',-0.685
'[10:42:19.625]',-0.675
'[10:42:19.633]',-0.665
'[10:42:19.641]',-0.665
'[10:42:19.648]',-0.645
'[10:42:19.656]',-0.645
'[10:42:19.664]',-0.635
'[10:42:19.672]',-0.625
'[10:42:19.680]',-0.615
'[10:42:19.688]',-0.615
'[10:42:19.695]',-0.595
'[10:42:19.703]',-0.595
'[10:42:19.711]',-0.575
'[10:42:19.719]',-0.565
'[10:42:19.727]',-0.555
'[10:42:19.734]',-0.555
'[10:42:19.742]',-0.535
'[10:42:19.750]',-0.525
'[10:42:19.758]',-0.525
'[10:42:19.766]',-0.525
'[10:42:19.773]',-0.515
'[10:42:19.781]',-0.505
'[10:42:19.789]',-0.495
'[10:42:19.797]',-0.485
'[10:42:19.805]',-0.475
'[10:42:19.813]',-0.465
'[10:42:19.820]',-0.455
'[10:42:19.828]',-0.455
'[10:42:19.836]',-0.435
'[10:42:19.844]',-0.425
'[10:42:19.852]',-0.425
'[10:42:19.859]',-0.425
'[10:42:19.867]',-0.405
'[10:42:19.875]',-0.395
'[10:42:19.883]',-0.395
'[10:42:19.891]',-0.395
'[10:42:19.898]',-0.375
'[10:42:19.906]',-0.365
'[10:42:19.914]',-0.365
'[10:42:19.922]',-0.365
'[10:42:19.930]',-0.345
'[10:42:19.938]',-0.335
'[10:42:19.945]',-0.325
'[10:42:19.953]',-0.325
'[10:42:19.961]',-0.295
'[10:42:19.969]',-0.225
'[10:42:19.977]',0.815
'[10:42:19.984]',0.735
'[10:42:19.992]',0.715
'[10:42:20.000]',0.695
'[10:42:20.008]',0.685
'[10:42:20.016]',0.675
'[10:42:20.023]',0.675
'[10:42:20.031]',0.665
'[10:42:20.039]',0.655
'[10:42:20.047]',0.635
'[10:42:20.055]',0.625
'[10:42:20.063]',0.625
'[10:42:20.070]',0.615
'[10:42:20.078]',0.595
'[10:42:20.086]',0.585
'[10:42:20.094]',0.585
'[10:42:20.102]',0.575
'[10:42:20.109]',0.555
'[10:42:20.117]',0.545
'[10:42:20.125]',0.535
'[10:42:20.133]',0.535
'[10:42:20.141]',0.515
'[10:42:20.148]',0.515
'[10:42:20.156]',0.505
'[10:42:20.164]',0.495
'[10:42:20.172]',0.475
'[10:42:20.180]',0.475
'[10:42:20.188]',0.465
'[10:42:20.195]',0.455
'[10:42:20.203]',0.445
'[10:42:20.211]',0.445
'[10:42:20.219]',0.435
'[10:42:20.227]',0.425
'[10:42:20.234]',0.405
'[10:42:20.242]',0.405
'[10:42:20.250]',0.405
'[10:42:20.258]',0.385
'[10:42:20.266]',0.385
'[10:42:20.273]',0.375
'[10:42:20.281]',0.365
'[10:42:20.289]',0.355
'[10:42:20.297]',0.345
'[10:42:20.305]',0.335
'[10:42:20.313]',0.325
'[10:42:20.320]',0.315
'[10:42:20.328]',0.315
'[10:42:20.336]',0.315
'[10:42:20.344]',0.295
'[10:42:20.352]',0.295
'[10:42:20.359]',0.275
'[10:42:20.367]',0.275
'[10:42:20.375]',0.265
'[10:42:20.383]',0.265
'[10:42:20.391]',0.245
'[10:42:20.398]',0.245
'[10:42:20.406]',0.235
'[10:42:20.414]',0.235
'[10:42:20.422]',0.215
'[10:42:20.430]',0.215
'[10:42:20.438]',0.205
'[10:42:20.445]',0.195
'[10:42:20.453]',0.185
'[10:42:20.461]',0.165
'[10:42:20.469]',-0.285
'[10:42:20.477]',-0.925
'[10:42:20.484]',-0.855
'[10:42:20.492]',-0.835
'[10:42:20.500]',-0.825
'[10:42:20.508]',-0.815
'[10:42:20.516]',-0.815
'[10:42:20.523]',-0.805
'[10:42:20.531]',-0.785
'[10:42:20.539]',-0.775
'[10:42:20.547]',-0.775
'[10:42:20.555]',-0.765
'[10:42:20.563]',-0.745
'[10:42:20.570]',-0.745
'[10:42:20.578]',-0.735
'[10:42:20.586]',-0.725
'[10:42:20.594]',-0.705
'[10:42:20.602]',-0.695
'[10:42:20.609]',-0.685
'[10:42:20.617]',-0.685
'[10:42:20.625]',-0.665
'[10:42:20.633]',-0.655
'[10:42:20.641]',-0.655
'[10:42:20.648]',-0.635
'[10:42:20.656]',-0.635
'[10:42:20.664]',-0.625
'[10:42:20.672]',-0.625
'[10:42:20.680]',-0.605
'[10:42:20.688]',-0.595
'[10:42:20.695]',-0.585
'[10:42:20.703]',-0.585
'[10:42:20.711]',-0.575
'[10:42:20.719]',-0.565
'[10:42:20.727]',-0.565
'[10:42:20.734]',-0.555
'[10:42:20.742]',-0.535
'[10:42:20.750]',-0.535
'[10:42:20.758]',-0.525
'[10:42:20.766]',-0.515
'[10:42:20.773]',-0.505
'[10:42:20.781]',-0.505
'[10:42:20.789]',-0.485
'[10:42:20.797]',-0.475
'[10:42:20.805]',-0.475
'[10:42:20.813]',-0.455
'[10:42:20.820]',-0.455
'[10:42:20.828]',-0.445
'[10:42:20.836]',-0.435
'[10:42:20.844]',-0.425
'[10:42:20.852]',-0.425
'[10:42:20.859]',-0.415
'[10:42:20.867]',-0.405
'[10:42:20.875]',-0.405
'[10:42:20.883]',-0.395
'[10:42:20.891]',-0.385
'[10:42:20.898]',-0.375
'[10:42:20.906]',-0.375
'[10:42:20.914]',-0.365
'[10:42:20.922]',-0.355
'[10:42:20.930]',-0.345
'[10:42:20.938]',-0.335
'[10:42:20.945]',-0.325
'[10:42:20.953]',-0.325
'[10:42:20.961]',-0.295
'[10:42:20.969]',-0.315
'[10:42:20.977]',0.795
'[10:42:20.984]',0.725
'[10:42:20.992]',0.705
'[10:42:21.000]',0.695
'[10:42:21.008]',0.685
'[10:42:21.016]',0.675
'[10:42:21.023]',0.675
'[10:42:21.031]',0.665
'[10:42:21.039]',0.645
'[10:42:21.047]',0.635
'[10:42:21.055]',0.635
'[10:42:21.063]',0.625
'[10:42:21.070]',0.615
'[10:42:21.078]',0.595
'[10:42:21.086]',0.595
'[10:42:21.094]',0.585
'[10:42:21.102]',0.575
'[10:42:21.109]',0.555
'[10:42:21.117]',0.555
'[10:42:21.125]',0.545
'[10:42:21.133]',0.535
'[10:42:21.141]',0.525
'[10:42:21.148]',0.515
'[10:42:21.156]',0.515
'[10:42:21.164]',0.495
'[10:42:21.172]',0.485
'[10:42:21.180]',0.475
'[10:42:21.188]',0.475
'[10:42:21.195]',0.465
'[10:42:21.203]',0.445
'[10:42:21.211]',0.445
'[10:42:21.219]',0.435
'[10:42:21.227]',0.425
'[10:42:21.234]',0.415
'[10:42:21.242]',0.415
'[10:42:21.250]',0.395
'[10:42:21.258]',0.395
'[10:42:21.266]',0.375
'[10:42:21.273]',0.375
'[10:42:21.281]',0.365
'[10:42:21.289]',0.355
'[10:42:21.297]',0.345
'[10:42:21.305]',0.345
'[10:42:21.313]',0.335
'[10:42:21.320]',0.325
'[10:42:21.328]',0.315
'[10:42:21.336]',0.315
'[10:42:21.344]',0.305
'[10:42:21.352]',0.295
'[10:42:21.359]',0.285
'[10:42:21.367]',0.285
'[10:42:21.375]',0.275
'[10:42:21.383]',0.275
'[10:42:21.391]',0.265
'[10:42:21.398]',0.265
'[10:42:21.406]',0.245
'[10:42:21.414]',0.235
'[10:42:21.422]',0.235
'[10:42:21.430]',0.225
'[10:42:21.438]',0.215
'[10:42:21.445]',0.205
'[10:42:21.453]',0.195
'[10:42:21.461]',0.185
'[10:42:21.469]',0.125
'[10:42:21.477]',-0.935
'[10:42:21.484]',-0.855
'[10:42:21.492]',-0.835
'[10:42:21.500]',-0.825
'[10:42:21.508]',-0.805
'[10:42:21.516]',-0.805
'[10:42:21.523]',-0.795
'[10:42:21.531]',-0.785
'[10:42:21.539]',-0.775
'[10:42:21.547]',-0.765
'[10:42:21.555]',-0.755
'[10:42:21.563]',-0.755
'[10:42:21.570]',-0.735
'[10:42:21.578]',-0.735
'[10:42:21.586]',-0.715
'[10:42:21.594]',-0.705
'[10:42:21.602]',-0.695
'[10:42:21.609]',-0.685
'[10:42:21.617]',-0.665
'[10:42:21.625]',-0.665
'[10:42:21.633]',-0.655
'[10:42:21.641]',-0.645
'[10:42:21.648]',-0.635
'[10:42:21.656]',-0.625
'[10:42:21.664]',-0.615
'[10:42:21.672]',-0.605
'[10:42:21.680]',-0.595
'[10:42:21.688]',-0.585
'[10:42:21.695]',-0.585
'[10:42:21.703]',-0.575
'[10:42:21.711]',-0.555
'[10:42:21.719]',-0.555
'[10:42:21.727]',-0.545
'[10:42:21.734]',-0.535
'[10:42:21.742]',-0.525
'[10:42:21.750]',-0.525
'[10:42:21.758]',-0.515
'[10:42:21.766]',-0.505
'[10:42:21.773]',-0.495
'[10:42:21.781]',-0.485
'[10:42:21.789]',-0.475
'[10:42:21.797]',-0.475
'[10:42:21.805]',-0.455
'[10:42:21.813]',-0.445
'[10:42:21.820]',-0.445
'[10:42:21.828]',-0.435
'[10:42:21.836]',-0.425
'[10:42:21.844]',-0.415
'[10:42:21.852]',-0.415
'[10:42:21.859]',-0.405
'[10:42:21.867]',-0.395
'[10:42:21.875]',-0.385
'[10:42:21.883]',-0.375
'[10:42:21.891]',-0.375
'[10:42:21.898]',-0.365
'[10:42:21.906]',-0.355
'[10:42:21.914]',-0.345
'[10:42:21.922]',-0.345
'[10:42:21.930]',-0.335
'[10:42:21.938]',-0.325
'[10:42:21.945]',-0.315
'[10:42:21.953]',-0.305
'[10:42:21.961]',-0.275
'[10:42:21.969]',0.565
'[10:42:21.977]',0.795
'[10:42:21.984]',0.735
'[10:42:21.992]',0.715
'[10:42:22.000]',0.715
'[10:42:22.008]',0.705
'[10:42:22.016]',0.685
'[10:42:22.023]',0.685
'[10:42:22.031]',0.675
'[10:42:22.039]',0.655
'[10:42:22.047]',0.645
'[10:42:22.055]',0.645
'[10:42:22.063]',0.635
'[10:42:22.070]',0.625
'[10:42:22.078]',0.615
'[10:42:22.086]',0.605
'[10:42:22.094]',0.595
'[10:42:22.102]',0.585
'[10:42:22.109]',0.575
'[10:42:22.117]',0.575
'[10:42:22.125]',0.555
'[10:42:22.133]',0.555
'[10:42:22.141]',0.535
'[10:42:22.148]',0.535
'[10:42:22.156]',0.515
'[10:42:22.164]',0.505
'[10:42:22.172]',0.505
'[10:42:22.180]',0.495
'[10:42:22.188]',0.485
'[10:42:22.195]',0.475
'[10:42:22.203]',0.465
'[10:42:22.211]',0.465
'[10:42:22.219]',0.445
'[10:42:22.227]',0.435
'[10:42:22.234]',0.435
'[10:42:22.242]',0.425
'[10:42:22.250]',0.425
'[10:42:22.258]',0.405
'[10:42:22.266]',0.395
'[10:42:22.273]',0.395
'[10:42:22.281]',0.385
'[10:42:22.289]',0.375
'[10:42:22.297]',0.365
'[10:42:22.305]',0.365
'[10:42:22.313]',0.355
'[10:42:22.320]',0.345
'[10:42:22.328]',0.345
'[10:42:22.336]',0.335
'[10:42:22.344]',0.315
'[10:42:22.352]',0.315
'[10:42:22.359]',0.305
'[10:42:22.367]',0.305
'[10:42:22.375]',0.295
'[10:42:22.383]',0.285
'[10:42:22.391]',0.275
'[10:42:22.398]',0.265
'[10:42:22.406]',0.265
'[10:42:22.414]',0.255
'[10:42:22.422]',0.245
'[10:42:22.430]',0.245
'[10:42:22.438]',0.225
'[10:42:22.445]',0.225
'[10:42:22.453]',0.215
'[10:42:22.461]',0.195
'[10:42:22.469]',0.185
'[10:42:22.477]',-0.925
'[10:42:22.484]',-0.855
'[10:42:22.492]',-0.815
'[10:42:22.500]',-0.805
'[10:42:22.508]',-0.795
'[10:42:22.516]',-0.795
'[10:42:22.523]',-0.785
'[10:42:22.531]',-0.765
'[10:42:22.539]',-0.755
'[10:42:22.547]',-0.755
'[10:42:22.555]',-0.735
'[10:42:22.563]',-0.725
'[10:42:22.570]',-0.715
'[10:42:22.578]',-0.705
'[10:42:22.586]',-0.695
'[10:42:22.594]',-0.695
'[10:42:22.602]',-0.675
'[10:42:22.609]',-0.675
'[10:42:22.617]',-0.655
'[10:42:22.625]',-0.645
'[10:42:22.633]',-0.635
'[10:42:22.641]',-0.635
'[10:42:22.648]',-0.615
'[10:42:22.656]',-0.615
'[10:42:22.664]',-0.595
'[10:42:22.672]',-0.595
'[10:42:22.680]',-0.575
'[10:42:22.688]',-0.575
'[10:42:22.695]',-0.555
'[10:42:22.703]',-0.545
'[10:42:22.711]',-0.535
'[10:42:22.719]',-0.535
'[10:42:22.727]',-0.525
'[10:42:22.734]',-0.515
'[10:42:22.742]',-0.505
'[10:42:22.750]',-0.495
'[10:42:22.758]',-0.485
'[10:42:22.766]',-0.485
'[10:42:22.773]',-0.455
'[10:42:22.781]',-0.455
'[10:42:22.789]',-0.455
'[10:42:22.797]',-0.445
'[10:42:22.805]',-0.435
'[10:42:22.813]',-0.425
'[10:42:22.820]',-0.415
'[10:42:22.828]',-0.405
'[10:42:22.836]',-0.395
'[10:42:22.844]',-0.385
'[10:42:22.852]',-0.385
'[10:42:22.859]',-0.365
'[10:42:22.867]',-0.365
'[10:42:22.875]',-0.355
'[10:42:22.883]',-0.345
'[10:42:22.891]',-0.345
'[10:42:22.898]',-0.335
'[10:42:22.906]',-0.325
'[10:42:22.914]',-0.325
'[10:42:22.922]',-0.325
'[10:42:22.930]',-0.305
'[10:42:22.938]',-0.295
'[10:42:22.945]',-0.295
'[10:42:22.953]',-0.275
'[10:42:22.961]',-0.255
'[10:42:22.969]',-0.245
'[10:42:22.977]',0.855
'[10:42:22.984]',0.765
'[10:42:22.992]',0.755
'[10:42:23.000]',0.745
'[10:42:23.008]',0.735
'[10:42:23.016]',0.725
'[10:42:23.023]',0.715
'[10:42:23.031]',0.705
'[10:42:23.039]',0.695
'[10:42:23.047]',0.675
'[10:42:23.055]',0.675
'[10:42:23.063]',0.665
'[10:42:23.070]',0.655
'[10:42:23.078]',0.645
'[10:42:23.086]',0.635
'[10:42:23.094]',0.625
'[10:42:23.102]',0.615
'[10:42:23.109]',0.595
'[10:42:23.117]',0.595
'[10:42:23.125]',0.585
'[10:42:23.133]',0.575
'[10:42:23.141]',0.565
'[10:42:23.148]',0.565
'[10:42:23.156]',0.545
'[10:42:23.164]',0.545
'[10:42:23.172]',0.525
'[10:42:23.180]',0.525
'[10:42:23.188]',0.515
'[10:42:23.195]',0.505
'[10:42:23.203]',0.495
'[10:42:23.211]',0.495
'[10:42:23.219]',0.485
'[10:42:23.227]',0.475
'[10:42:23.234]',0.455
'[10:42:23.242]',0.455
'[10:42:23.250]',0.455
'[10:42:23.258]',0.435
'[10:42:23.266]',0.425
'[10:42:23.273]',0.415
'[10:42:23.281]',0.415
'[10:42:23.289]',0.405
'[10:42:23.297]',0.395
'[10:42:23.305]',0.385
'[10:42:23.313]',0.385
'[10:42:23.320]',0.375
'[10:42:23.328]',0.365
'[10:42:23.336]',0.365
'[10:42:23.344]',0.355
'[10:42:23.352]',0.345
'[10:42:23.359]',0.335
'[10:42:23.367]',0.335
'[10:42:23.375]',0.315
'[10:42:23.383]',0.315
'[10:42:23.391]',0.305
'[10:42:23.398]',0.305
'[10:42:23.406]',0.295
'[10:42:23.414]',0.285
'[10:42:23.422]',0.275
'[10:42:23.430]',0.275
'[10:42:23.438]',0.265
'[10:42:23.445]',0.255
'[10:42:23.453]',0.235
'[10:42:23.461]',0.225
'[10:42:23.469]',-0.055
'[10:42:23.477]',-0.805
'[10:42:23.484]',-0.755
'[10:42:23.492]',-0.725
'[10:42:23.500]',-0.725
'[10:42:23.508]',-0.715
'[10:42:23.516]',-0.705
'[10:42:23.523]',-0.695
'[10:42:23.531]',-0.685
'[10:42:23.539]',-0.675
'[10:42:23.547]',-0.675
'[10:42:23.555]',-0.665
'[10:42:23.563]',-0.655
'[10:42:23.570]',-0.655
'[10:42:23.578]',-0.635
'[10:42:23.586]',-0.635
'[10:42:23.594]',-0.625
'[10:42:23.602]',-0.615
'[10:42:23.609]',-0.615
'[10:42:23.617]',-0.595
'[10:42:23.625]',-0.595
'[10:42:23.633]',-0.585
'[10:42:23.641]',-0.585
'[10:42:23.648]',-0.575
'[10:42:23.656]',-0.565
'[10:42:23.664]',-0.555
'[10:42:23.672]',-0.555
'[10:42:23.680]',-0.535
'[10:42:23.688]',-0.535
'[10:42:23.695]',-0.525
'[10:42:23.703]',-0.525
'[10:42:23.711]',-0.505
'[10:42:23.719]',-0.495
'[10:42:23.727]',-0.485
'[10:42:23.734]',-0.485
'[10:42:23.742]',-0.475
'[10:42:23.750]',-0.475
'[10:42:23.758]',-0.455
'[10:42:23.766]',-0.455
'[10:42:23.773]',-0.445
'[10:42:23.781]',-0.435
'[10:42:23.789]',-0.425
'[10:42:23.797]',-0.425
'[10:42:23.805]',-0.405
'[10:42:23.813]',-0.405
'[10:42:23.820]',-0.395
'[10:42:23.828]',-0.385
'[10:42:23.836]',-0.375
'[10:42:23.844]',-0.365
'[10:42:23.852]',-0.365
'[10:42:23.859]',-0.355
'[10:42:23.867]',-0.345
'[10:42:23.875]',-0.335
'[10:42:23.883]',-0.325
'[10:42:23.891]',-0.325
'[10:42:23.898]',-0.315
'[10:42:23.906]',-0.315
'[10:42:23.914]',-0.295
'[10:42:23.922]',-0.295
'[10:42:23.930]',-0.285
'[10:42:23.938]',-0.275
'[10:42:23.945]',-0.265
'[10:42:23.953]',-0.255
'[10:42:23.961]',-0.235
'[10:42:23.969]',-0.245
'[10:42:23.977]',0.875
'[10:42:23.984]',0.805
'[10:42:23.992]',0.775
'[10:42:24.000]',0.765
'[10:42:24.008]',0.765
'[10:42:24.016]',0.755
'[10:42:24.023]',0.745
'[10:42:24.031]',0.735
'[10:42:24.039]',0.725
'[10:42:24.047]',0.705
'[10:42:24.055]',0.705
'[10:42:24.063]',0.695
'[10:42:24.070]',0.675
'[10:42:24.078]',0.665
'[10:42:24.086]',0.665
'[10:42:24.094]',0.655
'[10:42:24.102]',0.645
'[10:42:24.109]',0.635
'[10:42:24.117]',0.635
'[10:42:24.125]',0.615
'[10:42:24.133]',0.605
'[10:42:24.141]',0.585
'[10:42:24.148]',0.585
'[10:42:24.156]',0.575
'[10:42:24.164]',0.565
'[10:42:24.172]',0.555
'[10:42:24.180]',0.555
'[10:42:24.188]',0.535
'[10:42:24.195]',0.525
'[10:42:24.203]',0.515
'[10:42:24.211]',0.515
'[10:42:24.219]',0.505
'[10:42:24.227]',0.505
'[10:42:24.234]',0.485
'[10:42:24.242]',0.475
'[10:42:24.250]',0.475
'[10:42:24.258]',0.475
'[10:42:24.266]',0.445
'[10:42:24.273]',0.445
'[10:42:24.281]',0.445
'[10:42:24.289]',0.435
'[10:42:24.297]',0.425
'[10:42:24.305]',0.425
'[10:42:24.313]',0.415
'[10:42:24.320]',0.415
'[10:42:24.328]',0.395
'[10:42:24.336]',0.385
'[10:42:24.344]',0.385
'[10:42:24.352]',0.375
'[10:42:24.359]',0.355
'[10:42:24.367]',0.355
'[10:42:24.375]',0.355
'[10:42:24.383]',0.345
'[10:42:24.391]',0.335
'[10:42:24.398]',0.335
'[10:42:24.406]',0.315
'[10:42:24.414]',0.315
'[10:42:24.422]',0.295
'[10:42:24.430]',0.305
'[10:42:24.438]',0.295
'[10:42:24.445]',0.275
'[10:42:24.453]',0.255
'[10:42:24.461]',0.225
'[10:42:24.469]',0.045
'[10:42:24.477]',-0.765
'[10:42:24.484]',-0.745
'[10:42:24.492]',-0.735
'[10:42:24.500]',-0.725
'[10:42:24.508]',-0.715
'[10:42:24.516]',-0.715
'[10:42:24.523]',-0.705
'[10:42:24.531]',-0.695
'[10:42:24.539]',-0.675
'[10:42:24.547]',-0.675
'[10:42:24.555]',-0.655
'[10:42:24.563]',-0.655
'[10:42:24.570]',-0.635
'[10:42:24.578]',-0.635
'[10:42:24.586]',-0.615
'[10:42:24.594]',-0.605
'[10:42:24.602]',-0.595
'[10:42:24.609]',-0.595
'[10:42:24.617]',-0.575
'[10:42:24.625]',-0.565
'[10:42:24.633]',-0.565
'[10:42:24.641]',-0.545
'[10:42:24.648]',-0.545
'[10:42:24.656]',-0.525
'[10:42:24.664]',-0.515
'[10:42:24.672]',-0.515
'[10:42:24.680]',-0.495
'[10:42:24.688]',-0.485
'[10:42:24.695]',-0.485
'[10:42:24.703]',-0.475
'[10:42:24.711]',-0.465
'[10:42:24.719]',-0.455
'[10:42:24.727]',-0.455
'[10:42:24.734]',-0.435
'[10:42:24.742]',-0.425
'[10:42:24.750]',-0.425
'[10:42:24.758]',-0.415
'[10:42:24.766]',-0.405
'[10:42:24.773]',-0.385
'[10:42:24.781]',-0.385
'[10:42:24.789]',-0.375
'[10:42:24.797]',-0.355
'[10:42:24.805]',-0.355
'[10:42:24.813]',-0.345
'[10:42:24.820]',-0.335
'[10:42:24.828]',-0.325
'[10:42:24.836]',-0.325
'[10:42:24.844]',-0.305
'[10:42:24.852]',-0.305
'[10:42:24.859]',-0.295
'[10:42:24.867]',-0.285
'[10:42:24.875]',-0.275
'[10:42:24.883]',-0.265
'[10:42:24.891]',-0.255
'[10:42:24.898]',-0.255
'[10:42:24.906]',-0.245
'[10:42:24.914]',-0.225
'[10:42:24.922]',-0.225
'[10:42:24.930]',-0.205
'[10:42:24.938]',-0.205
'[10:42:24.945]',-0.195
'[10:42:24.953]',-0.185
'[10:42:24.961]',-0.145
'[10:42:24.969]',0.005
'[10:42:24.977]',0.945
'[10:42:24.984]',0.865
'[10:42:24.992]',0.835
'[10:42:25.000]',0.835
'[10:42:25.008]',0.825
'[10:42:25.016]',0.815
'[10:42:25.023]',0.815
'[10:42:25.031]',0.805
'[10:42:25.039]',0.795
'[10:42:25.047]',0.785
'[10:42:25.055]',0.775
'[10:42:25.063]',0.765
'[10:42:25.070]',0.755
'[10:42:25.078]',0.735
'[10:42:25.086]',0.735
'[10:42:25.094]',0.725
'[10:42:25.102]',0.715
'[10:42:25.109]',0.705
'[10:42:25.117]',0.695
'[10:42:25.125]',0.685
'[10:42:25.133]',0.675
'[10:42:25.141]',0.665
'[10:42:25.148]',0.655
'[10:42:25.156]',0.655
'[10:42:25.164]',0.645
'[10:42:25.172]',0.625
'[10:42:25.180]',0.635
'[10:42:25.188]',0.615
'[10:42:25.195]',0.605
'[10:42:25.203]',0.595
'[10:42:25.211]',0.595
'[10:42:25.219]',0.585
'[10:42:25.227]',0.575
'[10:42:25.234]',0.565
'[10:42:25.242]',0.555
'[10:42:25.250]',0.555
'[10:42:25.258]',0.555
'[10:42:25.266]',0.535
'[10:42:25.273]',0.525
'[10:42:25.281]',0.515
'[10:42:25.289]',0.515
'[10:42:25.297]',0.505
'[10:42:25.305]',0.495
'[10:42:25.313]',0.485
'[10:42:25.320]',0.475
'[10:42:25.328]',0.465
'[10:42:25.336]',0.465
'[10:42:25.344]',0.455
'[10:42:25.352]',0.445
'[10:42:25.359]',0.435
'[10:42:25.367]',0.435
'[10:42:25.375]',0.425
'[10:42:25.383]',0.415
'[10:42:25.391]',0.405
'[10:42:25.398]',0.405
'[10:42:25.406]',0.385
'[10:42:25.414]',0.385
'[10:42:25.422]',0.375
'[10:42:25.430]',0.375
'[10:42:25.438]',0.355
'[10:42:25.445]',0.345
'[10:42:25.453]',0.335
'[10:42:25.461]',0.315
'[10:42:25.469]',0.305
'[10:42:25.477]',-0.795
'[10:42:25.484]',-0.725
'[10:42:25.492]',-0.685
'[10:42:25.500]',-0.685
'[10:42:25.508]',-0.675
'[10:42:25.516]',-0.675
'[10:42:25.523]',-0.665
'[10:42:25.531]',-0.655
'[10:42:25.539]',-0.645
'[10:42:25.547]',-0.635
'[10:42:25.555]',-0.625
'[10:42:25.563]',-0.615
'[10:42:25.570]',-0.605
'[10:42:25.578]',-0.605
'[10:42:25.586]',-0.595
'[10:42:25.594]',-0.575
'[10:42:25.602]',-0.575
'[10:42:25.609]',-0.565
'[10:42:25.617]',-0.545
'[10:42:25.625]',-0.545
'[10:42:25.633]',-0.535
'[10:42:25.641]',-0.535
'[10:42:25.648]',-0.515
'[10:42:25.656]',-0.515
'[10:42:25.664]',-0.505
'[10:42:25.672]',-0.505
'[10:42:25.680]',-0.495
'[10:42:25.688]',-0.485
'[10:42:25.695]',-0.475
'[10:42:25.703]',-0.475
'[10:42:25.711]',-0.455
'[10:42:25.719]',-0.445
'[10:42:25.727]',-0.445
'[10:42:25.734]',-0.445
'[10:42:25.742]',-0.425
'[10:42:25.750]',-0.435
'[10:42:25.758]',-0.415
'[10:42:25.766]',-0.415
'[10:42:25.773]',-0.405
'[10:42:25.781]',-0.395
'[10:42:25.789]',-0.395
'[10:42:25.797]',-0.385
'[10:42:25.805]',-0.375
'[10:42:25.813]',-0.365
'[10:42:25.820]',-0.365
'[10:42:25.828]',-0.355
'[10:42:25.836]',-0.355
'[10:42:25.844]',-0.345
'[10:42:25.852]',-0.335
'[10:42:25.859]',-0.335
'[10:42:25.867]',-0.325
'[10:42:25.875]',-0.325
'[10:42:25.883]',-0.315
'[10:42:25.891]',-0.325
'[10:42:25.898]',-0.305
'[10:42:25.906]',-0.295
'[10:42:25.914]',-0.295
'[10:42:25.922]',-0.295
'[10:42:25.930]',-0.275
'[10:42:25.938]',-0.275
'[10:42:25.945]',-0.275
'[10:42:25.953]',-0.265
'[10:42:25.961]',-0.235
'[10:42:25.969]',-0.205
'[10:42:25.977]',0.875
'[10:42:25.984]',0.775
'[10:42:25.992]',0.755
'[10:42:26.000]',0.745
'[10:42:26.008]',0.735
'[10:42:26.016]',0.715
'[10:42:26.023]',0.715
'[10:42:26.031]',0.705
'[10:42:26.039]',0.695
'[10:42:26.047]',0.675
'[10:42:26.055]',0.675
'[10:42:26.063]',0.655
'[10:42:26.070]',0.645
'[10:42:26.078]',0.635
'[10:42:26.086]',0.625
'[10:42:26.094]',0.615
'[10:42:26.102]',0.595
'[10:42:26.109]',0.585
'[10:42:26.117]',0.585
'[10:42:26.125]',0.565
'[10:42:26.133]',0.555
'[10:42:26.141]',0.545
'[10:42:26.148]',0.535
'[10:42:26.156]',0.515
'[10:42:26.164]',0.515
'[10:42:26.172]',0.495
'[10:42:26.180]',0.485
'[10:42:26.188]',0.475
'[10:42:26.195]',0.465
'[10:42:26.203]',0.445
'[10:42:26.211]',0.445
'[10:42:26.219]',0.435
'[10:42:26.227]',0.425
'[10:42:26.234]',0.415
'[10:42:26.242]',0.405
'[10:42:26.250]',0.395
'[10:42:26.258]',0.385
'[10:42:26.266]',0.375
'[10:42:26.273]',0.365
'[10:42:26.281]',0.355
'[10:42:26.289]',0.345
'[10:42:26.297]',0.335
'[10:42:26.305]',0.335
'[10:42:26.313]',0.315
'[10:42:26.320]',0.305
'[10:42:26.328]',0.295
'[10:42:26.336]',0.285
'[10:42:26.344]',0.275
'[10:42:26.352]',0.265
'[10:42:26.359]',0.255
'[10:42:26.367]',0.245
'[10:42:26.375]',0.235
'[10:42:26.383]',0.225
'[10:42:26.391]',0.205
'[10:42:26.398]',0.205
'[10:42:26.406]',0.195
'[10:42:26.414]',0.185
'[10:42:26.422]',0.175
'[10:42:26.430]',0.165
'[10:42:26.438]',0.165
'[10:42:26.445]',0.155
'[10:42:26.453]',0.125
'[10:42:26.461]',0.115
'[10:42:26.469]',0.105
'[10:42:26.477]',-0.995
'[10:42:26.484]',-0.935
'[10:42:26.492]',-0.905
'[10:42:26.500]',-0.905
'[10:42:26.508]',-0.895
'[10:42:26.516]',-0.895
'[10:42:26.523]',-0.875
'[10:42:26.531]',-0.875
'[10:42:26.539]',-0.865
'[10:42:26.547]',-0.875
'[10:42:26.555]',-0.875
'[10:42:26.563]',-1195
'[10:42:26.570]',-2035
'[10:42:26.578]',-1945
'[10:42:26.586]',-1915
'[10:42:26.594]',-1915
'[10:42:26.602]',-1885
'[10:42:26.609]',-1875
'[10:42:26.617]',-1845
'[10:42:26.625]',-1785
'[10:42:26.633]',-1745
'[10:42:26.641]',-1765
'[10:42:26.648]',-1695
'[10:42:26.656]',-1695
'[10:42:26.664]',-1715
'[10:42:26.672]',-1715
'[10:42:26.680]',-1715
'[10:42:26.688]',-1705
'[10:42:26.695]',-1715
'[10:42:26.703]',-1695
'[10:42:26.711]',-1695
'[10:42:26.719]',-1675
'[10:42:26.727]',-1655
'[10:42:26.734]',-1635
'[10:42:26.742]',-1615
'[10:42:26.750]',-1595
'[10:42:26.758]',-1565
'[10:42:26.766]',-1545
'[10:42:26.773]',-1585
'[10:42:26.781]',-1345
'[10:42:26.789]',0.075
'[10:42:26.797]',1425
'[10:42:26.805]',0.585
'[10:42:26.813]',-2215
'[10:42:26.820]',-2125
'[10:42:26.828]',-1855
'[10:42:26.836]',-1565
'[10:42:26.844]',-1355
'[10:42:26.852]',-1295
'[10:42:26.859]',-1245
'[10:42:26.867]',-1205
'[10:42:26.875]',-1175
'[10:42:26.883]',-1135
'[10:42:26.891]',-1115
'[10:42:26.898]',-1075
'[10:42:26.906]',-1035
'[10:42:26.914]',-0.995
'[10:42:26.922]',-0.975
'[10:42:26.930]',-0.915
'[10:42:26.938]',-0.875
'[10:42:26.945]',-0.825
'[10:42:26.953]',-0.765
'[10:42:26.961]',-0.705
'[10:42:26.969]',-0.635
'[10:42:26.977]',-0.565
'[10:42:26.984]',-0.485
'[10:42:26.992]',-0.385
'[10:42:27.000]',-0.295
'[10:42:27.008]',-0.185
'[10:42:27.016]',-0.105
'[10:42:27.023]',-0.035
'[10:42:27.031]',0.005
'[10:42:27.039]',0.015
'[10:42:27.047]',-0.025
'[10:42:27.055]',-0.095
'[10:42:27.063]',-0.215
'[10:42:27.070]',-0.375
'[10:42:27.078]',-0.535
'[10:42:27.086]',-0.675
'[10:42:27.094]',-0.785
'[10:42:27.102]',-0.875
'[10:42:27.109]',-0.935
'[10:42:27.117]',-0.975
'[10:42:27.125]',-1005
'[10:42:27.133]',-1015
'[10:42:27.141]',-1015
'[10:42:27.148]',-1005
'[10:42:27.156]',-0.995
'[10:42:27.164]',-0.985
'[10:42:27.172]',-0.975
'[10:42:27.180]',-0.945
'[10:42:27.188]',-0.925
'[10:42:27.195]',-0.895
'[10:42:27.203]',-0.875
'[10:42:27.211]',-0.855
'[10:42:27.219]',-0.825
'[10:42:27.227]',-0.805
'[10:42:27.234]',-0.795
'[10:42:27.242]',-0.775
'[10:42:27.250]',-0.775
'[10:42:27.258]',-0.775
'[10:42:27.266]',-0.765
'[10:42:27.273]',-0.765
'[10:42:27.281]',-0.775
'[10:42:27.289]',-0.765
'[10:42:27.297]',-0.765
'[10:42:27.305]',-0.765
'[10:42:27.313]',-0.765
'[10:42:27.320]',-0.745
'[10:42:27.328]',-0.745
'[10:42:27.336]',-0.725
'[10:42:27.344]',-0.725
'[10:42:27.352]',-0.725
'[10:42:27.359]',-0.715
'[10:42:27.367]',-0.695
'[10:42:27.375]',-0.695
'[10:42:27.383]',-0.685
'[10:42:27.391]',-0.675
'[10:42:27.398]',-0.665
'[10:42:27.406]',-0.655
'[10:42:27.414]',-0.655
'[10:42:27.422]',-0.645
'[10:42:27.430]',-0.625
'[10:42:27.438]',-0.615
'[10:42:27.445]',-0.605
'[10:42:27.453]',-0.605
'[10:42:27.461]',-0.585
'[10:42:27.469]',-0.585
'[10:42:27.477]',-0.575
'[10:42:27.484]',-0.555
'[10:42:27.492]',-0.535
'[10:42:27.500]',-0.535
'[10:42:27.508]',-0.535
'[10:42:27.516]',-0.515
'[10:42:27.523]',-0.505
'[10:42:27.531]',-0.495
'[10:42:27.539]',-0.495
'[10:42:27.547]',-0.485
'[10:42:27.555]',-0.465
'[10:42:27.563]',-0.465
'[10:42:27.570]',-0.425
'[10:42:27.578]',-0.365
'[10:42:27.586]',-0.325
'[10:42:27.594]',-0.345
'[10:42:27.602]',-0.295
'[10:42:27.609]',-0.305
'[10:42:27.617]',-0.345
'[10:42:27.625]',-0.365
'[10:42:27.633]',-0.395
'[10:42:27.641]',-0.385
'[10:42:27.648]',-0.415
'[10:42:27.656]',-0.435
'[10:42:27.664]',-0.425
'[10:42:27.672]',-0.415
'[10:42:27.680]',-0.405
'[10:42:27.688]',-0.405
'[10:42:27.695]',-0.395
'[10:42:27.703]',-0.375
'[10:42:27.711]',-0.355
'[10:42:27.719]',-0.355
'[10:42:27.727]',-0.405
'[10:42:27.734]',-0.155
'[10:42:27.742]',1225
'[10:42:27.750]',2365
'[10:42:27.758]',1625
'[10:42:27.766]',-1395
'[10:42:27.773]',-1245
'[10:42:27.781]',-0.835
'[10:42:27.789]',-0.455
'[10:42:27.797]',-0.215
'[10:42:27.805]',-0.155
'[10:42:27.813]',-0.125
'[10:42:27.820]',-0.085
'[10:42:27.828]',-0.065
'[10:42:27.836]',-0.035
'[10:42:27.844]',-0.005
'[10:42:27.852]',0.025
'[10:42:27.859]',0.055
'[10:42:27.867]',0.065
'[10:42:27.875]',0.115
'[10:42:27.883]',0.145
'[10:42:27.891]',0.175
'[10:42:27.898]',0.225
'[10:42:27.906]',0.275
'[10:42:27.914]',0.325
'[10:42:27.922]',0.385
'[10:42:27.930]',0.455
'[10:42:27.938]',0.545
'[10:42:27.945]',0.625
'[10:42:27.953]',0.705
'[10:42:27.961]',0.795
'[10:42:27.969]',0.855
'[10:42:27.977]',0.905
'[10:42:27.984]',0.905
'[10:42:27.992]',0.895
'[10:42:28.000]',0.815
'[10:42:28.008]',0.685
'[10:42:28.016]',0.515
'[10:42:28.023]',0.355
'[10:42:28.031]',0.205
'[10:42:28.039]',0.075
'[10:42:28.047]',-0.035
'[10:42:28.055]',-0.115
'[10:42:28.063]',-0.175
'[10:42:28.070]',-0.195
'[10:42:28.078]',-0.235
'[10:42:28.086]',-0.255
'[10:42:28.094]',-0.245
'[10:42:28.102]',-0.245
'[10:42:28.109]',-0.245
'[10:42:28.117]',-0.225
'[10:42:28.125]',-0.205
'[10:42:28.133]',-0.195
'[10:42:28.141]',-0.175
'[10:42:28.148]',-0.155
'[10:42:28.156]',-0.145
'[10:42:28.164]',-0.115
'[10:42:28.172]',-0.105
'[10:42:28.180]',-0.095
'[10:42:28.188]',-0.085
'[10:42:28.195]',-0.075
'[10:42:28.203]',-0.085
'[10:42:28.211]',-0.085
'[10:42:28.219]',-0.075
'[10:42:28.227]',-0.085
'[10:42:28.234]',-0.085
'[10:42:28.242]',-0.095
'[10:42:28.250]',-0.085
'[10:42:28.258]',-0.095
'[10:42:28.266]',-0.095
'[10:42:28.273]',-0.085
'[10:42:28.281]',-0.095
'[10:42:28.289]',-0.085
'[10:42:28.297]',-0.075
'[10:42:28.305]',-0.085
'[10:42:28.313]',-0.075
'[10:42:28.320]',-0.065
'[10:42:28.328]',-0.065
'[10:42:28.336]',-0.065
'[10:42:28.344]',-0.055
'[10:42:28.352]',-0.055
'[10:42:28.359]',-0.055
'[10:42:28.367]',-0.045
'[10:42:28.375]',-0.035
'[10:42:28.383]',-0.035
'[10:42:28.391]',-0.035
'[10:42:28.398]',-0.035
'[10:42:28.406]',-0.025
'[10:42:28.414]',-0.015
'[10:42:28.422]',-0.015
'[10:42:28.430]',-0.005
'[10:42:28.438]',-0.005
'[10:42:28.445]',0.005
'[10:42:28.453]',-0.005
'[10:42:28.461]',0.005
'[10:42:28.469]',0.045
'[10:42:28.477]',0.105
'[10:42:28.484]',0.125
'[10:42:28.492]',0.105
'[10:42:28.500]',0.145
'[10:42:28.508]',0.155
'[10:42:28.516]',0.085
'[10:42:28.523]',0.075
'[10:42:28.531]',0.035
'[10:42:28.539]',0.035
'[10:42:28.547]',-0.005
'[10:42:28.555]',0.005
'[10:42:28.563]',-0.005
'[10:42:28.570]',-0.005
'[10:42:28.578]',0.005
'[10:42:28.586]',0.005
'[10:42:28.594]',0.015
'[10:42:28.602]',0.025
'[10:42:28.609]',0.035
'[10:42:28.617]',-0.005
'[10:42:28.625]',-0.035
'[10:42:28.633]',0.845
'[10:42:28.641]',2445
'[10:42:28.648]',2635
'[10:42:28.656]',-0.025
'[10:42:28.664]',-1205
'[10:42:28.672]',-0.755
'[10:42:28.680]',-0.405
'[10:42:28.688]',-0.065
'[10:42:28.695]',0.135
'[10:42:28.703]',0.175
'[10:42:28.711]',0.205
'[10:42:28.719]',0.235
'[10:42:28.727]',0.255
'[10:42:28.734]',0.265
'[10:42:28.742]',0.305
'[10:42:28.750]',0.315
'[10:42:28.758]',0.335
'[10:42:28.766]',0.365
'[10:42:28.773]',0.395
'[10:42:28.781]',0.435
'[10:42:28.789]',0.475
'[10:42:28.797]',0.505
'[10:42:28.805]',0.565
'[10:42:28.813]',0.615
'[10:42:28.820]',0.675
'[10:42:28.828]',0.755
'[10:42:28.836]',0.845
'[10:42:28.844]',0.935
'[10:42:28.852]',1015
'[10:42:28.859]',1085
'[10:42:28.867]',1135
'[10:42:28.875]',1155
'[10:42:28.883]',1155
'[10:42:28.891]',1095
'[10:42:28.898]',1005
'[10:42:28.906]',0.865
'[10:42:28.914]',0.685
'[10:42:28.922]',0.515
'[10:42:28.930]',0.365
'[10:42:28.938]',0.225
'[10:42:28.945]',0.095
'[10:42:28.953]',0.005
'[10:42:28.961]',-0.055
'[10:42:28.969]',-0.105
'[10:42:28.977]',-0.135
'[10:42:28.984]',-0.145
'[10:42:28.992]',-0.145
'[10:42:29.000]',-0.155
'[10:42:29.008]',-0.155
'[10:42:29.016]',-0.145
'[10:42:29.023]',-0.135
'[10:42:29.031]',-0.125
'[10:42:29.039]',-0.105
'[10:42:29.047]',-0.105
'[10:42:29.055]',-0.085
'[10:42:29.063]',-0.075
'[10:42:29.070]',-0.065
'[10:42:29.078]',-0.055
'[10:42:29.086]',-0.045
'[10:42:29.094]',-0.045
'[10:42:29.102]',-0.045
'[10:42:29.109]',-0.055
'[10:42:29.117]',-0.055
'[10:42:29.125]',-0.065
'[10:42:29.133]',-0.075
'[10:42:29.141]',-0.085
'[10:42:29.148]',-0.085
'[10:42:29.156]',-0.085
'[10:42:29.164]',-0.085
'[10:42:29.172]',-0.095
'[10:42:29.180]',-0.105
'[10:42:29.188]',-0.105
'[10:42:29.195]',-0.095
'[10:42:29.203]',-0.105
'[10:42:29.211]',-0.095
'[10:42:29.219]',-0.105
'[10:42:29.227]',-0.105
'[10:42:29.234]',-0.105
'[10:42:29.242]',-0.105
'[10:42:29.250]',-0.095
'[10:42:29.258]',-0.105
'[10:42:29.266]',-0.095
'[10:42:29.273]',-0.095
'[10:42:29.281]',-0.095
'[10:42:29.289]',-0.095
'[10:42:29.297]',-0.105
'[10:42:29.305]',-0.095
'[10:42:29.313]',-0.085
'[10:42:29.320]',-0.085
'[10:42:29.328]',-0.095
'[10:42:29.336]',-0.085
'[10:42:29.344]',-0.085
'[10:42:29.352]',-0.085
'[10:42:29.359]',-0.085
'[10:42:29.367]',-0.055
'[10:42:29.375]',0.015
'[10:42:29.383]',0.045
'[10:42:29.391]',0.015
'[10:42:29.398]',0.055
'[10:42:29.406]',0.055
'[10:42:29.414]',-0.005
'[10:42:29.422]',-0.015
'[10:42:29.430]',-0.065
'[10:42:29.438]',-0.065
'[10:42:29.445]',-0.095
'[10:42:29.453]',-0.115
'[10:42:29.461]',-0.115
'[10:42:29.469]',-0.105
'[10:42:29.477]',-0.105
'[10:42:29.484]',-0.105
'[10:42:29.492]',-0.105
'[10:42:29.500]',-0.085
'[10:42:29.508]',-0.085
'[10:42:29.516]',-0.115
'[10:42:29.523]',-0.075
'[10:42:29.531]',0.885
'[10:42:29.539]',2275
'[10:42:29.547]',2345
'[10:42:29.555]',-0.685
'[10:42:29.563]',-1215
'[10:42:29.570]',-0.745
'[10:42:29.578]',-0.325
'[10:42:29.586]',-0.045
'[10:42:29.594]',0.025
'[10:42:29.602]',0.055
'[10:42:29.609]',0.075
'[10:42:29.617]',0.095
'[10:42:29.625]',0.105
'[10:42:29.633]',0.135
'[10:42:29.641]',0.155
'[10:42:29.648]',0.175
'[10:42:29.656]',0.195
'[10:42:29.664]',0.225
'[10:42:29.672]',0.245
'[10:42:29.680]',0.275
'[10:42:29.688]',0.305
'[10:42:29.695]',0.345
'[10:42:29.703]',0.395
'[10:42:29.711]',0.445
'[10:42:29.719]',0.495
'[10:42:29.727]',0.575
'[10:42:29.734]',0.665
'[10:42:29.742]',0.745
'[10:42:29.750]',0.825
'[10:42:29.758]',0.895
'[10:42:29.766]',0.955
'[10:42:29.773]',0.985
'[10:42:29.781]',0.975
'[10:42:29.789]',0.935
'[10:42:29.797]',0.855
'[10:42:29.805]',0.735
'[10:42:29.813]',0.575
'[10:42:29.820]',0.405
'[10:42:29.828]',0.255
'[10:42:29.836]',0.115
'[10:42:29.844]',-0.005
'[10:42:29.852]',-0.085
'[10:42:29.859]',-0.155
'[10:42:29.867]',-0.195
'[10:42:29.875]',-0.235
'[10:42:29.883]',-0.255
'[10:42:29.891]',-0.265
'[10:42:29.898]',-0.275
'[10:42:29.906]',-0.275
'[10:42:29.914]',-0.265
'[10:42:29.922]',-0.095
'[10:42:29.930]',-0.255
'[10:42:29.938]',-0.245
'[10:42:29.945]',-0.235
'[10:42:29.953]',-0.215
'[10:42:29.961]',-0.205
'[10:42:29.969]',-0.185
'[10:42:29.977]',-0.175
'[10:42:29.984]',-0.175
'[10:42:29.992]',-0.165
'[10:42:30.000]',-0.175
'[10:42:30.008]',-0.175
'[10:42:30.016]',-0.175
'[10:42:30.023]',-0.185
'[10:42:30.031]',-0.195
'[10:42:30.039]',-0.195
'[10:42:30.047]',-0.205
'[10:42:30.055]',-0.205
'[10:42:30.063]',-0.205
'[10:42:30.070]',-0.215
'[10:42:30.078]',-0.215
'[10:42:30.086]',-0.225
'[10:42:30.094]',-0.215
'[10:42:30.102]',-0.215
'[10:42:30.109]',-0.215
'[10:42:30.117]',-0.215
'[10:42:30.125]',-0.215
'[10:42:30.133]',-0.215
'[10:42:30.141]',-0.205
'[10:42:30.148]',-0.195
'[10:42:30.156]',-0.205
'[10:42:30.164]',-0.205
'[10:42:30.172]',-0.205
'[10:42:30.180]',-0.195
'[10:42:30.188]',-0.195
'[10:42:30.195]',-0.215
'[10:42:30.203]',-0.185
'[10:42:30.211]',-0.185
'[10:42:30.219]',-0.185
'[10:42:30.227]',-0.185
'[10:42:30.234]',-0.175
'[10:42:30.242]',-0.175
'[10:42:30.250]',-0.175
'[10:42:30.258]',-0.105
'[10:42:30.266]',-0.055
'[10:42:30.273]',-0.055
'[10:42:30.281]',-0.045
'[10:42:30.289]',-0.025
'[10:42:30.297]',-0.095
'[10:42:30.305]',-0.105
'[10:42:30.313]',-0.145
'[10:42:30.320]',-0.155
'[10:42:30.328]',-0.175
'[10:42:30.336]',-0.205
'[10:42:30.344]',-0.215
'[10:42:30.352]',-0.215
'[10:42:30.359]',-0.215
'[10:42:30.367]',-0.205
'[10:42:30.375]',-0.195
'[10:42:30.383]',-0.195
'[10:42:30.391]',-0.185
'[10:42:30.398]',-0.195
'[10:42:30.406]',-0.235
'[10:42:30.414]',0.075
'[10:42:30.422]',1565
'[10:42:30.430]',2425
'[10:42:30.438]',1385
'[10:42:30.445]',-1225
'[10:42:30.453]',-1205
'[10:42:30.461]',-0.745
'[10:42:30.469]',-0.355
'[10:42:30.477]',-0.125
'[10:42:30.484]',-0.075
'[10:42:30.492]',-0.035
'[10:42:30.500]',-0.015
'[10:42:30.508]',0.005
'[10:42:30.516]',0.025
'[10:42:30.523]',0.045
'[10:42:30.531]',0.065
'[10:42:30.539]',0.085
'[10:42:30.547]',0.115
'[10:42:30.555]',0.135
'[10:42:30.563]',0.165
'[10:42:30.570]',0.195
'[10:42:30.578]',0.235
'[10:42:30.586]',0.265
'[10:42:30.594]',0.315
'[10:42:30.602]',0.375
'[10:42:30.609]',0.435
'[10:42:30.617]',0.505
'[10:42:30.625]',0.595
'[10:42:30.633]',0.685
'[10:42:30.641]',0.775
'[10:42:30.648]',0.845
'[10:42:30.656]',0.895
'[10:42:30.664]',0.915
'[10:42:30.672]',0.905
'[10:42:30.680]',0.865
'[10:42:30.688]',0.795
'[10:42:30.695]',0.645
'[10:42:30.703]',0.475
'[10:42:30.711]',0.315
'[10:42:30.719]',0.155
'[10:42:30.727]',0.015
'[10:42:30.734]',-0.095
'[10:42:30.742]',-0.175
'[10:42:30.750]',-0.235
'[10:42:30.758]',-0.275
'[10:42:30.766]',-0.305
'[10:42:30.773]',-0.315
'[10:42:30.781]',-0.335
'[10:42:30.789]',-0.325
'[10:42:30.797]',-0.325
'[10:42:30.805]',-0.325
'[10:42:30.813]',-0.315
'[10:42:30.820]',-0.295
'[10:42:30.828]',-0.285
'[10:42:30.836]',-0.255
'[10:42:30.844]',-0.255
'[10:42:30.852]',-0.225
'[10:42:30.859]',-0.215
'[10:42:30.867]',-0.215
'[10:42:30.875]',-0.205
'[10:42:30.883]',-0.195
'[10:42:30.891]',-0.195
'[10:42:30.898]',-0.195
'[10:42:30.906]',-0.205
'[10:42:30.914]',-0.215
'[10:42:30.922]',-0.225
'[10:42:30.930]',-0.225
'[10:42:30.938]',-0.235
'[10:42:30.945]',-0.235
'[10:42:30.953]',-0.245
'[10:42:30.961]',-0.235
'[10:42:30.969]',-0.235
'[10:42:30.977]',-0.225
'[10:42:30.984]',-0.245
'[10:42:30.992]',-0.245
'[10:42:31.000]',-0.235
'[10:42:31.008]',-0.225
'[10:42:31.016]',-0.235
'[10:42:31.023]',-0.225
'[10:42:31.031]',-0.225
'[10:42:31.039]',-0.225
'[10:42:31.047]',-0.215
'[10:42:31.055]',-0.215
'[10:42:31.063]',-0.215
'[10:42:31.070]',-0.205
'[10:42:31.078]',-0.215
'[10:42:31.086]',-0.205
'[10:42:31.094]',-0.205
'[10:42:31.102]',-0.205
'[10:42:31.109]',-0.195
'[10:42:31.117]',-0.195
'[10:42:31.125]',-0.185
'[10:42:31.133]',-0.185
'[10:42:31.141]',-0.185
'[10:42:31.148]',-0.195
'[10:42:31.156]',-0.175
'[10:42:31.164]',-0.225
'[10:42:31.172]',-0.095
'[10:42:31.180]',-0.045
'[10:42:31.188]',-0.075
'[10:42:31.195]',-0.025
'[10:42:31.203]',-0.055
'[10:42:31.211]',-0.095
'[10:42:31.219]',-0.175
'[10:42:31.227]',-0.145
'[10:42:31.234]',-0.245
'[10:42:31.242]',-0.185
'[10:42:31.250]',-0.195
'[10:42:31.258]',-0.205
'[10:42:31.266]',-0.195
'[10:42:31.273]',-0.195
'[10:42:31.281]',-0.185
'[10:42:31.289]',-0.175
'[10:42:31.297]',-0.165
'[10:42:31.305]',-0.155
'[10:42:31.313]',-0.215
'[10:42:31.320]',-0.175
'[10:42:31.328]',0.915
'[10:42:31.336]',2355
'[10:42:31.344]',2395
'[10:42:31.352]',-0.295
'[10:42:31.359]',-1385
'[10:42:31.367]',-0.935
'[10:42:31.375]',-0.555
'[10:42:31.383]',-0.235
'[10:42:31.391]',-0.065
'[10:42:31.398]',-0.025
'[10:42:31.406]',-0.005
'[10:42:31.414]',0.015
'[10:42:31.422]',0.035
'[10:42:31.430]',0.065
'[10:42:31.438]',0.075
'[10:42:31.445]',0.105
'[10:42:31.453]',0.115
'[10:42:31.461]',0.155
'[10:42:31.469]',0.175
'[10:42:31.477]',0.205
'[10:42:31.484]',0.235
'[10:42:31.492]',0.275
'[10:42:31.500]',0.315
'[10:42:31.508]',0.365
'[10:42:31.516]',0.435
'[10:42:31.523]',0.505
'[10:42:31.531]',0.595
'[10:42:31.539]',0.655
'[10:42:31.547]',0.265
'[10:42:31.555]',0.795
'[10:42:31.563]',0.885
'[10:42:31.570]',0.955
'[10:42:31.578]',0.965
'[10:42:31.586]',0.935
'[10:42:31.594]',0.865
'[10:42:31.602]',0.755
'[10:42:31.609]',0.575
'[10:42:31.617]',0.415
'[10:42:31.625]',0.245
'[10:42:31.633]',0.105
'[10:42:31.641]',-0.015
'[10:42:31.648]',-0.115
'[10:42:31.656]',-0.195
'[10:42:31.664]',-0.235
'[10:42:31.672]',-0.265
'[10:42:31.680]',-0.285
'[10:42:31.688]',-0.305
'[10:42:31.695]',-0.315
'[10:42:31.703]',-0.315
'[10:42:31.711]',-0.295
'[10:42:31.719]',-0.285
'[10:42:31.727]',-0.275
'[10:42:31.734]',-0.265
'[10:42:31.742]',-0.245
'[10:42:31.750]',-0.235
'[10:42:31.758]',-0.225
'[10:42:31.766]',-0.205
'[10:42:31.773]',-0.185
'[10:42:31.781]',-0.185
'[10:42:31.789]',-0.175
'[10:42:31.797]',-0.165
'[10:42:31.805]',-0.165
'[10:42:31.813]',-0.185
'[10:42:31.820]',-0.195
'[10:42:31.828]',-0.205
'[10:42:31.836]',-0.195
'[10:42:31.844]',-0.205
'[10:42:31.852]',-0.205
'[10:42:31.859]',-0.205
'[10:42:31.867]',-0.205
'[10:42:31.875]',-0.215
'[10:42:31.883]',-0.215
'[10:42:31.891]',-0.215
'[10:42:31.898]',-0.205
'[10:42:31.906]',-0.205
'[10:42:31.914]',-0.205
'[10:42:31.922]',-0.205
'[10:42:31.930]',-0.195
'[10:42:31.938]',-0.205
'[10:42:31.945]',-0.205
'[10:42:31.953]',-0.205
'[10:42:31.961]',-0.195
'[10:42:31.969]',-0.175
'[10:42:31.977]',-0.185
'[10:42:31.984]',-0.205
'[10:42:31.992]',-0.205
'[10:42:32.000]',-0.185
'[10:42:32.008]',-0.165
'[10:42:32.016]',-0.185
'[10:42:32.023]',-0.175
'[10:42:32.031]',-0.115
'[10:42:32.039]',-0.045
'[10:42:32.047]',-0.065
'[10:42:32.055]',-0.065
'[10:42:32.063]',-0.025
'[10:42:32.070]',-0.055
'[10:42:32.078]',-0.095
'[10:42:32.086]',-0.115
'[10:42:32.094]',-0.155
'[10:42:32.102]',-0.155
'[10:42:32.109]',-0.185
'[10:42:32.117]',-0.195
'[10:42:32.125]',-0.185
'[10:42:32.133]',-0.185
'[10:42:32.141]',-0.185
'[10:42:32.148]',-0.175
'[10:42:32.156]',-0.175
'[10:42:32.164]',-0.135
'[10:42:32.172]',-0.145
'[10:42:32.180]',-0.205
'[10:42:32.188]',-0.085
'[10:42:32.195]',1115
'[10:42:32.203]',2365
'[10:42:32.211]',2095
'[10:42:32.219]',-0.955
'[10:42:32.227]',-1175
'[10:42:32.234]',-0.795
'[10:42:32.242]',-0.455
'[10:42:32.250]',-0.175
'[10:42:32.258]',-0.045
'[10:42:32.266]',-0.005
'[10:42:32.273]',0.025
'[10:42:32.281]',0.055
'[10:42:32.289]',0.075
'[10:42:32.297]',0.095
'[10:42:32.305]',0.125
'[10:42:32.313]',0.145
'[10:42:32.320]',0.175
'[10:42:32.328]',0.195
'[10:42:32.336]',0.215
'[10:42:32.344]',0.245
'[10:42:32.352]',0.285
'[10:42:32.359]',0.325
'[10:42:32.367]',0.385
'[10:42:32.375]',0.445
'[10:42:32.383]',0.515
'[10:42:32.391]',0.595
'[10:42:32.398]',0.695
'[10:42:32.406]',0.805
'[10:42:32.414]',0.895
'[10:42:32.422]',0.955
'[10:42:32.430]',1005
'[10:42:32.438]',1015
'[10:42:32.445]',0.995
'[10:42:32.453]',0.925
'[10:42:32.461]',0.805
'[10:42:32.469]',0.615
'[10:42:32.477]',0.425
'[10:42:32.484]',0.225
'[10:42:32.492]',0.085
'[10:42:32.500]',-0.055
'[10:42:32.508]',-0.155
'[10:42:32.516]',-0.235
'[10:42:32.523]',-0.275
'[10:42:32.531]',-0.305
'[10:42:32.539]',-0.315
'[10:42:32.547]',-0.335
'[10:42:32.555]',-0.325
'[10:42:32.563]',-0.335
'[10:42:32.570]',-0.325
'[10:42:32.578]',-0.315
'[10:42:32.586]',-0.295
'[10:42:32.594]',-0.285
'[10:42:32.602]',-0.285
'[10:42:32.609]',-0.265
'[10:42:32.617]',-0.245
'[10:42:32.625]',-0.235
'[10:42:32.633]',-0.225
'[10:42:32.641]',-0.225
'[10:42:32.648]',-0.225
'[10:42:32.656]',-0.215
'[10:42:32.664]',-0.215
'[10:42:32.672]',-0.225
'[10:42:32.680]',-0.235
'[10:42:32.688]',-0.245
'[10:42:32.695]',-0.245
'[10:42:32.703]',-0.245
'[10:42:32.711]',-0.245
'[10:42:32.719]',-0.245
'[10:42:32.727]',-0.255
'[10:42:32.734]',-0.275
'[10:42:32.742]',-0.255
'[10:42:32.750]',-0.265
'[10:42:32.758]',-0.255
'[10:42:32.766]',-0.255
'[10:42:32.773]',-0.255
'[10:42:32.781]',-0.255
'[10:42:32.789]',-0.255
'[10:42:32.797]',-0.255
'[10:42:32.805]',-0.255
'[10:42:32.813]',-0.265
'[10:42:32.820]',-0.245
'[10:42:32.828]',-0.245
'[10:42:32.836]',-0.245
'[10:42:32.844]',-0.245
'[10:42:32.852]',-0.235
'[10:42:32.859]',-0.245
'[10:42:32.867]',-0.225
'[10:42:32.875]',-0.225
'[10:42:32.883]',-0.225
'[10:42:32.891]',-0.215
'[10:42:32.898]',-0.125
'[10:42:32.906]',-0.095
'[10:42:32.914]',-0.135
'[10:42:32.922]',-0.105
'[10:42:32.930]',-0.095
'[10:42:32.938]',-0.145
'[10:42:32.945]',-0.155
'[10:42:32.953]',-0.205
'[10:42:32.961]',-0.205
'[10:42:32.969]',-0.225
'[10:42:32.977]',-0.255
'[10:42:32.984]',-0.255
'[10:42:32.992]',-0.255
'[10:42:33.000]',-0.245
'[10:42:33.008]',-0.255
'[10:42:33.016]',-0.245
'[10:42:33.023]',-0.225
'[10:42:33.031]',-0.215
'[10:42:33.039]',-0.215
'[10:42:33.047]',-0.265
'[10:42:33.055]',-0.105
'[10:42:33.063]',1165
'[10:42:33.070]',2275
'[10:42:33.078]',1955
'[10:42:33.086]',-1005
'[10:42:33.094]',-1285
'[10:42:33.102]',-0.825
'[10:42:33.109]',-0.445
'[10:42:33.117]',-0.225
'[10:42:33.125]',-0.135
'[10:42:33.133]',-0.085
'[10:42:33.141]',-0.065
'[10:42:33.148]',-0.035
'[10:42:33.156]',-0.025
'[10:42:33.164]',-0.005
'[10:42:33.172]',0.015
'[10:42:33.180]',0.045
'[10:42:33.188]',0.065
'[10:42:33.195]',0.095
'[10:42:33.203]',0.115
'[10:42:33.211]',0.155
'[10:42:33.219]',0.185
'[10:42:33.227]',0.225
'[10:42:33.234]',0.265
'[10:42:33.242]',0.335
'[10:42:33.250]',0.405
'[10:42:33.258]',0.485
'[10:42:33.266]',0.565
'[10:42:33.273]',0.675
'[10:42:33.281]',0.765
'[10:42:33.289]',0.845
'[10:42:33.297]',0.895
'[10:42:33.305]',0.925
'[10:42:33.313]',0.905
'[10:42:33.320]',0.845
'[10:42:33.328]',0.735
'[10:42:33.336]',0.575
'[10:42:33.344]',0.375
'[10:42:33.352]',0.175
'[10:42:33.359]',0.025
'[10:42:33.367]',-0.095
'[10:42:33.375]',-0.205
'[10:42:33.383]',-0.285
'[10:42:33.391]',-0.345
'[10:42:33.398]',-0.375
'[10:42:33.406]',-0.405
'[10:42:33.414]',-0.425
'[10:42:33.422]',-0.435
'[10:42:33.430]',-0.435
'[10:42:33.438]',-0.425
'[10:42:33.445]',-0.415
'[10:42:33.453]',-0.405
'[10:42:33.461]',-0.385
'[10:42:33.469]',-0.375
'[10:42:33.477]',-0.355
'[10:42:33.484]',-0.335
'[10:42:33.492]',-0.315
'[10:42:33.500]',-0.305
'[10:42:33.508]',-0.295
'[10:42:33.516]',-0.285
'[10:42:33.523]',-0.285
'[10:42:33.531]',-0.285
'[10:42:33.539]',-0.295
'[10:42:33.547]',-0.305
'[10:42:33.555]',-0.305
'[10:42:33.563]',-0.325
'[10:42:33.570]',-0.325
'[10:42:33.578]',-0.325
'[10:42:33.586]',-0.325
'[10:42:33.594]',-0.325
'[10:42:33.602]',-0.335
'[10:42:33.609]',-0.335
'[10:42:33.617]',-0.335
'[10:42:33.625]',-0.335
'[10:42:33.633]',-0.335
'[10:42:33.641]',-0.345
'[10:42:33.648]',-0.325
'[10:42:33.656]',-0.325
'[10:42:33.664]',-0.325
'[10:42:33.672]',-0.325
'[10:42:33.680]',-0.325
'[10:42:33.688]',-0.325
'[10:42:33.695]',-0.315
'[10:42:33.703]',-0.325
'[10:42:33.711]',-0.305
'[10:42:33.719]',-0.295
'[10:42:33.727]',-0.305
'[10:42:33.734]',-0.305
'[10:42:33.742]',-0.295
'[10:42:33.750]',-0.295
'[10:42:33.758]',-0.295
'[10:42:33.766]',-0.295
'[10:42:33.773]',-0.275
'[10:42:33.781]',-0.195
'[10:42:33.789]',-0.165
'[10:42:33.797]',-0.175
'[10:42:33.805]',-0.155
'[10:42:33.813]',-0.125
'[10:42:33.820]',-0.185
'[10:42:33.828]',-0.215
'[10:42:33.836]',-0.235
'[10:42:33.844]',-0.245
'[10:42:33.852]',-0.265
'[10:42:33.859]',-0.295
'[10:42:33.867]',-0.295
'[10:42:33.875]',-0.315
'[10:42:33.883]',-0.305
'[10:42:33.891]',-0.305
'[10:42:33.898]',-0.285
'[10:42:33.906]',-0.295
'[10:42:33.914]',-0.275
'[10:42:33.922]',-0.265
'[10:42:33.930]',-0.295
'[10:42:33.938]',-0.325
'[10:42:33.945]',0.395
'[10:42:33.953]',2035
'[10:42:33.961]',2375
'[10:42:33.969]',-0.035
'[10:42:33.977]',-1565
'[10:42:33.984]',-1115
'[10:42:33.992]',-0.695
'[10:42:34.000]',-0.345
'[10:42:34.008]',-0.175
'[10:42:34.016]',-0.145
'[10:42:34.023]',-0.115
'[10:42:34.031]',-0.095
'[10:42:34.039]',-0.065
'[10:42:34.047]',-0.055
'[10:42:34.055]',-0.025
'[10:42:34.063]',-0.005
'[10:42:34.070]',0.015
'[10:42:34.078]',0.025
'[10:42:34.086]',0.065
'[10:42:34.094]',0.095
'[10:42:34.102]',0.135
'[10:42:34.109]',0.175
'[10:42:34.117]',0.215
'[10:42:34.125]',0.265
'[10:42:34.133]',0.345
'[10:42:34.141]',0.415
'[10:42:34.148]',0.495
'[10:42:34.156]',0.575
'[10:42:34.164]',0.685
'[10:42:34.172]',0.755
'[10:42:34.180]',0.825
'[10:42:34.188]',0.835
'[10:42:34.195]',0.825
'[10:42:34.203]',0.765
'[10:42:34.211]',0.655
'[10:42:34.219]',0.485
'[10:42:34.227]',0.295
'[10:42:34.234]',0.105
'[10:42:34.242]',-0.015
'[10:42:34.250]',-0.135
'[10:42:34.258]',-0.225
'[10:42:34.266]',-0.295
'[10:42:34.273]',-0.345
'[10:42:34.281]',-0.385
'[10:42:34.289]',-0.405
'[10:42:34.297]',-0.425
'[10:42:34.305]',-0.425
'[10:42:34.313]',-0.425
'[10:42:34.320]',-0.415
'[10:42:34.328]',-0.405
'[10:42:34.336]',-0.385
'[10:42:34.344]',-0.375
'[10:42:34.352]',-0.365
'[10:42:34.359]',-0.355
'[10:42:34.367]',-0.325
'[10:42:34.375]',-0.325
'[10:42:34.383]',-0.295
'[10:42:34.391]',-0.295
'[10:42:34.398]',-0.275
'[10:42:34.406]',-0.275
'[10:42:34.414]',-0.275
'[10:42:34.422]',-0.295
'[10:42:34.430]',-0.285
'[10:42:34.438]',-0.295
'[10:42:34.445]',-0.295
'[10:42:34.453]',-0.305
'[10:42:34.461]',-0.305
'[10:42:34.469]',-0.305
'[10:42:34.477]',-0.305
'[10:42:34.484]',-0.305
'[10:42:34.492]',-0.305
'[10:42:34.500]',-0.305
'[10:42:34.508]',-0.295
'[10:42:34.516]',-0.295
'[10:42:34.523]',-0.305
'[10:42:34.531]',-0.305
'[10:42:34.539]',-0.295
'[10:42:34.547]',-0.295
'[10:42:34.555]',-0.295
'[10:42:34.563]',-0.295
'[10:42:34.570]',-0.295
'[10:42:34.578]',-0.285
'[10:42:34.586]',-0.275
'[10:42:34.594]',-0.275
'[10:42:34.602]',-0.275
'[10:42:34.609]',-0.275
'[10:42:34.617]',-0.275
'[10:42:34.625]',-0.265
'[10:42:34.633]',-0.275
'[10:42:34.641]',-0.265
'[10:42:34.648]',-0.255
'[10:42:34.656]',-0.255
'[10:42:34.664]',-0.255
'[10:42:34.672]',-0.255
'[10:42:34.680]',-0.255
'[10:42:34.688]',-0.255
'[10:42:34.695]',-0.215
'[10:42:34.703]',-0.155
'[10:42:34.711]',-0.115
'[10:42:34.719]',-0.145
'[10:42:34.727]',-0.105
'[10:42:34.734]',-0.105
'[10:42:34.742]',-0.165
'[10:42:34.750]',-0.175
'[10:42:34.758]',-0.225
'[10:42:34.766]',-0.235
'[10:42:34.773]',-0.265
'[10:42:34.781]',-0.285
'[10:42:34.789]',-0.275
'[10:42:34.797]',-0.285
'[10:42:34.805]',-0.275
'[10:42:34.813]',-0.275
'[10:42:34.820]',-0.265
'[10:42:34.828]',-0.255
'[10:42:34.836]',-0.245
'[10:42:34.844]',-0.255
'[10:42:34.852]',-0.315
'[10:42:34.859]',0.155
'[10:42:34.867]',1775
'[10:42:34.875]',2395
'[10:42:34.883]',0.235
'[10:42:34.891]',-1485
'[10:42:34.898]',-1055
'[10:42:34.906]',-0.565
'[10:42:34.914]',-0.245
'[10:42:34.922]',-0.135
'[10:42:34.930]',-0.095
'[10:42:34.938]',-0.085
'[10:42:34.945]',-0.055
'[10:42:34.953]',-0.055
'[10:42:34.961]',-0.025
'[10:42:34.969]',0.005
'[10:42:34.977]',0.025
'[10:42:34.984]',0.045
'[10:42:34.992]',0.075
'[10:42:35.000]',0.115
'[10:42:35.008]',0.145
'[10:42:35.016]',0.185
'[10:42:35.023]',0.225
'[10:42:35.031]',0.275
'[10:42:35.039]',0.325
'[10:42:35.047]',0.405
'[10:42:35.055]',0.475
'[10:42:35.063]',0.555
'[10:42:35.070]',0.635
'[10:42:35.078]',0.725
'[10:42:35.086]',0.795
'[10:42:35.094]',0.835
'[10:42:35.102]',0.845
'[10:42:35.109]',0.825
'[10:42:35.117]',0.745
'[10:42:35.125]',0.635
'[10:42:35.133]',0.515
'[10:42:35.141]',0.345
'[10:42:35.148]',0.195
'[10:42:35.156]',0.045
'[10:42:35.164]',-0.055
'[10:42:35.172]',-0.155
'[10:42:35.180]',-0.225
'[10:42:35.188]',-0.275
'[10:42:35.195]',-0.305
'[10:42:35.203]',-0.325
'[10:42:35.211]',-0.335
'[10:42:35.219]',-0.335
'[10:42:35.227]',-0.345
'[10:42:35.234]',-0.335
'[10:42:35.242]',-0.325
'[10:42:35.250]',-0.325
'[10:42:35.258]',-0.305
'[10:42:35.266]',-0.295
'[10:42:35.273]',-0.275
'[10:42:35.281]',-0.255
'[10:42:35.289]',-0.245
'[10:42:35.297]',-0.235
'[10:42:35.305]',-0.215
'[10:42:35.313]',-0.225
'[10:42:35.320]',-0.215
'[10:42:35.328]',-0.215
'[10:42:35.336]',-0.215
'[10:42:35.344]',-0.225
'[10:42:35.352]',-0.235
'[10:42:35.359]',-0.235
'[10:42:35.367]',-0.245
'[10:42:35.375]',-0.245
'[10:42:35.383]',-0.255
'[10:42:35.391]',-0.265
'[10:42:35.398]',-0.255
'[10:42:35.406]',-0.245
'[10:42:35.414]',-0.245
'[10:42:35.422]',-0.255
'[10:42:35.430]',-0.245
'[10:42:35.438]',-0.235
'[10:42:35.445]',-0.245
'[10:42:35.453]',-0.245
'[10:42:35.461]',-0.235
'[10:42:35.469]',-0.235
'[10:42:35.477]',-0.235
'[10:42:35.484]',-0.245
'[10:42:35.492]',-0.225
'[10:42:35.500]',-0.225
'[10:42:35.508]',-0.225
'[10:42:35.516]',-0.225
'[10:42:35.523]',-0.205
'[10:42:35.531]',-0.215
'[10:42:35.539]',-0.205
'[10:42:35.547]',-0.215
'[10:42:35.555]',-0.205
'[10:42:35.563]',-0.205
'[10:42:35.570]',-0.195
'[10:42:35.578]',-0.195
'[10:42:35.586]',-0.105
'[10:42:35.594]',-0.065
'[10:42:35.602]',-0.095
'[10:42:35.609]',-0.075
'[10:42:35.617]',-0.045
'[10:42:35.625]',-0.105
'[10:42:35.633]',-0.125
'[10:42:35.641]',-0.155
'[10:42:35.648]',-0.165
'[10:42:35.656]',-0.185
'[10:42:35.664]',-0.215
'[10:42:35.672]',-0.215
'[10:42:35.680]',-0.215
'[10:42:35.688]',-0.205
'[10:42:35.695]',-0.195
'[10:42:35.703]',-0.195
'[10:42:35.711]',-0.185
'[10:42:35.719]',-0.175
'[10:42:35.727]',-0.175
'[10:42:35.734]',-0.245
'[10:42:35.742]',-0.005
'[10:42:35.750]',1445
'[10:42:35.758]',2375
'[10:42:35.766]',1435
'[10:42:35.773]',-1225
'[10:42:35.781]',-1075
'[10:42:35.789]',-0.705
'[10:42:35.797]',-0.355
'[10:42:35.805]',-0.105
'[10:42:35.813]',-0.045
'[10:42:35.820]',-0.015
'[10:42:35.828]',-0.005
'[10:42:35.836]',0.025
'[10:42:35.844]',0.055
'[10:42:35.852]',0.075
'[10:42:35.859]',0.085
'[10:42:35.867]',0.115
'[10:42:35.875]',0.145
'[10:42:35.883]',0.175
'[10:42:35.891]',0.205
'[10:42:35.898]',0.235
'[10:42:35.906]',0.275
'[10:42:35.914]',0.315
'[10:42:35.922]',0.355
'[10:42:35.930]',0.415
'[10:42:35.938]',0.485
'[10:42:35.945]',0.565
'[10:42:35.953]',0.645
'[10:42:35.961]',0.765
'[10:42:35.969]',0.845
'[10:42:35.977]',0.915
'[10:42:35.984]',0.965
'[10:42:35.992]',0.975
'[10:42:36.000]',0.955
'[10:42:36.008]',0.905
'[10:42:36.016]',0.785
'[10:42:36.023]',0.625
'[10:42:36.031]',0.455
'[10:42:36.039]',0.275
'[10:42:36.047]',0.105
'[10:42:36.055]',-0.015
'[10:42:36.063]',-0.135
'[10:42:36.070]',-0.195
'[10:42:36.078]',-0.265
'[10:42:36.086]',-0.285
'[10:42:36.094]',-0.325
'[10:42:36.102]',-0.325
'[10:42:36.109]',-0.325
'[10:42:36.117]',-0.325
'[10:42:36.125]',-0.325
'[10:42:36.133]',-0.295
'[10:42:36.141]',-0.295
'[10:42:36.148]',-0.275
'[10:42:36.156]',-0.255
'[10:42:36.164]',-0.255
'[10:42:36.172]',-0.235
'[10:42:36.180]',-0.225
'[10:42:36.188]',-0.225
'[10:42:36.195]',-0.205
'[10:42:36.203]',-0.205
'[10:42:36.211]',-0.205
'[10:42:36.219]',-0.205
'[10:42:36.227]',-0.205
'[10:42:36.234]',-0.225
'[10:42:36.242]',-0.235
'[10:42:36.250]',-0.235
'[10:42:36.258]',-0.235
'[10:42:36.266]',-0.245
'[10:42:36.273]',-0.245
'[10:42:36.281]',-0.255
'[10:42:36.289]',-0.245
'[10:42:36.297]',-0.255
'[10:42:36.305]',-0.245
'[10:42:36.313]',-0.245
'[10:42:36.320]',-0.245
'[10:42:36.328]',-0.245
'[10:42:36.336]',-0.245
'[10:42:36.344]',-0.245
'[10:42:36.352]',-0.245
'[10:42:36.359]',-0.235
'[10:42:36.367]',-0.245
'[10:42:36.375]',-0.245
'[10:42:36.383]',-0.235
'[10:42:36.391]',-0.235
'[10:42:36.398]',-0.225
'[10:42:36.406]',-0.225
'[10:42:36.414]',-0.225
'[10:42:36.422]',-0.225
'[10:42:36.430]',-0.225
'[10:42:36.438]',-0.205
'[10:42:36.445]',-0.135
'[10:42:36.453]',-0.105
'[10:42:36.461]',-0.125
'[10:42:36.469]',-0.085
'[10:42:36.477]',-0.085
'[10:42:36.484]',-0.145
'[10:42:36.492]',-0.145
'[10:42:36.500]',-0.195
'[10:42:36.508]',-0.195
'[10:42:36.516]',-0.235
'[10:42:36.523]',-0.245
'[10:42:36.531]',-0.245
'[10:42:36.539]',-0.245
'[10:42:36.547]',-0.245
'[10:42:36.555]',-0.245
'[10:42:36.563]',-0.235
'[10:42:36.570]',-0.215
'[10:42:36.578]',-0.215
'[10:42:36.586]',-0.245
'[10:42:36.594]',-0.195
'[10:42:36.602]',0.875
'[10:42:36.609]',2235
'[10:42:36.617]',2295
'[10:42:36.625]',-0.655
'[10:42:36.633]',-1405
'[10:42:36.641]',-0.965
'[10:42:36.648]',-0.565
'[10:42:36.656]',-0.225
'[10:42:36.664]',-0.115
'[10:42:36.672]',-0.075
'[10:42:36.680]',-0.055
'[10:42:36.688]',-0.025
'[10:42:36.695]',-0.005
'[10:42:36.703]',0.025
'[10:42:36.711]',0.035
'[10:42:36.719]',0.055
'[10:42:36.727]',0.085
'[10:42:36.734]',0.095
'[10:42:36.742]',0.135
'[10:42:36.750]',0.175
'[10:42:36.758]',0.205
'[10:42:36.766]',0.245
'[10:42:36.773]',0.295
'[10:42:36.781]',0.355
'[10:42:36.789]',0.415
'[10:42:36.797]',0.485
'[10:42:36.805]',0.575
'[10:42:36.813]',0.665
'[10:42:36.820]',0.775
'[10:42:36.828]',0.845
'[10:42:36.836]',0.905
'[10:42:36.844]',0.945
'[10:42:36.852]',0.935
'[10:42:36.859]',0.905
'[10:42:36.867]',0.805
'[10:42:36.875]',0.655
'[10:42:36.883]',0.455
'[10:42:36.891]',0.265
'[10:42:36.898]',0.105
'[10:42:36.906]',-0.035
'[10:42:36.914]',-0.145
'[10:42:36.922]',-0.245
'[10:42:36.930]',-0.305
'[10:42:36.938]',-0.355
'[10:42:36.945]',-0.375
'[10:42:36.953]',-0.405
'[10:42:36.961]',-0.405
'[10:42:36.969]',-0.395
'[10:42:36.977]',-0.405
'[10:42:36.984]',-0.395
'[10:42:36.992]',-0.395
'[10:42:37.000]',-0.375
'[10:42:37.008]',-0.365
'[10:42:37.016]',-0.345
'[10:42:37.023]',-0.335
'[10:42:37.031]',-0.325
'[10:42:37.039]',-0.295
'[10:42:37.047]',-0.295
'[10:42:37.055]',-0.275
'[10:42:37.063]',-0.275
'[10:42:37.070]',-0.285
'[10:42:37.078]',-0.275
'[10:42:37.086]',-0.285
'[10:42:37.094]',-0.295
'[10:42:37.102]',-0.295
'[10:42:37.109]',-0.305
'[10:42:37.117]',-0.295
'[10:42:37.125]',-0.315
'[10:42:37.133]',-0.305
'[10:42:37.141]',-0.315
'[10:42:37.148]',-0.315
'[10:42:37.156]',-0.325
'[10:42:37.164]',-0.325
'[10:42:37.172]',-0.325
'[10:42:37.180]',-0.315
'[10:42:37.188]',-0.325
'[10:42:37.195]',-0.305
'[10:42:37.203]',-0.325
'[10:42:37.211]',-0.305
'[10:42:37.219]',-0.315
'[10:42:37.227]',-0.305
'[10:42:37.234]',-0.305
'[10:42:37.242]',-0.305
'[10:42:37.250]',-0.305
'[10:42:37.258]',-0.305
'[10:42:37.266]',-0.305
'[10:42:37.273]',-0.285
'[10:42:37.281]',-0.295
'[10:42:37.289]',-0.285
'[10:42:37.297]',-0.295
'[10:42:37.305]',-0.285
'[10:42:37.313]',-0.215
'[10:42:37.320]',-0.175
'[10:42:37.328]',-0.175
'[10:42:37.336]',-0.155
'[10:42:37.344]',-0.135
'[10:42:37.352]',-0.195
'[10:42:37.359]',-0.215
'[10:42:37.367]',-0.255
'[10:42:37.375]',-0.255
'[10:42:37.383]',-0.295
'[10:42:37.391]',-0.325
'[10:42:37.398]',-0.305
'[10:42:37.406]',-0.305
'[10:42:37.414]',-0.315
'[10:42:37.422]',-0.305
'[10:42:37.430]',-0.295
'[10:42:37.438]',-0.295
'[10:42:37.445]',-0.265
'[10:42:37.453]',-0.275
'[10:42:37.461]',-0.325
'[10:42:37.469]',0.025
'[10:42:37.477]',1445
'[10:42:37.484]',2365
'[10:42:37.492]',1585
'[10:42:37.500]',-1325
'[10:42:37.508]',-1355
'[10:42:37.516]',-0.895
'[10:42:37.523]',-0.505
'[10:42:37.531]',-0.245
'[10:42:37.539]',-0.165
'[10:42:37.547]',-0.135
'[10:42:37.555]',-0.105
'[10:42:37.563]',-0.085
'[10:42:37.570]',-0.065
'[10:42:37.578]',-0.045
'[10:42:37.586]',-0.025
'[10:42:37.594]',-0.005
'[10:42:37.602]',0.035
'[10:42:37.609]',0.045
'[10:42:37.617]',0.075
'[10:42:37.625]',0.115
'[10:42:37.633]',0.145
'[10:42:37.641]',0.185
'[10:42:37.648]',0.235
'[10:42:37.656]',0.295
'[10:42:37.664]',0.355
'[10:42:37.672]',0.425
'[10:42:37.680]',0.515
'[10:42:37.688]',0.605
'[10:42:37.695]',0.695
'[10:42:37.703]',0.775
'[10:42:37.711]',0.855
'[10:42:37.719]',0.875
'[10:42:37.727]',0.875
'[10:42:37.734]',0.825
'[10:42:37.742]',0.735
'[10:42:37.750]',0.585
'[10:42:37.758]',0.415
'[10:42:37.766]',0.235
'[10:42:37.773]',0.065
'[10:42:37.781]',-0.075
'[10:42:37.789]',-0.195
'[10:42:37.797]',-0.285
'[10:42:37.805]',-0.335
'[10:42:37.813]',-0.385
'[10:42:37.820]',-0.415
'[10:42:37.828]',-0.435
'[10:42:37.836]',-0.435
'[10:42:37.844]',-0.445
'[10:42:37.852]',-0.435
'[10:42:37.859]',-0.425
'[10:42:37.867]',-0.415
'[10:42:37.875]',-0.405
'[10:42:37.883]',-0.385
'[10:42:37.891]',-0.375
'[10:42:37.898]',-0.345
'[10:42:37.906]',-0.325
'[10:42:37.914]',-0.325
'[10:42:37.922]',-0.325
'[10:42:37.930]',-0.305
'[10:42:37.938]',-0.305
'[10:42:37.945]',-0.315
'[10:42:37.953]',-0.325
'[10:42:37.961]',-0.305
'[10:42:37.969]',-0.325
'[10:42:37.977]',-0.325
'[10:42:37.984]',-0.335
'[10:42:37.992]',-0.335
'[10:42:38.000]',-0.345
'[10:42:38.008]',-0.345
'[10:42:38.016]',-0.335
'[10:42:38.023]',-0.335
'[10:42:38.031]',-0.335
'[10:42:38.039]',-0.345
'[10:42:38.047]',-0.335
'[10:42:38.055]',-0.335
'[10:42:38.063]',-0.335
'[10:42:38.070]',-0.325
'[10:42:38.078]',-0.335
'[10:42:38.086]',-0.325
'[10:42:38.094]',-0.315
'[10:42:38.102]',-0.315
'[10:42:38.109]',-0.335
'[10:42:38.117]',-0.315
'[10:42:38.125]',-0.325
'[10:42:38.133]',-0.305
'[10:42:38.141]',-0.315
'[10:42:38.148]',-0.295
'[10:42:38.156]',-0.295
'[10:42:38.164]',-0.295
'[10:42:38.172]',-0.295
'[10:42:38.180]',-0.295
'[10:42:38.188]',-0.285
'[10:42:38.195]',-0.205
'[10:42:38.203]',-0.165
'[10:42:38.211]',-0.175
'[10:42:38.219]',-0.155
'[10:42:38.227]',-0.135
'[10:42:38.234]',-0.195
'[10:42:38.242]',-0.215
'[10:42:38.250]',-0.255
'[10:42:38.258]',-0.255
'[10:42:38.266]',-0.285
'[10:42:38.273]',-0.325
'[10:42:38.281]',-0.305
'[10:42:38.289]',-0.305
'[10:42:38.297]',-0.305
'[10:42:38.305]',-0.305
'[10:42:38.313]',-0.295
'[10:42:38.320]',-0.295
'[10:42:38.328]',-0.285
'[10:42:38.336]',-0.275
'[10:42:38.344]',-0.295
'[10:42:38.352]',-0.275
'[10:42:38.359]',0.715
'[10:42:38.367]',2155
'[10:42:38.375]',2295
'[10:42:38.383]',-0.525
'[10:42:38.391]',-1485
'[10:42:38.398]',-1015
'[10:42:38.406]',-0.585
'[10:42:38.414]',-0.275
'[10:42:38.422]',-0.155
'[10:42:38.430]',-0.135
'[10:42:38.438]',-0.105
'[10:42:38.445]',-0.085
'[10:42:38.453]',-0.075
'[10:42:38.461]',-0.045
'[10:42:38.469]',-0.025
'[10:42:38.477]',-0.005
'[10:42:38.484]',0.015
'[10:42:38.492]',0.045
'[10:42:38.500]',0.065
'[10:42:38.508]',0.105
'[10:42:38.516]',0.135
'[10:42:38.523]',0.185
'[10:42:38.531]',0.225
'[10:42:38.539]',0.265
'[10:42:38.547]',0.335
'[10:42:38.555]',0.405
'[10:42:38.563]',0.475
'[10:42:38.570]',0.565
'[10:42:38.578]',0.655
'[10:42:38.586]',0.725
'[10:42:38.594]',0.795
'[10:42:38.602]',0.815
'[10:42:38.609]',0.805
'[10:42:38.617]',0.765
'[10:42:38.625]',0.675
'[10:42:38.633]',0.545
'[10:42:38.641]',0.395
'[10:42:38.648]',0.225
'[10:42:38.656]',0.065
'[10:42:38.664]',-0.075
'[10:42:38.672]',-0.185
'[10:42:38.680]',-0.255
'[10:42:38.688]',-0.325
'[10:42:38.695]',-0.355
'[10:42:38.703]',-0.385
'[10:42:38.711]',-0.405
'[10:42:38.719]',-0.395
'[10:42:38.727]',-0.405
'[10:42:38.734]',-0.405
'[10:42:38.742]',-0.385
'[10:42:38.750]',-0.375
'[10:42:38.758]',-0.355
'[10:42:38.766]',-0.345
'[10:42:38.773]',-0.335
'[10:42:38.781]',-0.315
'[10:42:38.789]',-0.295
'[10:42:38.797]',-0.285
'[10:42:38.805]',-0.275
'[10:42:38.813]',-0.255
'[10:42:38.820]',-0.255
'[10:42:38.828]',-0.275
'[10:42:38.836]',-0.255
'[10:42:38.844]',-0.265
'[10:42:38.852]',-0.275
'[10:42:38.859]',-0.285
'[10:42:38.867]',-0.285
'[10:42:38.875]',-0.285
'[10:42:38.883]',-0.285
'[10:42:38.891]',-0.275
'[10:42:38.898]',-0.265
'[10:42:38.906]',-0.275
'[10:42:38.914]',-0.275
'[10:42:38.922]',-0.275
'[10:42:38.930]',-0.265
'[10:42:38.938]',-0.265
'[10:42:38.945]',-0.265
'[10:42:38.953]',-0.255
'[10:42:38.961]',-0.255
'[10:42:38.969]',-0.245
'[10:42:38.977]',-0.245
'[10:42:38.984]',-0.255
'[10:42:38.992]',-0.255
'[10:42:39.000]',-0.255
'[10:42:39.008]',-0.255
'[10:42:39.016]',-0.255
'[10:42:39.023]',-0.245
'[10:42:39.031]',-0.245
'[10:42:39.039]',-0.245
'[10:42:39.047]',-0.235
'[10:42:39.055]',-0.235
'[10:42:39.063]',-0.235
'[10:42:39.070]',-0.225
'[10:42:39.078]',-0.225
'[10:42:39.086]',-0.215
'[10:42:39.094]',-0.135
'[10:42:39.102]',-0.105
'[10:42:39.109]',-0.125
'[10:42:39.117]',-0.085
'[10:42:39.125]',-0.075
'[10:42:39.133]',-0.135
'[10:42:39.141]',-0.145
'[10:42:39.148]',-0.175
'[10:42:39.156]',-0.185
'[10:42:39.164]',-0.215
'[10:42:39.172]',-0.235
'[10:42:39.180]',-0.225
'[10:42:39.188]',-0.235
'[10:42:39.195]',-0.225
'[10:42:39.203]',-0.225
'[10:42:39.211]',-0.195
'[10:42:39.219]',-0.205
'[10:42:39.227]',-0.185
'[10:42:39.234]',-0.205
'[10:42:39.242]',-0.255
'[10:42:39.250]',-0.025
'[10:42:39.258]',1315
'[10:42:39.266]',2335
'[10:42:39.273]',1845
'[10:42:39.281]',-0.985
'[10:42:39.289]',-1175
'[10:42:39.297]',-0.805
'[10:42:39.305]',-0.435
'[10:42:39.313]',-0.165
'[10:42:39.320]',-0.075
'[10:42:39.328]',-0.045
'[10:42:39.336]',-0.015
'[10:42:39.344]',-0.005
'[10:42:39.352]',0.025
'[10:42:39.359]',0.045
'[10:42:39.367]',0.065
'[10:42:39.375]',0.085
'[10:42:39.383]',0.105
'[10:42:39.391]',0.135
'[10:42:39.398]',0.155
'[10:42:39.406]',0.185
'[10:42:39.414]',0.225
'[10:42:39.422]',0.265
'[10:42:39.430]',0.315
'[10:42:39.438]',0.375
'[10:42:39.445]',0.445
'[10:42:39.453]',0.505
'[10:42:39.461]',0.595
'[10:42:39.469]',0.675
'[10:42:39.477]',0.785
'[10:42:39.484]',0.865
'[10:42:39.492]',0.915
'[10:42:39.500]',0.935
'[10:42:39.508]',0.935
'[10:42:39.516]',0.885
'[10:42:39.523]',0.815
'[10:42:39.531]',0.665
'[10:42:39.539]',0.475
'[10:42:39.547]',0.285
'[10:42:39.555]',0.135
'[10:42:39.563]',0.005
'[10:42:39.570]',-0.125
'[10:42:39.578]',-0.205
'[10:42:39.586]',-0.255
'[10:42:39.594]',-0.305
'[10:42:39.602]',-0.325
'[10:42:39.609]',-0.335
'[10:42:39.617]',-0.345
'[10:42:39.625]',-0.345
'[10:42:39.633]',-0.335
'[10:42:39.641]',-0.325
'[10:42:39.648]',-0.315
'[10:42:39.656]',-0.295
'[10:42:39.664]',-0.285
'[10:42:39.672]',-0.265
'[10:42:39.680]',-0.245
'[10:42:39.688]',-0.245
'[10:42:39.695]',-0.225
'[10:42:39.703]',-0.225
'[10:42:39.711]',-0.215
'[10:42:39.719]',-0.225
'[10:42:39.727]',-0.215
'[10:42:39.734]',-0.245
'[10:42:39.742]',-0.235
'[10:42:39.750]',-0.245
'[10:42:39.758]',-0.255
'[10:42:39.766]',-0.255
'[10:42:39.773]',-0.265
'[10:42:39.781]',-0.255
'[10:42:39.789]',-0.265
