'Time','ECG1'
'[11:30:00.000]',-0.215
'[11:30:00.008]',-0.195
'[11:30:00.016]',-0.185
'[11:30:00.023]',-0.175
'[11:30:00.031]',-0.185
'[11:30:00.039]',-0.145
'[11:30:00.047]',-0.125
'[11:30:00.055]',-0.095
'[11:30:00.063]',-0.055
'[11:30:00.070]',-0.025
'[11:30:00.078]',0.025
'[11:30:00.086]',0.075
'[11:30:00.094]',0.105
'[11:30:00.102]',0.155
'[11:30:00.109]',0.175
'[11:30:00.117]',0.195
'[11:30:00.125]',0.215
'[11:30:00.133]',0.215
'[11:30:00.141]',0.165
'[11:30:00.148]',0.105
'[11:30:00.156]',0.045
'[11:30:00.164]',0.005
'[11:30:00.172]',-0.045
'[11:30:00.180]',-0.075
'[11:30:00.188]',-0.085
'[11:30:00.195]',-0.115
'[11:30:00.203]',-0.115
'[11:30:00.211]',-0.125
'[11:30:00.219]',-0.115
'[11:30:00.227]',-0.115
'[11:30:00.234]',-0.105
'[11:30:00.242]',-0.105
'[11:30:00.250]',-0.095
'[11:30:00.258]',-0.065
'[11:30:00.266]',-0.035
'[11:30:00.273]',-0.025
'[11:30:00.281]',-0.005
'[11:30:00.289]',0.035
'[11:30:00.297]',0.115
'[11:30:00.305]',0.155
'[11:30:00.313]',0.155
'[11:30:00.320]',0.155
'[11:30:00.328]',0.115
'[11:30:00.336]',0.065
'[11:30:00.344]',0.015
'[11:30:00.352]',-0.035
'[11:30:00.359]',-0.085
'[11:30:00.367]',-0.115
'[11:30:00.375]',-0.115
'[11:30:00.383]',-0.105
'[11:30:00.391]',-0.105
'[11:30:00.398]',-0.285
'[11:30:00.406]',-0.515
'[11:30:00.414]',-0.315
'[11:30:00.422]',0.315
'[11:30:00.430]',0.835
'[11:30:00.438]',0.605
'[11:30:00.445]',0.145
'[11:30:00.453]',-0.145
'[11:30:00.461]',-0.215
'[11:30:00.469]',-0.185
'[11:30:00.477]',-0.105
'[11:30:00.484]',-0.055
'[11:30:00.492]',-0.025
'[11:30:00.500]',-0.025
'[11:30:00.508]',-0.025
'[11:30:00.516]',-0.005
'[11:30:00.523]',0.005
'[11:30:00.531]',0.025
'[11:30:00.539]',0.045
'[11:30:00.547]',0.055
'[11:30:00.555]',0.075
'[11:30:00.563]',0.085
'[11:30:00.570]',0.125
'[11:30:00.578]',0.145
'[11:30:00.586]',0.175
'[11:30:00.594]',0.195
'[11:30:00.602]',0.235
'[11:30:00.609]',0.275
'[11:30:00.617]',0.325
'[11:30:00.625]',0.365
'[11:30:00.633]',0.405
'[11:30:00.641]',0.435
'[11:30:00.648]',0.455
'[11:30:00.656]',0.455
'[11:30:00.664]',0.455
'[11:30:00.672]',0.445
'[11:30:00.680]',0.405
'[11:30:00.688]',0.365
'[11:30:00.695]',0.315
'[11:30:00.703]',0.285
'[11:30:00.711]',0.235
'[11:30:00.719]',0.215
'[11:30:00.727]',0.225
'[11:30:00.734]',0.215
'[11:30:00.742]',0.215
'[11:30:00.750]',0.215
'[11:30:00.758]',0.235
'[11:30:00.766]',0.235
'[11:30:00.773]',0.215
'[11:30:00.781]',0.215
'[11:30:00.789]',0.225
'[11:30:00.797]',0.245
'[11:30:00.805]',0.285
'[11:30:00.813]',0.305
'[11:30:00.820]',0.345
'[11:30:00.828]',0.355
'[11:30:00.836]',0.395
'[11:30:00.844]',0.405
'[11:30:00.852]',0.425
'[11:30:00.859]',0.405
'[11:30:00.867]',0.375
'[11:30:00.875]',0.355
'[11:30:00.883]',0.295
'[11:30:00.891]',0.245
'[11:30:00.898]',0.205
'[11:30:00.906]',0.175
'[11:30:00.914]',0.165
'[11:30:00.922]',0.195
'[11:30:00.930]',0.115
'[11:30:00.938]',-0.155
'[11:30:00.945]',-0.185
'[11:30:00.953]',0.295
'[11:30:00.961]',0.935
'[11:30:00.969]',0.925
'[11:30:00.977]',0.375
'[11:30:00.984]',0.065
'[11:30:00.992]',0.065
'[11:30:01.000]',0.115
'[11:30:01.008]',0.145
'[11:30:01.016]',0.165
'[11:30:01.023]',0.145
'[11:30:01.031]',0.165
'[11:30:01.039]',0.175
'[11:30:01.047]',0.175
'[11:30:01.055]',0.175
'[11:30:01.063]',0.185
'[11:30:01.070]',0.215
'[11:30:01.078]',0.225
'[11:30:01.086]',0.225
'[11:30:01.094]',0.235
'[11:30:01.102]',0.265
'[11:30:01.109]',0.275
'[11:30:01.117]',0.305
'[11:30:01.125]',0.325
'[11:30:01.133]',0.355
'[11:30:01.141]',0.385
'[11:30:01.148]',0.415
'[11:30:01.156]',0.445
'[11:30:01.164]',0.505
'[11:30:01.172]',0.535
'[11:30:01.180]',0.555
'[11:30:01.188]',0.565
'[11:30:01.195]',0.575
'[11:30:01.203]',0.545
'[11:30:01.211]',0.475
'[11:30:01.219]',0.415
'[11:30:01.227]',0.375
'[11:30:01.234]',0.325
'[11:30:01.242]',0.305
'[11:30:01.250]',0.275
'[11:30:01.258]',0.255
'[11:30:01.266]',0.245
'[11:30:01.273]',0.235
'[11:30:01.281]',0.225
'[11:30:01.289]',0.235
'[11:30:01.297]',0.245
'[11:30:01.305]',0.245
'[11:30:01.313]',0.255
'[11:30:01.320]',0.245
'[11:30:01.328]',0.255
'[11:30:01.336]',0.285
'[11:30:01.344]',0.305
'[11:30:01.352]',0.325
'[11:30:01.359]',0.345
'[11:30:01.367]',0.415
'[11:30:01.375]',0.435
'[11:30:01.383]',0.435
'[11:30:01.391]',0.415
'[11:30:01.398]',0.365
'[11:30:01.406]',0.345
'[11:30:01.414]',0.275
'[11:30:01.422]',0.225
'[11:30:01.430]',0.155
'[11:30:01.438]',0.145
'[11:30:01.445]',0.125
'[11:30:01.453]',0.115
'[11:30:01.461]',0.105
'[11:30:01.469]',-0.115
'[11:30:01.477]',-0.345
'[11:30:01.484]',-0.145
'[11:30:01.492]',0.545
'[11:30:01.500]',1035
'[11:30:01.508]',0.655
'[11:30:01.516]',0.105
'[11:30:01.523]',-0.075
'[11:30:01.531]',-0.015
'[11:30:01.539]',0.055
'[11:30:01.547]',0.095
'[11:30:01.555]',0.105
'[11:30:01.563]',0.105
'[11:30:01.570]',0.115
'[11:30:01.578]',0.105
'[11:30:01.586]',0.105
'[11:30:01.594]',0.115
'[11:30:01.602]',0.135
'[11:30:01.609]',0.145
'[11:30:01.617]',0.145
'[11:30:01.625]',0.165
'[11:30:01.633]',0.185
'[11:30:01.641]',0.205
'[11:30:01.648]',0.215
'[11:30:01.656]',0.225
'[11:30:01.664]',0.265
'[11:30:01.672]',0.305
'[11:30:01.680]',0.335
'[11:30:01.688]',0.385
'[11:30:01.695]',0.425
'[11:30:01.703]',0.455
'[11:30:01.711]',0.465
'[11:30:01.719]',0.475
'[11:30:01.727]',0.505
'[11:30:01.734]',0.475
'[11:30:01.742]',0.435
'[11:30:01.750]',0.375
'[11:30:01.758]',0.285
'[11:30:01.766]',0.225
'[11:30:01.773]',0.165
'[11:30:01.781]',0.155
'[11:30:01.789]',0.155
'[11:30:01.797]',0.135
'[11:30:01.805]',0.145
'[11:30:01.813]',0.145
'[11:30:01.820]',0.145
'[11:30:01.828]',0.125
'[11:30:01.836]',0.115
'[11:30:01.844]',0.115
'[11:30:01.852]',0.125
'[11:30:01.859]',0.145
'[11:30:01.867]',0.185
'[11:30:01.875]',0.185
'[11:30:01.883]',0.235
'[11:30:01.891]',0.255
'[11:30:01.898]',0.305
'[11:30:01.906]',0.315
'[11:30:01.914]',0.325
'[11:30:01.922]',0.295
'[11:30:01.930]',0.255
'[11:30:01.938]',0.225
'[11:30:01.945]',0.155
'[11:30:01.953]',0.095
'[11:30:01.961]',0.005
'[11:30:01.969]',-0.005
'[11:30:01.977]',-0.015
'[11:30:01.984]',-0.015
'[11:30:01.992]',-0.015
'[11:30:02.000]',-0.295
'[11:30:02.008]',-0.455
'[11:30:02.016]',-0.205
'[11:30:02.023]',0.465
'[11:30:02.031]',0.865
'[11:30:02.039]',0.475
'[11:30:02.047]',-0.035
'[11:30:02.055]',-0.195
'[11:30:02.063]',-0.175
'[11:30:02.070]',-0.095
'[11:30:02.078]',-0.035
'[11:30:02.086]',-0.015
'[11:30:02.094]',-0.035
'[11:30:02.102]',-0.035
'[11:30:02.109]',-0.015
'[11:30:02.117]',0.005
'[11:30:02.125]',-0.005
'[11:30:02.133]',0.005
'[11:30:02.141]',0.015
'[11:30:02.148]',0.015
'[11:30:02.156]',0.015
'[11:30:02.164]',0.045
'[11:30:02.172]',0.045
'[11:30:02.180]',0.065
'[11:30:02.188]',0.105
'[11:30:02.195]',0.135
'[11:30:02.203]',0.135
'[11:30:02.211]',0.175
'[11:30:02.219]',0.235
'[11:30:02.227]',0.295
'[11:30:02.234]',0.325
'[11:30:02.242]',0.355
'[11:30:02.250]',0.365
'[11:30:02.258]',0.365
'[11:30:02.266]',0.335
'[11:30:02.273]',0.295
'[11:30:02.281]',0.225
'[11:30:02.289]',0.175
'[11:30:02.297]',0.095
'[11:30:02.305]',0.045
'[11:30:02.313]',0.015
'[11:30:02.320]',-0.005
'[11:30:02.328]',-0.035
'[11:30:02.336]',-0.035
'[11:30:02.344]',-0.045
'[11:30:02.352]',-0.045
'[11:30:02.359]',-0.045
'[11:30:02.367]',-0.045
'[11:30:02.375]',-0.045
'[11:30:02.383]',-0.045
'[11:30:02.391]',-0.035
'[11:30:02.398]',-0.025
'[11:30:02.406]',0.005
'[11:30:02.414]',0.045
'[11:30:02.422]',0.085
'[11:30:02.430]',0.115
'[11:30:02.438]',0.135
'[11:30:02.445]',0.135
'[11:30:02.453]',0.105
'[11:30:02.461]',0.045
'[11:30:02.469]',-0.005
'[11:30:02.477]',-0.065
'[11:30:02.484]',-0.115
'[11:30:02.492]',-0.175
'[11:30:02.500]',-0.195
'[11:30:02.508]',-0.195
'[11:30:02.516]',-0.205
'[11:30:02.523]',-0.325
'[11:30:02.531]',-0.555
'[11:30:02.539]',-0.455
'[11:30:02.547]',0.035
'[11:30:02.555]',0.545
'[11:30:02.563]',0.515
'[11:30:02.570]',0.165
'[11:30:02.578]',-0.215
'[11:30:02.586]',-0.385
'[11:30:02.594]',-0.385
'[11:30:02.602]',-0.295
'[11:30:02.609]',-0.255
'[11:30:02.617]',-0.215
'[11:30:02.625]',-0.225
'[11:30:02.633]',-0.225
'[11:30:02.641]',-0.225
'[11:30:02.648]',-0.215
'[11:30:02.656]',-0.215
'[11:30:02.664]',-0.195
'[11:30:02.672]',-0.195
'[11:30:02.680]',-0.185
'[11:30:02.688]',-0.175
'[11:30:02.695]',-0.165
'[11:30:02.703]',-0.145
'[11:30:02.711]',-0.135
'[11:30:02.719]',-0.095
'[11:30:02.727]',-0.075
'[11:30:02.734]',-0.015
'[11:30:02.742]',0.025
'[11:30:02.750]',0.055
'[11:30:02.758]',0.105
'[11:30:02.766]',0.125
'[11:30:02.773]',0.135
'[11:30:02.781]',0.145
'[11:30:02.789]',0.125
'[11:30:02.797]',0.095
'[11:30:02.805]',0.045
'[11:30:02.813]',-0.015
'[11:30:02.820]',-0.045
'[11:30:02.828]',-0.125
'[11:30:02.836]',-0.185
'[11:30:02.844]',-0.195
'[11:30:02.852]',-0.195
'[11:30:02.859]',-0.215
'[11:30:02.867]',-0.215
'[11:30:02.875]',-0.215
'[11:30:02.883]',-0.225
'[11:30:02.891]',-0.225
'[11:30:02.898]',-0.235
'[11:30:02.906]',-0.215
'[11:30:02.914]',-0.195
'[11:30:02.922]',-0.175
'[11:30:02.930]',-0.155
'[11:30:02.938]',-0.135
'[11:30:02.945]',-0.105
'[11:30:02.953]',-0.055
'[11:30:02.961]',-0.035
'[11:30:02.969]',-0.035
'[11:30:02.977]',-0.015
'[11:30:02.984]',-0.045
'[11:30:02.992]',-0.085
'[11:30:03.000]',-0.115
'[11:30:03.008]',-0.205
'[11:30:03.016]',-0.275
'[11:30:03.023]',-0.315
'[11:30:03.031]',-0.345
'[11:30:03.039]',-0.335
'[11:30:03.047]',-0.335
'[11:30:03.055]',-0.465
'[11:30:03.063]',-0.735
'[11:30:03.070]',-0.685
'[11:30:03.078]',-0.135
'[11:30:03.086]',0.535
'[11:30:03.094]',0.585
'[11:30:03.102]',0.045
'[11:30:03.109]',-0.405
'[11:30:03.117]',-0.515
'[11:30:03.125]',-0.475
'[11:30:03.133]',-0.405
'[11:30:03.141]',-0.365
'[11:30:03.148]',-0.365
'[11:30:03.156]',-0.365
'[11:30:03.164]',-0.335
'[11:30:03.172]',-0.315
'[11:30:03.180]',-0.315
'[11:30:03.188]',-0.285
'[11:30:03.195]',-0.275
'[11:30:03.203]',-0.275
'[11:30:03.211]',-0.265
'[11:30:03.219]',-0.255
'[11:30:03.227]',-0.235
'[11:30:03.234]',-0.215
'[11:30:03.242]',-0.195
'[11:30:03.250]',-0.145
'[11:30:03.258]',-0.105
'[11:30:03.266]',-0.065
'[11:30:03.273]',-0.035
'[11:30:03.281]',0.005
'[11:30:03.289]',0.055
'[11:30:03.297]',0.085
'[11:30:03.305]',0.105
'[11:30:03.313]',0.115
'[11:30:03.320]',0.095
'[11:30:03.328]',0.045
'[11:30:03.336]',-0.005
'[11:30:03.344]',-0.075
'[11:30:03.352]',-0.115
'[11:30:03.359]',-0.155
'[11:30:03.367]',-0.175
'[11:30:03.375]',-0.205
'[11:30:03.383]',-0.235
'[11:30:03.391]',-0.225
'[11:30:03.398]',-0.235
'[11:30:03.406]',-0.235
'[11:30:03.414]',-0.235
'[11:30:03.422]',-0.225
'[11:30:03.430]',-0.225
'[11:30:03.438]',-0.215
'[11:30:03.445]',-0.185
'[11:30:03.453]',-0.155
'[11:30:03.461]',-0.155
'[11:30:03.469]',-0.115
'[11:30:03.477]',-0.055
'[11:30:03.484]',-0.005
'[11:30:03.492]',-0.015
'[11:30:03.500]',-0.015
'[11:30:03.508]',-0.045
'[11:30:03.516]',-0.085
'[11:30:03.523]',-0.135
'[11:30:03.531]',-0.205
'[11:30:03.539]',-0.245
'[11:30:03.547]',-0.305
'[11:30:03.555]',-0.325
'[11:30:03.563]',-0.315
'[11:30:03.570]',-0.315
'[11:30:03.578]',-0.375
'[11:30:03.586]',-0.655
'[11:30:03.594]',-0.785
'[11:30:03.602]',-0.415
'[11:30:03.609]',0.285
'[11:30:03.617]',0.635
'[11:30:03.625]',0.205
'[11:30:03.633]',-0.335
'[11:30:03.641]',-0.505
'[11:30:03.648]',-0.465
'[11:30:03.656]',-0.365
'[11:30:03.664]',-0.315
'[11:30:03.672]',-0.315
'[11:30:03.680]',-0.325
'[11:30:03.688]',-0.305
'[11:30:03.695]',-0.285
'[11:30:03.703]',-0.295
'[11:30:03.711]',-0.295
'[11:30:03.719]',-0.285
'[11:30:03.727]',-0.255
'[11:30:03.734]',-0.255
'[11:30:03.742]',-0.255
'[11:30:03.750]',-0.205
'[11:30:03.758]',-0.175
'[11:30:03.766]',-0.185
'[11:30:03.773]',-0.155
'[11:30:03.781]',-0.135
'[11:30:03.789]',-0.075
'[11:30:03.797]',-0.035
'[11:30:03.805]',0.015
'[11:30:03.813]',0.055
'[11:30:03.820]',0.095
'[11:30:03.828]',0.105
'[11:30:03.836]',0.115
'[11:30:03.844]',0.095
'[11:30:03.852]',0.075
'[11:30:03.859]',0.025
'[11:30:03.867]',-0.035
'[11:30:03.875]',-0.095
'[11:30:03.883]',-0.155
'[11:30:03.891]',-0.185
'[11:30:03.898]',-0.225
'[11:30:03.906]',-0.235
'[11:30:03.914]',-0.215
'[11:30:03.922]',-0.225
'[11:30:03.930]',-0.225
'[11:30:03.938]',-0.205
'[11:30:03.945]',-0.225
'[11:30:03.953]',-0.215
'[11:30:03.961]',-0.225
'[11:30:03.969]',-0.195
'[11:30:03.977]',-0.165
'[11:30:03.984]',-0.155
'[11:30:03.992]',-0.105
'[11:30:04.000]',-0.065
'[11:30:04.008]',0.005
'[11:30:04.016]',0.005
'[11:30:04.023]',-0.005
'[11:30:04.031]',-0.035
'[11:30:04.039]',-0.065
'[11:30:04.047]',-0.105
'[11:30:04.055]',-0.155
'[11:30:04.063]',-0.245
'[11:30:04.070]',-0.285
'[11:30:04.078]',-0.325
'[11:30:04.086]',-0.345
'[11:30:04.094]',-0.315
'[11:30:04.102]',-0.305
'[11:30:04.109]',-0.565
'[11:30:04.117]',-0.735
'[11:30:04.125]',-0.545
'[11:30:04.133]',0.115
'[11:30:04.141]',0.595
'[11:30:04.148]',0.285
'[11:30:04.156]',-0.265
'[11:30:04.164]',-0.505
'[11:30:04.172]',-0.465
'[11:30:04.180]',-0.395
'[11:30:04.188]',-0.315
'[11:30:04.195]',-0.325
'[11:30:04.203]',-0.325
'[11:30:04.211]',-0.335
'[11:30:04.219]',-0.315
'[11:30:04.227]',-0.295
'[11:30:04.234]',-0.285
'[11:30:04.242]',-0.285
'[11:30:04.250]',-0.265
'[11:30:04.258]',-0.255
'[11:30:04.266]',-0.245
'[11:30:04.273]',-0.245
'[11:30:04.281]',-0.235
'[11:30:04.289]',-0.185
'[11:30:04.297]',-0.175
'[11:30:04.305]',-0.155
'[11:30:04.313]',-0.095
'[11:30:04.320]',-0.045
'[11:30:04.328]',-0.035
'[11:30:04.336]',-0.005
'[11:30:04.344]',0.015
'[11:30:04.352]',0.075
'[11:30:04.359]',0.085
'[11:30:04.367]',0.085
'[11:30:04.375]',0.095
'[11:30:04.383]',0.045
'[11:30:04.391]',-0.015
'[11:30:04.398]',-0.095
'[11:30:04.406]',-0.155
'[11:30:04.414]',-0.205
'[11:30:04.422]',-0.225
'[11:30:04.430]',-0.245
'[11:30:04.438]',-0.245
'[11:30:04.445]',-0.275
'[11:30:04.453]',-0.265
'[11:30:04.461]',-0.285
'[11:30:04.469]',-0.275
'[11:30:04.477]',-0.275
'[11:30:04.484]',-0.275
'[11:30:04.492]',-0.285
'[11:30:04.500]',-0.255
'[11:30:04.508]',-0.235
'[11:30:04.516]',-0.205
'[11:30:04.523]',-0.195
'[11:30:04.531]',-0.175
'[11:30:04.539]',-0.085
'[11:30:04.547]',-0.075
'[11:30:04.555]',-0.065
'[11:30:04.563]',-0.075
'[11:30:04.570]',-0.115
'[11:30:04.578]',-0.155
'[11:30:04.586]',-0.245
'[11:30:04.594]',-0.315
'[11:30:04.602]',-0.355
'[11:30:04.609]',-0.365
'[11:30:04.617]',-0.365
'[11:30:04.625]',-0.365
'[11:30:04.633]',-0.395
'[11:30:04.641]',-0.595
'[11:30:04.648]',-0.765
'[11:30:04.656]',-0.585
'[11:30:04.664]',0.065
'[11:30:04.672]',0.605
'[11:30:04.680]',0.355
'[11:30:04.688]',-0.175
'[11:30:04.695]',-0.505
'[11:30:04.703]',-0.555
'[11:30:04.711]',-0.535
'[11:30:04.719]',-0.425
'[11:30:04.727]',-0.395
'[11:30:04.734]',-0.395
'[11:30:04.742]',-0.375
'[11:30:04.750]',-0.365
'[11:30:04.758]',-0.365
'[11:30:04.766]',-0.345
'[11:30:04.773]',-0.355
'[11:30:04.781]',-0.345
'[11:30:04.789]',-0.325
'[11:30:04.797]',-0.325
'[11:30:04.805]',-0.285
'[11:30:04.813]',-0.255
'[11:30:04.820]',-0.255
'[11:30:04.828]',-0.225
'[11:30:04.836]',-0.195
'[11:30:04.844]',-0.145
'[11:30:04.852]',-0.095
'[11:30:04.859]',-0.055
'[11:30:04.867]',0.005
'[11:30:04.875]',0.025
'[11:30:04.883]',0.055
'[11:30:04.891]',0.085
'[11:30:04.898]',0.065
'[11:30:04.906]',0.045
'[11:30:04.914]',-0.005
'[11:30:04.922]',-0.055
'[11:30:04.930]',-0.125
'[11:30:04.938]',-0.175
'[11:30:04.945]',-0.215
'[11:30:04.953]',-0.225
'[11:30:04.961]',-0.265
'[11:30:04.969]',-0.265
'[11:30:04.977]',-0.265
'[11:30:04.984]',-0.265
'[11:30:04.992]',-0.255
'[11:30:05.000]',-0.255
'[11:30:05.008]',-0.255
'[11:30:05.016]',-0.265
'[11:30:05.023]',-0.255
'[11:30:05.031]',-0.225
'[11:30:05.039]',-0.185
'[11:30:05.047]',-0.175
'[11:30:05.055]',-0.115
'[11:30:05.063]',-0.095
'[11:30:05.070]',-0.035
'[11:30:05.078]',-0.035
'[11:30:05.086]',-0.025
'[11:30:05.094]',-0.045
'[11:30:05.102]',-0.065
'[11:30:05.109]',-0.105
'[11:30:05.117]',-0.165
'[11:30:05.125]',-0.225
'[11:30:05.133]',-0.285
'[11:30:05.141]',-0.295
'[11:30:05.148]',-0.325
'[11:30:05.156]',-0.325
'[11:30:05.164]',-0.335
'[11:30:05.172]',-0.515
'[11:30:05.180]',-0.775
'[11:30:05.188]',-0.615
'[11:30:05.195]',0.045
'[11:30:05.203]',0.635
'[11:30:05.211]',0.385
'[11:30:05.219]',-0.195
'[11:30:05.227]',-0.485
'[11:30:05.234]',-0.465
'[11:30:05.242]',-0.405
'[11:30:05.250]',-0.325
'[11:30:05.258]',-0.305
'[11:30:05.266]',-0.325
'[11:30:05.273]',-0.325
'[11:30:05.281]',-0.335
'[11:30:05.289]',-0.295
'[11:30:05.297]',-0.305
'[11:30:05.305]',-0.295
'[11:30:05.313]',-0.265
'[11:30:05.320]',-0.265
'[11:30:05.328]',-0.245
'[11:30:05.336]',-0.235
'[11:30:05.344]',-0.245
'[11:30:05.352]',-0.205
'[11:30:05.359]',-0.185
'[11:30:05.367]',-0.165
'[11:30:05.375]',-0.105
'[11:30:05.383]',-0.055
'[11:30:05.391]',-0.025
'[11:30:05.398]',0.035
'[11:30:05.406]',0.065
'[11:30:05.414]',0.105
'[11:30:05.422]',0.105
'[11:30:05.430]',0.115
'[11:30:05.438]',0.115
'[11:30:05.445]',0.065
'[11:30:05.453]',0.015
'[11:30:05.461]',-0.045
'[11:30:05.469]',-0.105
'[11:30:05.477]',-0.145
'[11:30:05.484]',-0.175
'[11:30:05.492]',-0.195
'[11:30:05.500]',-0.185
'[11:30:05.508]',-0.185
'[11:30:05.516]',-0.215
'[11:30:05.523]',-0.205
'[11:30:05.531]',-0.225
'[11:30:05.539]',-0.185
'[11:30:05.547]',-0.175
'[11:30:05.555]',-0.185
'[11:30:05.563]',-0.165
'[11:30:05.570]',-0.135
'[11:30:05.578]',-0.115
'[11:30:05.586]',-0.085
'[11:30:05.594]',-0.075
'[11:30:05.602]',-0.005
'[11:30:05.609]',0.045
'[11:30:05.617]',0.015
'[11:30:05.625]',0.045
'[11:30:05.633]',-0.005
'[11:30:05.641]',-0.055
'[11:30:05.648]',-0.105
'[11:30:05.656]',-0.175
'[11:30:05.664]',-0.235
'[11:30:05.672]',-0.265
'[11:30:05.680]',-0.275
'[11:30:05.688]',-0.265
'[11:30:05.695]',-0.255
'[11:30:05.703]',-0.385
'[11:30:05.711]',-0.685
'[11:30:05.719]',-0.655
'[11:30:05.727]',-0.015
'[11:30:05.734]',0.675
'[11:30:05.742]',0.555
'[11:30:05.750]',-0.085
'[11:30:05.758]',-0.405
'[11:30:05.766]',-0.375
'[11:30:05.773]',-0.295
'[11:30:05.781]',-0.265
'[11:30:05.789]',-0.235
'[11:30:05.797]',-0.245
'[11:30:05.805]',-0.235
'[11:30:05.813]',-0.235
'[11:30:05.820]',-0.205
'[11:30:05.828]',-0.195
'[11:30:05.836]',-0.205
'[11:30:05.844]',-0.205
'[11:30:05.852]',-0.175
'[11:30:05.859]',-0.145
'[11:30:05.867]',-0.115
'[11:30:05.875]',-0.105
'[11:30:05.883]',-0.085
'[11:30:05.891]',-0.065
'[11:30:05.898]',-0.035
'[11:30:05.906]',0.005
'[11:30:05.914]',0.055
'[11:30:05.922]',0.095
'[11:30:05.930]',0.145
'[11:30:05.938]',0.205
'[11:30:05.945]',0.215
'[11:30:05.953]',0.215
'[11:30:05.961]',0.215
'[11:30:05.969]',0.205
'[11:30:05.977]',0.175
'[11:30:05.984]',0.125
'[11:30:05.992]',0.065
'[11:30:06.000]',0.005
'[11:30:06.008]',-0.025
'[11:30:06.016]',-0.075
'[11:30:06.023]',-0.095
'[11:30:06.031]',-0.095
'[11:30:06.039]',-0.075
'[11:30:06.047]',-0.075
'[11:30:06.055]',-0.055
'[11:30:06.063]',-0.075
'[11:30:06.070]',-0.075
'[11:30:06.078]',-0.085
'[11:30:06.086]',-0.075
'[11:30:06.094]',-0.075
'[11:30:06.102]',-0.055
'[11:30:06.109]',-0.045
'[11:30:06.117]',-0.015
'[11:30:06.125]',-0.005
'[11:30:06.133]',0.025
'[11:30:06.141]',0.065
'[11:30:06.148]',0.105
'[11:30:06.156]',0.125
'[11:30:06.164]',0.125
'[11:30:06.172]',0.095
'[11:30:06.180]',0.045
'[11:30:06.188]',0.005
'[11:30:06.195]',-0.055
'[11:30:06.203]',-0.105
'[11:30:06.211]',-0.175
'[11:30:06.219]',-0.185
'[11:30:06.227]',-0.195
'[11:30:06.234]',-0.185
'[11:30:06.242]',-0.215
'[11:30:06.250]',-0.475
'[11:30:06.258]',-0.585
'[11:30:06.266]',-0.275
'[11:30:06.273]',0.385
'[11:30:06.281]',0.705
'[11:30:06.289]',0.315
'[11:30:06.297]',-0.165
'[11:30:06.305]',-0.325
'[11:30:06.313]',-0.295
'[11:30:06.320]',-0.235
'[11:30:06.328]',-0.175
'[11:30:06.336]',-0.175
'[11:30:06.344]',-0.155
'[11:30:06.352]',-0.155
'[11:30:06.359]',-0.145
'[11:30:06.367]',-0.135
'[11:30:06.375]',-0.125
'[11:30:06.383]',-0.105
'[11:30:06.391]',-0.095
'[11:30:06.398]',-0.105
'[11:30:06.406]',-0.095
'[11:30:06.414]',-0.075
'[11:30:06.422]',-0.055
'[11:30:06.430]',-0.015
'[11:30:06.438]',0.015
'[11:30:06.445]',0.035
'[11:30:06.453]',0.075
'[11:30:06.461]',0.105
'[11:30:06.469]',0.155
'[11:30:06.477]',0.195
'[11:30:06.484]',0.225
'[11:30:06.492]',0.245
'[11:30:06.500]',0.285
'[11:30:06.508]',0.295
'[11:30:06.516]',0.255
'[11:30:06.523]',0.225
'[11:30:06.531]',0.155
'[11:30:06.539]',0.105
'[11:30:06.547]',0.055
'[11:30:06.555]',0.005
'[11:30:06.563]',-0.015
'[11:30:06.570]',-0.045
'[11:30:06.578]',-0.055
'[11:30:06.586]',-0.045
'[11:30:06.594]',-0.055
'[11:30:06.602]',-0.035
'[11:30:06.609]',-0.045
'[11:30:06.617]',-0.055
'[11:30:06.625]',-0.035
'[11:30:06.633]',-0.055
'[11:30:06.641]',-0.035
'[11:30:06.648]',-0.035
'[11:30:06.656]',-0.025
'[11:30:06.664]',0.015
'[11:30:06.672]',0.045
'[11:30:06.680]',0.075
'[11:30:06.688]',0.135
'[11:30:06.695]',0.175
'[11:30:06.703]',0.175
'[11:30:06.711]',0.155
'[11:30:06.719]',0.105
'[11:30:06.727]',0.085
'[11:30:06.734]',0.025
'[11:30:06.742]',-0.045
'[11:30:06.750]',-0.075
'[11:30:06.758]',-0.115
'[11:30:06.766]',-0.155
'[11:30:06.773]',-0.155
'[11:30:06.781]',-0.135
'[11:30:06.789]',-0.235
'[11:30:06.797]',-0.505
'[11:30:06.805]',-0.495
'[11:30:06.813]',-0.025
'[11:30:06.820]',0.555
'[11:30:06.828]',0.605
'[11:30:06.836]',0.135
'[11:30:06.844]',-0.255
'[11:30:06.852]',-0.295
'[11:30:06.859]',-0.255
'[11:30:06.867]',-0.185
'[11:30:06.875]',-0.145
'[11:30:06.883]',-0.145
'[11:30:06.891]',-0.135
'[11:30:06.898]',-0.125
'[11:30:06.906]',-0.135
'[11:30:06.914]',-0.115
'[11:30:06.922]',-0.105
'[11:30:06.930]',-0.115
'[11:30:06.938]',-0.075
'[11:30:06.945]',-0.045
'[11:30:06.953]',-0.055
'[11:30:06.961]',-0.025
'[11:30:06.969]',-0.015
'[11:30:06.977]',0.005
'[11:30:06.984]',0.025
'[11:30:06.992]',0.055
'[11:30:07.000]',0.105
'[11:30:07.008]',0.155
'[11:30:07.016]',0.185
'[11:30:07.023]',0.215
'[11:30:07.031]',0.235
'[11:30:07.039]',0.275
'[11:30:07.047]',0.265
'[11:30:07.055]',0.265
'[11:30:07.063]',0.235
'[11:30:07.070]',0.185
'[11:30:07.078]',0.105
'[11:30:07.086]',0.055
'[11:30:07.094]',0.005
'[11:30:07.102]',-0.015
'[11:30:07.109]',-0.055
'[11:30:07.117]',-0.065
'[11:30:07.125]',-0.075
'[11:30:07.133]',-0.095
'[11:30:07.141]',-0.085
'[11:30:07.148]',-0.105
'[11:30:07.156]',-0.105
'[11:30:07.164]',-0.085
'[11:30:07.172]',-0.095
'[11:30:07.180]',-0.105
'[11:30:07.188]',-0.065
'[11:30:07.195]',-0.035
'[11:30:07.203]',-0.035
'[11:30:07.211]',-0.015
'[11:30:07.219]',0.005
'[11:30:07.227]',0.085
'[11:30:07.234]',0.115
'[11:30:07.242]',0.115
'[11:30:07.250]',0.105
'[11:30:07.258]',0.065
'[11:30:07.266]',0.005
'[11:30:07.273]',-0.045
'[11:30:07.281]',-0.125
'[11:30:07.289]',-0.175
'[11:30:07.297]',-0.195
'[11:30:07.305]',-0.175
'[11:30:07.313]',-0.195
'[11:30:07.320]',-0.215
'[11:30:07.328]',-0.455
'[11:30:07.336]',-0.615
'[11:30:07.344]',-0.325
'[11:30:07.352]',0.345
'[11:30:07.359]',0.785
'[11:30:07.367]',0.465
'[11:30:07.375]',-0.035
'[11:30:07.383]',-0.305
'[11:30:07.391]',-0.365
'[11:30:07.398]',-0.345
'[11:30:07.406]',-0.255
'[11:30:07.414]',-0.205
'[11:30:07.422]',-0.205
'[11:30:07.430]',-0.205
'[11:30:07.438]',-0.165
'[11:30:07.445]',-0.165
'[11:30:07.453]',-0.165
'[11:30:07.461]',-0.165
'[11:30:07.469]',-0.165
'[11:30:07.477]',-0.145
'[11:30:07.484]',-0.135
'[11:30:07.492]',-0.115
'[11:30:07.500]',-0.085
'[11:30:07.508]',-0.075
'[11:30:07.516]',-0.055
'[11:30:07.523]',-0.035
'[11:30:07.531]',-0.015
'[11:30:07.539]',0.055
'[11:30:07.547]',0.115
'[11:30:07.555]',0.155
'[11:30:07.563]',0.195
'[11:30:07.570]',0.215
'[11:30:07.578]',0.235
'[11:30:07.586]',0.235
'[11:30:07.594]',0.205
'[11:30:07.602]',0.165
'[11:30:07.609]',0.105
'[11:30:07.617]',0.025
'[11:30:07.625]',-0.025
'[11:30:07.633]',-0.065
'[11:30:07.641]',-0.105
'[11:30:07.648]',-0.125
'[11:30:07.656]',-0.115
'[11:30:07.664]',-0.125
'[11:30:07.672]',-0.135
'[11:30:07.680]',-0.135
'[11:30:07.688]',-0.115
'[11:30:07.695]',-0.115
'[11:30:07.703]',-0.115
'[11:30:07.711]',-0.115
'[11:30:07.719]',-0.135
'[11:30:07.727]',-0.085
'[11:30:07.734]',-0.065
'[11:30:07.742]',-0.045
'[11:30:07.750]',-0.015
'[11:30:07.758]',0.035
'[11:30:07.766]',0.095
'[11:30:07.773]',0.105
'[11:30:07.781]',0.105
'[11:30:07.789]',0.105
'[11:30:07.797]',0.055
'[11:30:07.805]',0.015
'[11:30:07.813]',-0.035
'[11:30:07.820]',-0.105
'[11:30:07.828]',-0.165
'[11:30:07.836]',-0.175
'[11:30:07.844]',-0.195
'[11:30:07.852]',-0.175
'[11:30:07.859]',-0.235
'[11:30:07.867]',-0.515
'[11:30:07.875]',-0.565
'[11:30:07.883]',-0.105
'[11:30:07.891]',0.615
'[11:30:07.898]',0.755
'[11:30:07.906]',0.205
'[11:30:07.914]',-0.235
'[11:30:07.922]',-0.335
'[11:30:07.930]',-0.285
'[11:30:07.938]',-0.205
'[11:30:07.945]',-0.165
'[11:30:07.953]',-0.145
'[11:30:07.961]',-0.155
'[11:30:07.969]',-0.155
'[11:30:07.977]',-0.145
'[11:30:07.984]',-0.135
'[11:30:07.992]',-0.105
'[11:30:08.000]',-0.105
'[11:30:08.008]',-0.105
'[11:30:08.016]',-0.085
'[11:30:08.023]',-0.075
'[11:30:08.031]',-0.055
'[11:30:08.039]',-0.045
'[11:30:08.047]',-0.025
'[11:30:08.055]',0.025
'[11:30:08.063]',0.055
'[11:30:08.070]',0.095
'[11:30:08.078]',0.155
'[11:30:08.086]',0.185
'[11:30:08.094]',0.205
'[11:30:08.102]',0.255
'[11:30:08.109]',0.295
'[11:30:08.117]',0.285
'[11:30:08.125]',0.295
'[11:30:08.133]',0.275
'[11:30:08.141]',0.235
'[11:30:08.148]',0.155
'[11:30:08.156]',0.095
'[11:30:08.164]',0.055
'[11:30:08.172]',0.015
'[11:30:08.180]',-0.015
'[11:30:08.188]',-0.035
'[11:30:08.195]',-0.035
'[11:30:08.203]',-0.045
'[11:30:08.211]',-0.065
'[11:30:08.219]',-0.065
'[11:30:08.227]',-0.055
'[11:30:08.234]',-0.035
'[11:30:08.242]',-0.025
'[11:30:08.250]',-0.005
'[11:30:08.258]',0.015
'[11:30:08.266]',0.025
'[11:30:08.273]',0.055
'[11:30:08.281]',0.075
'[11:30:08.289]',0.105
'[11:30:08.297]',0.165
'[11:30:08.305]',0.205
'[11:30:08.313]',0.205
'[11:30:08.320]',0.195
'[11:30:08.328]',0.145
'[11:30:08.336]',0.105
'[11:30:08.344]',0.045
'[11:30:08.352]',-0.025
'[11:30:08.359]',-0.065
'[11:30:08.367]',-0.095
'[11:30:08.375]',-0.095
'[11:30:08.383]',-0.095
'[11:30:08.391]',-0.085
'[11:30:08.398]',-0.295
'[11:30:08.406]',-0.545
'[11:30:08.414]',-0.395
'[11:30:08.422]',0.275
'[11:30:08.430]',0.825
'[11:30:08.438]',0.535
'[11:30:08.445]',-0.055
'[11:30:08.453]',-0.275
'[11:30:08.461]',-0.225
'[11:30:08.469]',-0.165
'[11:30:08.477]',-0.115
'[11:30:08.484]',-0.115
'[11:30:08.492]',-0.115
'[11:30:08.500]',-0.085
'[11:30:08.508]',-0.075
'[11:30:08.516]',-0.065
'[11:30:08.523]',-0.065
'[11:30:08.531]',-0.055
'[11:30:08.539]',-0.045
'[11:30:08.547]',-0.045
'[11:30:08.555]',-0.025
'[11:30:08.563]',-0.005
'[11:30:08.570]',0.015
'[11:30:08.578]',0.025
'[11:30:08.586]',0.035
'[11:30:08.594]',0.065
'[11:30:08.602]',0.115
'[11:30:08.609]',0.165
'[11:30:08.617]',0.215
'[11:30:08.625]',0.255
'[11:30:08.633]',0.275
'[11:30:08.641]',0.305
'[11:30:08.648]',0.335
'[11:30:08.656]',0.355
'[11:30:08.664]',0.335
'[11:30:08.672]',0.295
'[11:30:08.680]',0.245
'[11:30:08.688]',0.185
'[11:30:08.695]',0.115
'[11:30:08.703]',0.065
'[11:30:08.711]',0.025
'[11:30:08.719]',0.025
'[11:30:08.727]',0.025
'[11:30:08.734]',0.015
'[11:30:08.742]',0.015
'[11:30:08.750]',0.005
'[11:30:08.758]',0.005
'[11:30:08.766]',0.025
'[11:30:08.773]',0.025
'[11:30:08.781]',0.005
'[11:30:08.789]',0.015
'[11:30:08.797]',0.045
'[11:30:08.805]',0.075
'[11:30:08.813]',0.095
'[11:30:08.820]',0.135
'[11:30:08.828]',0.175
'[11:30:08.836]',0.225
'[11:30:08.844]',0.205
'[11:30:08.852]',0.215
'[11:30:08.859]',0.175
'[11:30:08.867]',0.135
'[11:30:08.875]',0.105
'[11:30:08.883]',0.025
'[11:30:08.891]',-0.035
'[11:30:08.898]',-0.085
'[11:30:08.906]',-0.105
'[11:30:08.914]',-0.085
'[11:30:08.922]',-0.075
'[11:30:08.930]',-0.155
'[11:30:08.938]',-0.435
'[11:30:08.945]',-0.465
'[11:30:08.953]',0.005
'[11:30:08.961]',0.615
'[11:30:08.969]',0.695
'[11:30:08.977]',0.195
'[11:30:08.984]',-0.215
'[11:30:08.992]',-0.265
'[11:30:09.000]',-0.175
'[11:30:09.008]',-0.095
'[11:30:09.016]',-0.075
'[11:30:09.023]',-0.065
'[11:30:09.031]',-0.085
'[11:30:09.039]',-0.065
'[11:30:09.047]',-0.055
'[11:30:09.055]',-0.045
'[11:30:09.063]',-0.025
'[11:30:09.070]',-0.015
'[11:30:09.078]',-0.025
'[11:30:09.086]',-0.015
'[11:30:09.094]',0.015
'[11:30:09.102]',0.035
'[11:30:09.109]',0.055
'[11:30:09.117]',0.055
'[11:30:09.125]',0.105
'[11:30:09.133]',0.125
'[11:30:09.141]',0.165
'[11:30:09.148]',0.195
'[11:30:09.156]',0.215
'[11:30:09.164]',0.275
'[11:30:09.172]',0.315
'[11:30:09.180]',0.325
'[11:30:09.188]',0.355
'[11:30:09.195]',0.345
'[11:30:09.203]',0.315
'[11:30:09.211]',0.285
'[11:30:09.219]',0.205
'[11:30:09.227]',0.145
'[11:30:09.234]',0.085
'[11:30:09.242]',0.035
'[11:30:09.250]',0.005
'[11:30:09.258]',0.015
'[11:30:09.266]',-0.015
'[11:30:09.273]',-0.015
'[11:30:09.281]',-0.025
'[11:30:09.289]',-0.025
'[11:30:09.297]',-0.025
'[11:30:09.305]',-0.015
'[11:30:09.313]',-0.015
'[11:30:09.320]',0.005
'[11:30:09.328]',0.015
'[11:30:09.336]',0.035
'[11:30:09.344]',0.075
'[11:30:09.352]',0.095
'[11:30:09.359]',0.165
'[11:30:09.367]',0.185
'[11:30:09.375]',0.205
'[11:30:09.383]',0.195
'[11:30:09.391]',0.135
'[11:30:09.398]',0.075
'[11:30:09.406]',0.025
'[11:30:09.414]',-0.035
'[11:30:09.422]',-0.085
'[11:30:09.430]',-0.115
'[11:30:09.438]',-0.095
'[11:30:09.445]',-0.125
'[11:30:09.453]',-0.145
'[11:30:09.461]',-0.415
'[11:30:09.469]',-0.505
'[11:30:09.477]',-0.125
'[11:30:09.484]',0.515
'[11:30:09.492]',0.815
'[11:30:09.500]',0.385
'[11:30:09.508]',-0.055
'[11:30:09.516]',-0.265
'[11:30:09.523]',-0.295
'[11:30:09.531]',-0.255
'[11:30:09.539]',-0.175
'[11:30:09.547]',-0.155
'[11:30:09.555]',-0.155
'[11:30:09.563]',-0.155
'[11:30:09.570]',-0.125
'[11:30:09.578]',-0.145
'[11:30:09.586]',-0.135
'[11:30:09.594]',-0.115
'[11:30:09.602]',-0.115
'[11:30:09.609]',-0.105
'[11:30:09.617]',-0.065
'[11:30:09.625]',-0.045
'[11:30:09.633]',-0.045
'[11:30:09.641]',-0.025
'[11:30:09.648]',-0.005
'[11:30:09.656]',0.045
'[11:30:09.664]',0.075
'[11:30:09.672]',0.115
'[11:30:09.680]',0.155
'[11:30:09.688]',0.215
'[11:30:09.695]',0.245
'[11:30:09.703]',0.265
'[11:30:09.711]',0.265
'[11:30:09.719]',0.245
'[11:30:09.727]',0.235
'[11:30:09.734]',0.205
'[11:30:09.742]',0.155
'[11:30:09.750]',0.095
'[11:30:09.758]',0.045
'[11:30:09.766]',-0.015
'[11:30:09.773]',-0.035
'[11:30:09.781]',-0.065
'[11:30:09.789]',-0.075
'[11:30:09.797]',-0.075
'[11:30:09.805]',-0.065
'[11:30:09.813]',-0.065
'[11:30:09.820]',-0.065
'[11:30:09.828]',-0.065
'[11:30:09.836]',-0.075
'[11:30:09.844]',-0.065
'[11:30:09.852]',-0.035
'[11:30:09.859]',-0.025
'[11:30:09.867]',-0.015
'[11:30:09.875]',0.025
'[11:30:09.883]',0.065
'[11:30:09.891]',0.115
'[11:30:09.898]',0.115
'[11:30:09.906]',0.105
'[11:30:09.914]',0.095
'[11:30:09.922]',0.055
'[11:30:09.930]',0.015
'[11:30:09.938]',-0.025
'[11:30:09.945]',-0.095
'[11:30:09.953]',-0.155
'[11:30:09.961]',-0.155
'[11:30:09.969]',-0.165
'[11:30:09.977]',-0.165
'[11:30:09.984]',-0.285
'[11:30:09.992]',-0.515
'[11:30:10.000]',-0.425
'[11:30:10.008]',0.105
'[11:30:10.016]',0.675
'[11:30:10.023]',0.605
'[11:30:10.031]',0.095
'[11:30:10.039]',-0.235
'[11:30:10.047]',-0.315
'[11:30:10.055]',-0.275
'[11:30:10.063]',-0.215
'[11:30:10.070]',-0.175
'[11:30:10.078]',-0.175
'[11:30:10.086]',-0.175
'[11:30:10.094]',-0.175
'[11:30:10.102]',-0.155
'[11:30:10.109]',-0.165
'[11:30:10.117]',-0.145
'[11:30:10.125]',-0.125
'[11:30:10.133]',-0.105
'[11:30:10.141]',-0.105
'[11:30:10.148]',-0.095
'[11:30:10.156]',-0.075
'[11:30:10.164]',-0.045
'[11:30:10.172]',-0.005
'[11:30:10.180]',0.015
'[11:30:10.188]',0.035
'[11:30:10.195]',0.085
'[11:30:10.203]',0.125
'[11:30:10.211]',0.155
'[11:30:10.219]',0.175
'[11:30:10.227]',0.205
'[11:30:10.234]',0.225
'[11:30:10.242]',0.245
'[11:30:10.250]',0.215
'[11:30:10.258]',0.185
'[11:30:10.266]',0.135
'[11:30:10.273]',0.065
'[11:30:10.281]',0.015
'[11:30:10.289]',-0.005
'[11:30:10.297]',-0.035
'[11:30:10.305]',-0.075
'[11:30:10.313]',-0.075
'[11:30:10.320]',-0.095
'[11:30:10.328]',-0.095
'[11:30:10.336]',-0.105
'[11:30:10.344]',-0.115
'[11:30:10.352]',-0.105
'[11:30:10.359]',-0.095
'[11:30:10.367]',-0.095
'[11:30:10.375]',-0.075
'[11:30:10.383]',-0.055
'[11:30:10.391]',-0.025
'[11:30:10.398]',-0.015
'[11:30:10.406]',-0.005
'[11:30:10.414]',0.065
'[11:30:10.422]',0.085
'[11:30:10.430]',0.085
'[11:30:10.438]',0.085
'[11:30:10.445]',0.045
'[11:30:10.453]',0.005
'[11:30:10.461]',-0.065
'[11:30:10.469]',-0.135
'[11:30:10.477]',-0.185
'[11:30:10.484]',-0.215
'[11:30:10.492]',-0.225
'[11:30:10.500]',-0.225
'[11:30:10.508]',-0.235
'[11:30:10.516]',-0.495
'[11:30:10.523]',-0.615
'[11:30:10.531]',-0.325
'[11:30:10.539]',0.355
'[11:30:10.547]',0.655
'[11:30:10.555]',0.235
'[11:30:10.563]',-0.235
'[11:30:10.570]',-0.375
'[11:30:10.578]',-0.315
'[11:30:10.586]',-0.255
'[11:30:10.594]',-0.215
'[11:30:10.602]',-0.215
'[11:30:10.609]',-0.195
'[11:30:10.617]',-0.185
'[11:30:10.625]',-0.165
'[11:30:10.633]',-0.165
'[11:30:10.641]',-0.165
'[11:30:10.648]',-0.155
'[11:30:10.656]',-0.135
'[11:30:10.664]',-0.135
'[11:30:10.672]',-0.095
'[11:30:10.680]',-0.075
'[11:30:10.688]',-0.065
'[11:30:10.695]',-0.055
'[11:30:10.703]',-0.015
'[11:30:10.711]',0.015
'[11:30:10.719]',0.045
'[11:30:10.727]',0.085
'[11:30:10.734]',0.125
'[11:30:10.742]',0.165
'[11:30:10.750]',0.195
'[11:30:10.758]',0.225
'[11:30:10.766]',0.225
'[11:30:10.773]',0.215
'[11:30:10.781]',0.185
'[11:30:10.789]',0.155
'[11:30:10.797]',0.095
'[11:30:10.805]',0.045
'[11:30:10.813]',0.005
'[11:30:10.820]',-0.035
'[11:30:10.828]',-0.065
'[11:30:10.836]',-0.085
'[11:30:10.844]',-0.095
'[11:30:10.852]',-0.095
'[11:30:10.859]',-0.095
'[11:30:10.867]',-0.085
'[11:30:10.875]',-0.085
'[11:30:10.883]',-0.085
'[11:30:10.891]',-0.095
'[11:30:10.898]',-0.085
'[11:30:10.906]',-0.075
'[11:30:10.914]',-0.045
'[11:30:10.922]',-0.015
'[11:30:10.930]',0.015
'[11:30:10.938]',0.065
'[11:30:10.945]',0.105
'[11:30:10.953]',0.115
'[11:30:10.961]',0.105
'[11:30:10.969]',0.065
'[11:30:10.977]',0.025
'[11:30:10.984]',-0.005
'[11:30:10.992]',-0.055
'[11:30:11.000]',-0.105
'[11:30:11.008]',-0.155
'[11:30:11.016]',-0.185
'[11:30:11.023]',-0.205
'[11:30:11.031]',-0.215
'[11:30:11.039]',-0.225
'[11:30:11.047]',-0.395
'[11:30:11.055]',-0.515
'[11:30:11.063]',-0.345
'[11:30:11.070]',0.155
'[11:30:11.078]',0.535
'[11:30:11.086]',0.375
'[11:30:11.094]',-0.095
'[11:30:11.102]',-0.345
'[11:30:11.109]',-0.325
'[11:30:11.117]',-0.275
'[11:30:11.125]',-0.195
'[11:30:11.133]',-0.185
'[11:30:11.141]',-0.185
'[11:30:11.148]',-0.185
'[11:30:11.156]',-0.185
'[11:30:11.164]',-0.165
'[11:30:11.172]',-0.145
'[11:30:11.180]',-0.135
'[11:30:11.188]',-0.125
'[11:30:11.195]',-0.105
'[11:30:11.203]',-0.105
'[11:30:11.211]',-0.105
'[11:30:11.219]',-0.105
'[11:30:11.227]',-0.055
'[11:30:11.234]',-0.025
'[11:30:11.242]',0.005
'[11:30:11.250]',0.055
'[11:30:11.258]',0.105
'[11:30:11.266]',0.135
'[11:30:11.273]',0.155
'[11:30:11.281]',0.175
'[11:30:11.289]',0.235
'[11:30:11.297]',0.255
'[11:30:11.305]',0.245
'[11:30:11.313]',0.245
'[11:30:11.320]',0.205
'[11:30:11.328]',0.125
'[11:30:11.336]',0.045
'[11:30:11.344]',-0.025
'[11:30:11.352]',-0.035
'[11:30:11.359]',-0.055
'[11:30:11.367]',-0.095
'[11:30:11.375]',-0.075
'[11:30:11.383]',-0.075
'[11:30:11.391]',-0.085
'[11:30:11.398]',-0.095
'[11:30:11.406]',-0.095
'[11:30:11.414]',-0.075
'[11:30:11.422]',-0.085
'[11:30:11.430]',-0.075
'[11:30:11.438]',-0.055
'[11:30:11.445]',-0.015
'[11:30:11.453]',-0.005
'[11:30:11.461]',0.005
'[11:30:11.469]',0.025
'[11:30:11.477]',0.115
'[11:30:11.484]',0.115
'[11:30:11.492]',0.105
'[11:30:11.500]',0.095
'[11:30:11.508]',0.045
'[11:30:11.516]',0.015
'[11:30:11.523]',-0.055
'[11:30:11.531]',-0.115
'[11:30:11.539]',-0.165
'[11:30:11.547]',-0.195
'[11:30:11.555]',-0.205
'[11:30:11.563]',-0.205
'[11:30:11.570]',-0.245
'[11:30:11.578]',-0.465
'[11:30:11.586]',-0.545
'[11:30:11.594]',-0.255
'[11:30:11.602]',0.275
'[11:30:11.609]',0.515
'[11:30:11.617]',0.195
'[11:30:11.625]',-0.195
'[11:30:11.633]',-0.355
'[11:30:11.641]',-0.345
'[11:30:11.648]',-0.275
'[11:30:11.656]',-0.215
'[11:30:11.664]',-0.195
'[11:30:11.672]',-0.195
'[11:30:11.680]',-0.195
'[11:30:11.688]',-0.185
'[11:30:11.695]',-0.175
'[11:30:11.703]',-0.155
'[11:30:11.711]',-0.155
'[11:30:11.719]',-0.155
'[11:30:11.727]',-0.145
'[11:30:11.734]',-0.135
'[11:30:11.742]',-0.115
'[11:30:11.750]',-0.095
'[11:30:11.758]',-0.095
'[11:30:11.766]',-0.065
'[11:30:11.773]',-0.035
'[11:30:11.781]',0.015
'[11:30:11.789]',0.055
'[11:30:11.797]',0.085
'[11:30:11.805]',0.135
'[11:30:11.813]',0.165
'[11:30:11.820]',0.185
'[11:30:11.828]',0.185
'[11:30:11.836]',0.175
'[11:30:11.844]',0.135
'[11:30:11.852]',0.095
'[11:30:11.859]',0.035
'[11:30:11.867]',-0.025
'[11:30:11.875]',-0.075
'[11:30:11.883]',-0.125
'[11:30:11.891]',-0.145
'[11:30:11.898]',-0.175
'[11:30:11.906]',-0.175
'[11:30:11.914]',-0.175
'[11:30:11.922]',-0.175
'[11:30:11.930]',-0.175
'[11:30:11.938]',-0.175
'[11:30:11.945]',-0.165
'[11:30:11.953]',-0.175
'[11:30:11.961]',-0.175
'[11:30:11.969]',-0.155
'[11:30:11.977]',-0.135
'[11:30:11.984]',-0.135
'[11:30:11.992]',-0.105
'[11:30:12.000]',-0.075
'[11:30:12.008]',0.005
'[11:30:12.016]',0.025
'[11:30:12.023]',0.025
'[11:30:12.031]',-0.005
'[11:30:12.039]',-0.035
'[11:30:12.047]',-0.075
'[11:30:12.055]',-0.115
'[11:30:12.063]',-0.155
'[11:30:12.070]',-0.215
'[11:30:12.078]',-0.265
'[11:30:12.086]',-0.285
'[11:30:12.094]',-0.285
'[11:30:12.102]',-0.275
'[11:30:12.109]',-0.495
'[11:30:12.117]',-0.705
'[11:30:12.125]',-0.515
'[11:30:12.133]',0.125
'[11:30:12.141]',0.685
'[11:30:12.148]',0.465
'[11:30:12.156]',-0.095
'[11:30:12.164]',-0.415
'[11:30:12.172]',-0.445
'[11:30:12.180]',-0.415
'[11:30:12.188]',-0.295
'[11:30:12.195]',-0.265
'[11:30:12.203]',-0.265
'[11:30:12.211]',-0.255
'[11:30:12.219]',-0.255
'[11:30:12.227]',-0.225
'[11:30:12.234]',-0.225
'[11:30:12.242]',-0.215
'[11:30:12.250]',-0.205
'[11:30:12.258]',-0.185
'[11:30:12.266]',-0.175
'[11:30:12.273]',-0.145
'[11:30:12.281]',-0.155
'[11:30:12.289]',-0.125
'[11:30:12.297]',-0.105
'[11:30:12.305]',-0.075
'[11:30:12.313]',-0.025
'[11:30:12.320]',0.015
'[11:30:12.328]',0.055
'[11:30:12.336]',0.085
'[11:30:12.344]',0.115
'[11:30:12.352]',0.155
'[11:30:12.359]',0.165
'[11:30:12.367]',0.165
'[11:30:12.375]',0.165
'[11:30:12.383]',0.125
'[11:30:12.391]',0.055
'[11:30:12.398]',-0.015
'[11:30:12.406]',-0.085
'[11:30:12.414]',-0.115
'[11:30:12.422]',-0.145
'[11:30:12.430]',-0.135
'[11:30:12.438]',-0.145
'[11:30:12.445]',-0.155
'[11:30:12.453]',-0.165
'[11:30:12.461]',-0.195
'[11:30:12.469]',-0.175
'[11:30:12.477]',-0.135
'[11:30:12.484]',-0.135
'[11:30:12.492]',-0.155
'[11:30:12.500]',-0.125
'[11:30:12.508]',-0.095
'[11:30:12.516]',-0.085
'[11:30:12.523]',-0.065
'[11:30:12.531]',-0.045
'[11:30:12.539]',0.015
'[11:30:12.547]',0.055
'[11:30:12.555]',0.065
'[11:30:12.563]',0.055
'[11:30:12.570]',0.015
'[11:30:12.578]',-0.015
'[11:30:12.586]',-0.055
'[11:30:12.594]',-0.115
'[11:30:12.602]',-0.185
'[11:30:12.609]',-0.215
'[11:30:12.617]',-0.245
'[11:30:12.625]',-0.215
'[11:30:12.633]',-0.225
'[11:30:12.641]',-0.345
'[11:30:12.648]',-0.605
'[11:30:12.656]',-0.595
'[11:30:12.664]',-0.115
'[11:30:12.672]',0.485
'[11:30:12.680]',0.525
'[11:30:12.688]',0.015
'[11:30:12.695]',-0.375
'[11:30:12.703]',-0.395
'[11:30:12.711]',-0.315
'[11:30:12.719]',-0.265
'[11:30:12.727]',-0.225
'[11:30:12.734]',-0.215
'[11:30:12.742]',-0.215
'[11:30:12.750]',-0.195
'[11:30:12.758]',-0.195
'[11:30:12.766]',-0.195
'[11:30:12.773]',-0.185
'[11:30:12.781]',-0.185
'[11:30:12.789]',-0.165
'[11:30:12.797]',-0.155
'[11:30:12.805]',-0.135
'[11:30:12.813]',-0.105
'[11:30:12.820]',-0.095
'[11:30:12.828]',-0.075
'[11:30:12.836]',-0.055
'[11:30:12.844]',-0.025
'[11:30:12.852]',0.035
'[11:30:12.859]',0.075
'[11:30:12.867]',0.095
'[11:30:12.875]',0.145
'[11:30:12.883]',0.175
'[11:30:12.891]',0.205
'[11:30:12.898]',0.205
'[11:30:12.906]',0.185
'[11:30:12.914]',0.165
'[11:30:12.922]',0.135
'[11:30:12.930]',0.055
'[11:30:12.938]',0.015
'[11:30:12.945]',-0.055
'[11:30:12.953]',-0.095
'[11:30:12.961]',-0.105
'[11:30:12.969]',-0.125
'[11:30:12.977]',-0.115
'[11:30:12.984]',-0.125
'[11:30:12.992]',-0.125
'[11:30:13.000]',-0.115
'[11:30:13.008]',-0.125
'[11:30:13.016]',-0.145
'[11:30:13.023]',-0.125
'[11:30:13.031]',-0.125
'[11:30:13.039]',-0.085
'[11:30:13.047]',-0.075
'[11:30:13.055]',-0.045
'[11:30:13.063]',-0.015
'[11:30:13.070]',0.045
'[11:30:13.078]',0.085
'[11:30:13.086]',0.085
'[11:30:13.094]',0.075
'[11:30:13.102]',0.045
'[11:30:13.109]',0.005
'[11:30:13.117]',-0.035
'[11:30:13.125]',-0.085
'[11:30:13.133]',-0.155
'[11:30:13.141]',-0.205
'[11:30:13.148]',-0.235
'[11:30:13.156]',-0.225
'[11:30:13.164]',-0.225
'[11:30:13.172]',-0.385
'[11:30:13.180]',-0.615
'[11:30:13.188]',-0.505
'[11:30:13.195]',0.045
'[11:30:13.203]',0.595
'[11:30:13.211]',0.385
'[11:30:13.219]',-0.185
'[11:30:13.227]',-0.435
'[11:30:13.234]',-0.375
'[11:30:13.242]',-0.305
'[11:30:13.250]',-0.235
'[11:30:13.258]',-0.225
'[11:30:13.266]',-0.225
'[11:30:13.273]',-0.235
'[11:30:13.281]',-0.225
'[11:30:13.289]',-0.205
'[11:30:13.297]',-0.195
'[11:30:13.305]',-0.175
'[11:30:13.313]',-0.165
'[11:30:13.320]',-0.145
'[11:30:13.328]',-0.155
'[11:30:13.336]',-0.135
'[11:30:13.344]',-0.135
'[11:30:13.352]',-0.105
'[11:30:13.359]',-0.075
'[11:30:13.367]',-0.035
'[11:30:13.375]',-0.005
'[11:30:13.383]',0.025
'[11:30:13.391]',0.055
'[11:30:13.398]',0.105
'[11:30:13.406]',0.135
'[11:30:13.414]',0.155
'[11:30:13.422]',0.185
'[11:30:13.430]',0.215
'[11:30:13.438]',0.205
'[11:30:13.445]',0.145
'[11:30:13.453]',0.085
'[11:30:13.461]',0.005
'[11:30:13.469]',-0.055
'[11:30:13.477]',-0.095
'[11:30:13.484]',-0.115
'[11:30:13.492]',-0.135
'[11:30:13.500]',-0.155
'[11:30:13.508]',-0.165
'[11:30:13.516]',-0.175
'[11:30:13.523]',-0.175
'[11:30:13.531]',-0.165
'[11:30:13.539]',-0.165
'[11:30:13.547]',-0.165
'[11:30:13.555]',-0.175
'[11:30:13.563]',-0.155
'[11:30:13.570]',-0.125
'[11:30:13.578]',-0.115
'[11:30:13.586]',-0.105
'[11:30:13.594]',-0.085
'[11:30:13.602]',-0.015
'[11:30:13.609]',0.035
'[11:30:13.617]',0.035
'[11:30:13.625]',0.045
'[11:30:13.633]',0.015
'[11:30:13.641]',-0.035
'[11:30:13.648]',-0.085
'[11:30:13.656]',-0.155
'[11:30:13.664]',-0.195
'[11:30:13.672]',-0.245
'[11:30:13.680]',-0.275
'[11:30:13.688]',-0.265
'[11:30:13.695]',-0.265
'[11:30:13.703]',-0.345
'[11:30:13.711]',-0.585
'[11:30:13.719]',-0.655
'[11:30:13.727]',-0.215
'[11:30:13.734]',0.395
'[11:30:13.742]',0.505
'[11:30:13.750]',0.055
'[11:30:13.758]',-0.355
'[11:30:13.766]',-0.445
'[11:30:13.773]',-0.435
'[11:30:13.781]',-0.345
'[11:30:13.789]',-0.305
'[11:30:13.797]',-0.295
'[11:30:13.805]',-0.265
'[11:30:13.813]',-0.265
'[11:30:13.820]',-0.275
'[11:30:13.828]',-0.275
'[11:30:13.836]',-0.275
'[11:30:13.844]',-0.255
'[11:30:13.852]',-0.245
'[11:30:13.859]',-0.245
'[11:30:13.867]',-0.205
'[11:30:13.875]',-0.195
'[11:30:13.883]',-0.185
'[11:30:13.891]',-0.175
'[11:30:13.898]',-0.155
'[11:30:13.906]',-0.105
'[11:30:13.914]',-0.075
'[11:30:13.922]',-0.005
'[11:30:13.930]',0.065
'[11:30:13.938]',0.085
'[11:30:13.945]',0.105
'[11:30:13.953]',0.125
'[11:30:13.961]',0.105
'[11:30:13.969]',0.085
'[11:30:13.977]',0.045
'[11:30:13.984]',-0.015
'[11:30:13.992]',-0.065
'[11:30:14.000]',-0.135
'[11:30:14.008]',-0.175
'[11:30:14.016]',-0.205
'[11:30:14.023]',-0.245
'[11:30:14.031]',-0.255
'[11:30:14.039]',-0.235
'[11:30:14.047]',-0.255
'[11:30:14.055]',-0.245
'[11:30:14.063]',-0.235
'[11:30:14.070]',-0.245
'[11:30:14.078]',-0.255
'[11:30:14.086]',-0.245
'[11:30:14.094]',-0.225
'[11:30:14.102]',-0.195
'[11:30:14.109]',-0.175
'[11:30:14.117]',-0.145
'[11:30:14.125]',-0.115
'[11:30:14.133]',-0.055
'[11:30:14.141]',-0.005
'[11:30:14.148]',-0.005
'[11:30:14.156]',-0.015
'[11:30:14.164]',-0.065
'[11:30:14.172]',-0.095
'[11:30:14.180]',-0.165
'[11:30:14.188]',-0.215
'[11:30:14.195]',-0.285
'[11:30:14.203]',-0.325
'[11:30:14.211]',-0.335
'[11:30:14.219]',-0.325
'[11:30:14.227]',-0.315
'[11:30:14.234]',-0.505
'[11:30:14.242]',-0.765
'[11:30:14.250]',-0.615
'[11:30:14.258]',0.045
'[11:30:14.266]',0.675
'[11:30:14.273]',0.435
'[11:30:14.281]',-0.145
'[11:30:14.289]',-0.465
'[11:30:14.297]',-0.495
'[11:30:14.305]',-0.455
'[11:30:14.313]',-0.365
'[11:30:14.320]',-0.335
'[11:30:14.328]',-0.315
'[11:30:14.336]',-0.305
'[11:30:14.344]',-0.315
'[11:30:14.352]',-0.315
'[11:30:14.359]',-0.305
'[11:30:14.367]',-0.285
'[11:30:14.375]',-0.255
'[11:30:14.383]',-0.245
'[11:30:14.391]',-0.245
'[11:30:14.398]',-0.245
'[11:30:14.406]',-0.215
'[11:30:14.414]',-0.185
'[11:30:14.422]',-0.165
'[11:30:14.430]',-0.135
'[11:30:14.438]',-0.075
'[11:30:14.445]',-0.045
'[11:30:14.453]',-0.005
'[11:30:14.461]',0.045
'[11:30:14.469]',0.085
'[11:30:14.477]',0.115
'[11:30:14.484]',0.125
'[11:30:14.492]',0.145
'[11:30:14.500]',0.145
'[11:30:14.508]',0.095
'[11:30:14.516]',0.035
'[11:30:14.523]',-0.025
'[11:30:14.531]',-0.095
'[11:30:14.539]',-0.115
'[11:30:14.547]',-0.145
'[11:30:14.555]',-0.165
'[11:30:14.563]',-0.165
'[11:30:14.570]',-0.165
'[11:30:14.578]',-0.175
'[11:30:14.586]',-0.175
'[11:30:14.594]',-0.185
'[11:30:14.602]',-0.175
'[11:30:14.609]',-0.175
'[11:30:14.617]',-0.165
'[11:30:14.625]',-0.125
'[11:30:14.633]',-0.105
'[11:30:14.641]',-0.075
'[11:30:14.648]',-0.045
'[11:30:14.656]',0.005
'[11:30:14.664]',0.075
'[11:30:14.672]',0.075
'[11:30:14.680]',0.085
'[11:30:14.688]',0.055
'[11:30:14.695]',0.015
'[11:30:14.703]',-0.025
'[11:30:14.711]',-0.095
'[11:30:14.719]',-0.155
'[11:30:14.727]',-0.205
'[11:30:14.734]',-0.205
'[11:30:14.742]',-0.205
'[11:30:14.750]',-0.185
'[11:30:14.758]',-0.285
'[11:30:14.766]',-0.565
'[11:30:14.773]',-0.585
'[11:30:14.781]',-0.085
'[11:30:14.789]',0.635
'[11:30:14.797]',0.675
'[11:30:14.805]',0.095
'[11:30:14.813]',-0.325
'[11:30:14.820]',-0.345
'[11:30:14.828]',-0.275
'[11:30:14.836]',-0.185
'[11:30:14.844]',-0.165
'[11:30:14.852]',-0.145
'[11:30:14.859]',-0.145
'[11:30:14.867]',-0.135
'[11:30:14.875]',-0.105
'[11:30:14.883]',-0.095
'[11:30:14.891]',-0.095
'[11:30:14.898]',-0.085
'[11:30:14.906]',-0.065
'[11:30:14.914]',-0.035
'[11:30:14.922]',-0.025
'[11:30:14.930]',-0.015
'[11:30:14.938]',0.015
'[11:30:14.945]',0.045
'[11:30:14.953]',0.075
'[11:30:14.961]',0.105
'[11:30:14.969]',0.145
'[11:30:14.977]',0.195
'[11:30:14.984]',0.255
'[11:30:14.992]',0.305
'[11:30:15.000]',0.335
'[11:30:15.008]',0.365
'[11:30:15.016]',0.365
'[11:30:15.023]',0.365
'[11:30:15.031]',0.335
'[11:30:15.039]',0.305
'[11:30:15.047]',0.255
'[11:30:15.055]',0.205
'[11:30:15.063]',0.165
'[11:30:15.070]',0.135
'[11:30:15.078]',0.115
'[11:30:15.086]',0.095
'[11:30:15.094]',0.085
'[11:30:15.102]',0.105
'[11:30:15.109]',0.115
'[11:30:15.117]',0.115
'[11:30:15.125]',0.125
'[11:30:15.133]',0.125
'[11:30:15.141]',0.135
'[11:30:15.148]',0.135
'[11:30:15.156]',0.175
'[11:30:15.164]',0.195
'[11:30:15.172]',0.225
'[11:30:15.180]',0.265
'[11:30:15.188]',0.325
'[11:30:15.195]',0.355
'[11:30:15.203]',0.355
'[11:30:15.211]',0.335
'[11:30:15.219]',0.325
'[11:30:15.227]',0.305
'[11:30:15.234]',0.245
'[11:30:15.242]',0.185
'[11:30:15.250]',0.135
'[11:30:15.258]',0.105
'[11:30:15.266]',0.095
'[11:30:15.273]',0.095
'[11:30:15.281]',0.115
'[11:30:15.289]',-0.065
'[11:30:15.297]',-0.325
'[11:30:15.305]',-0.155
'[11:30:15.313]',0.505
'[11:30:15.320]',1015
'[11:30:15.328]',0.705
'[11:30:15.336]',0.125
'[11:30:15.344]',-0.105
'[11:30:15.352]',-0.025
'[11:30:15.359]',0.055
'[11:30:15.367]',0.135
'[11:30:15.375]',0.145
'[11:30:15.383]',0.145
'[11:30:15.391]',0.155
'[11:30:15.398]',0.155
'[11:30:15.406]',0.185
'[11:30:15.414]',0.195
'[11:30:15.422]',0.195
'[11:30:15.430]',0.245
'[11:30:15.438]',0.245
'[11:30:15.445]',0.245
'[11:30:15.453]',0.275
'[11:30:15.461]',0.265
'[11:30:15.469]',0.305
'[11:30:15.477]',0.335
'[11:30:15.484]',0.375
'[11:30:15.492]',0.425
'[11:30:15.500]',0.465
'[11:30:15.508]',0.495
'[11:30:15.516]',0.535
'[11:30:15.523]',0.565
'[11:30:15.531]',0.605
'[11:30:15.539]',0.635
'[11:30:15.547]',0.645
'[11:30:15.555]',0.635
'[11:30:15.563]',0.605
'[11:30:15.570]',0.525
'[11:30:15.578]',0.465
'[11:30:15.586]',0.395
'[11:30:15.594]',0.355
'[11:30:15.602]',0.325
'[11:30:15.609]',0.295
'[11:30:15.617]',0.295
'[11:30:15.625]',0.295
'[11:30:15.633]',0.285
'[11:30:15.641]',0.275
'[11:30:15.648]',0.265
'[11:30:15.656]',0.255
'[11:30:15.664]',0.275
'[11:30:15.672]',0.285
'[11:30:15.680]',0.305
'[11:30:15.688]',0.355
'[11:30:15.695]',0.365
'[11:30:15.703]',0.365
'[11:30:15.711]',0.405
'[11:30:15.719]',0.465
'[11:30:15.727]',0.525
'[11:30:15.734]',0.525
'[11:30:15.742]',0.505
'[11:30:15.750]',0.485
'[11:30:15.758]',0.445
'[11:30:15.766]',0.375
'[11:30:15.773]',0.315
'[11:30:15.781]',0.225
'[11:30:15.789]',0.215
'[11:30:15.797]',0.205
'[11:30:15.805]',0.205
'[11:30:15.813]',0.215
'[11:30:15.820]',0.075
'[11:30:15.828]',-0.195
'[11:30:15.836]',-0.105
'[11:30:15.844]',0.495
'[11:30:15.852]',1115
'[11:30:15.859]',0.905
'[11:30:15.867]',0.385
'[11:30:15.875]',0.055
'[11:30:15.883]',0.015
'[11:30:15.891]',0.035
'[11:30:15.898]',0.135
'[11:30:15.906]',0.165
'[11:30:15.914]',0.185
'[11:30:15.922]',0.155
'[11:30:15.930]',0.155
'[11:30:15.938]',0.205
'[11:30:15.945]',0.215
'[11:30:15.953]',0.195
'[11:30:15.961]',0.205
'[11:30:15.969]',0.195
'[11:30:15.977]',0.235
'[11:30:15.984]',0.235
'[11:30:15.992]',0.245
'[11:30:16.000]',0.275
'[11:30:16.008]',0.305
'[11:30:16.016]',0.335
'[11:30:16.023]',0.365
'[11:30:16.031]',0.385
'[11:30:16.039]',0.455
'[11:30:16.047]',0.485
'[11:30:16.055]',0.515
'[11:30:16.063]',0.565
'[11:30:16.070]',0.565
'[11:30:16.078]',0.565
'[11:30:16.086]',0.555
'[11:30:16.094]',0.485
'[11:30:16.102]',0.425
'[11:30:16.109]',0.355
'[11:30:16.117]',0.285
'[11:30:16.125]',0.275
'[11:30:16.133]',0.205
'[11:30:16.141]',0.185
'[11:30:16.148]',0.175
'[11:30:16.156]',0.185
'[11:30:16.164]',0.175
'[11:30:16.172]',0.185
'[11:30:16.180]',0.175
'[11:30:16.188]',0.185
'[11:30:16.195]',0.175
'[11:30:16.203]',0.185
'[11:30:16.211]',0.185
'[11:30:16.219]',0.215
'[11:30:16.227]',0.235
'[11:30:16.234]',0.265
'[11:30:16.242]',0.305
'[11:30:16.250]',0.355
'[11:30:16.258]',0.375
'[11:30:16.266]',0.375
'[11:30:16.273]',0.345
'[11:30:16.281]',0.315
'[11:30:16.289]',0.285
'[11:30:16.297]',0.215
'[11:30:16.305]',0.175
'[11:30:16.313]',0.125
'[11:30:16.320]',0.095
'[11:30:16.328]',0.075
'[11:30:16.336]',0.065
'[11:30:16.344]',0.045
'[11:30:16.352]',-0.135
'[11:30:16.359]',-0.315
'[11:30:16.367]',-0.125
'[11:30:16.375]',0.465
'[11:30:16.383]',0.925
'[11:30:16.391]',0.715
'[11:30:16.398]',0.245
'[11:30:16.406]',-0.045
'[11:30:16.414]',-0.065
'[11:30:16.422]',-0.025
'[11:30:16.430]',0.045
'[11:30:16.438]',0.075
'[11:30:16.445]',0.075
'[11:30:16.453]',0.085
'[11:30:16.461]',0.075
'[11:30:16.469]',0.085
'[11:30:16.477]',0.095
'[11:30:16.484]',0.105
'[11:30:16.492]',0.125
'[11:30:16.500]',0.135
'[11:30:16.508]',0.145
'[11:30:16.516]',0.145
'[11:30:16.523]',0.155
'[11:30:16.531]',0.165
'[11:30:16.539]',0.215
'[11:30:16.547]',0.235
'[11:30:16.555]',0.275
'[11:30:16.563]',0.325
'[11:30:16.570]',0.355
'[11:30:16.578]',0.385
'[11:30:16.586]',0.405
'[11:30:16.594]',0.425
'[11:30:16.602]',0.475
'[11:30:16.609]',0.475
'[11:30:16.617]',0.465
'[11:30:16.625]',0.445
'[11:30:16.633]',0.375
'[11:30:16.641]',0.325
'[11:30:16.648]',0.265
'[11:30:16.656]',0.215
'[11:30:16.664]',0.175
'[11:30:16.672]',0.145
'[11:30:16.680]',0.135
'[11:30:16.688]',0.145
'[11:30:16.695]',0.145
'[11:30:16.703]',0.135
'[11:30:16.711]',0.135
'[11:30:16.719]',0.125
'[11:30:16.727]',0.145
'[11:30:16.734]',0.135
'[11:30:16.742]',0.155
'[11:30:16.750]',0.185
'[11:30:16.758]',0.205
'[11:30:16.766]',0.215
'[11:30:16.773]',0.235
'[11:30:16.781]',0.285
'[11:30:16.789]',0.315
'[11:30:16.797]',0.305
'[11:30:16.805]',0.305
'[11:30:16.813]',0.265
'[11:30:16.820]',0.225
'[11:30:16.828]',0.165
'[11:30:16.836]',0.095
'[11:30:16.844]',0.045
'[11:30:16.852]',0.025
'[11:30:16.859]',0.005
'[11:30:16.867]',0.015
'[11:30:16.875]',-0.025
'[11:30:16.883]',-0.315
'[11:30:16.891]',-0.415
'[11:30:16.898]',-0.005
'[11:30:16.906]',0.685
'[11:30:16.914]',0.855
'[11:30:16.922]',0.295
'[11:30:16.930]',-0.155
'[11:30:16.938]',-0.195
'[11:30:16.945]',-0.125
'[11:30:16.953]',-0.025
'[11:30:16.961]',-0.015
'[11:30:16.969]',-0.015
'[11:30:16.977]',-0.035
'[11:30:16.984]',-0.005
'[11:30:16.992]',0.015
'[11:30:17.000]',0.015
'[11:30:17.008]',0.015
'[11:30:17.016]',0.015
'[11:30:17.023]',0.015
'[11:30:17.031]',0.035
'[11:30:17.039]',0.055
'[11:30:17.047]',0.075
'[11:30:17.055]',0.085
'[11:30:17.063]',0.105
'[11:30:17.070]',0.135
'[11:30:17.078]',0.155
'[11:30:17.086]',0.185
'[11:30:17.094]',0.215
'[11:30:17.102]',0.265
'[11:30:17.109]',0.295
'[11:30:17.117]',0.335
'[11:30:17.125]',0.345
'[11:30:17.133]',0.365
'[11:30:17.141]',0.355
'[11:30:17.148]',0.315
'[11:30:17.156]',0.285
'[11:30:17.164]',0.215
'[11:30:17.172]',0.165
'[11:30:17.180]',0.115
'[11:30:17.188]',0.085
'[11:30:17.195]',0.035
'[11:30:17.203]',0.025
'[11:30:17.211]',0.015
'[11:30:17.219]',0.005
'[11:30:17.227]',0.005
'[11:30:17.234]',-0.005
'[11:30:17.242]',-0.005
'[11:30:17.250]',-0.005
'[11:30:17.258]',-0.005
'[11:30:17.266]',-0.015
'[11:30:17.273]',0.005
'[11:30:17.281]',0.005
'[11:30:17.289]',0.045
'[11:30:17.297]',0.065
'[11:30:17.305]',0.105
'[11:30:17.313]',0.165
'[11:30:17.320]',0.185
'[11:30:17.328]',0.175
'[11:30:17.336]',0.145
'[11:30:17.344]',0.105
'[11:30:17.352]',0.075
'[11:30:17.359]',0.005
'[11:30:17.367]',-0.075
'[11:30:17.375]',-0.125
'[11:30:17.383]',-0.155
'[11:30:17.391]',-0.155
'[11:30:17.398]',-0.155
'[11:30:17.406]',-0.195
'[11:30:17.414]',-0.445
'[11:30:17.422]',-0.605
'[11:30:17.430]',-0.315
'[11:30:17.438]',0.385
'[11:30:17.445]',0.705
'[11:30:17.453]',0.255
'[11:30:17.461]',-0.275
'[11:30:17.469]',-0.415
'[11:30:17.477]',-0.325
'[11:30:17.484]',-0.245
'[11:30:17.492]',-0.205
'[11:30:17.500]',-0.195
'[11:30:17.508]',-0.205
'[11:30:17.516]',-0.205
'[11:30:17.523]',-0.215
'[11:30:17.531]',-0.195
'[11:30:17.539]',-0.175
'[11:30:17.547]',-0.175
'[11:30:17.555]',-0.145
'[11:30:17.563]',-0.145
'[11:30:17.570]',-0.135
'[11:30:17.578]',-0.135
'[11:30:17.586]',-0.115
'[11:30:17.594]',-0.085
'[11:30:17.602]',-0.055
'[11:30:17.609]',-0.035
'[11:30:17.617]',0.015
'[11:30:17.625]',0.045
'[11:30:17.633]',0.085
'[11:30:17.641]',0.125
'[11:30:17.648]',0.135
'[11:30:17.656]',0.165
'[11:30:17.664]',0.165
'[11:30:17.672]',0.175
'[11:30:17.680]',0.125
'[11:30:17.688]',0.055
'[11:30:17.695]',-0.005
'[11:30:17.703]',-0.055
'[11:30:17.711]',-0.105
'[11:30:17.719]',-0.145
'[11:30:17.727]',-0.175
'[11:30:17.734]',-0.185
'[11:30:17.742]',-0.185
'[11:30:17.750]',-0.195
'[11:30:17.758]',-0.205
'[11:30:17.766]',-0.205
'[11:30:17.773]',-0.225
'[11:30:17.781]',-0.215
'[11:30:17.789]',-0.215
'[11:30:17.797]',-0.225
'[11:30:17.805]',-0.205
'[11:30:17.813]',-0.165
'[11:30:17.820]',-0.145
'[11:30:17.828]',-0.135
'[11:30:17.836]',-0.125
'[11:30:17.844]',-0.065
'[11:30:17.852]',-0.005
'[11:30:17.859]',-0.015
'[11:30:17.867]',-0.035
'[11:30:17.875]',-0.075
'[11:30:17.883]',-0.115
'[11:30:17.891]',-0.165
'[11:30:17.898]',-0.245
'[11:30:17.906]',-0.315
'[11:30:17.914]',-0.345
'[11:30:17.922]',-0.345
'[11:30:17.930]',-0.375
'[11:30:17.938]',-0.335
'[11:30:17.945]',-0.495
'[11:30:17.953]',-0.775
'[11:30:17.961]',-0.735
'[11:30:17.969]',-0.225
'[11:30:17.977]',0.375
'[11:30:17.984]',0.385
'[11:30:17.992]',-0.055
'[11:30:18.000]',-0.445
'[11:30:18.008]',-0.555
'[11:30:18.016]',-0.525
'[11:30:18.023]',-0.435
'[11:30:18.031]',-0.405
'[11:30:18.039]',-0.405
'[11:30:18.047]',-0.405
'[11:30:18.055]',-0.395
'[11:30:18.063]',-0.355
'[11:30:18.070]',-0.365
'[11:30:18.078]',-0.375
'[11:30:18.086]',-0.365
'[11:30:18.094]',-0.365
'[11:30:18.102]',-0.345
'[11:30:18.109]',-0.335
'[11:30:18.117]',-0.335
'[11:30:18.125]',-0.295
'[11:30:18.133]',-0.275
'[11:30:18.141]',-0.245
'[11:30:18.148]',-0.235
'[11:30:18.156]',-0.215
'[11:30:18.164]',-0.145
'[11:30:18.172]',-0.095
'[11:30:18.180]',-0.065
'[11:30:18.188]',-0.035
'[11:30:18.195]',-0.015
'[11:30:18.203]',-0.005
'[11:30:18.211]',-0.015
'[11:30:18.219]',-0.075
'[11:30:18.227]',-0.125
'[11:30:18.234]',-0.165
'[11:30:18.242]',-0.255
'[11:30:18.250]',-0.305
'[11:30:18.258]',-0.335
'[11:30:18.266]',-0.345
'[11:30:18.273]',-0.365
'[11:30:18.281]',-0.395
'[11:30:18.289]',-0.385
'[11:30:18.297]',-0.405
'[11:30:18.305]',-0.415
'[11:30:18.313]',-0.375
'[11:30:18.320]',-0.395
'[11:30:18.328]',-0.395
'[11:30:18.336]',-0.395
'[11:30:18.344]',-0.385
'[11:30:18.352]',-0.355
'[11:30:18.359]',-0.325
'[11:30:18.367]',-0.305
'[11:30:18.375]',-0.205
'[11:30:18.383]',-0.185
'[11:30:18.391]',-0.185
'[11:30:18.398]',-0.195
'[11:30:18.406]',-0.245
'[11:30:18.414]',-0.275
'[11:30:18.422]',-0.335
'[11:30:18.430]',-0.405
'[11:30:18.438]',-0.475
'[11:30:18.445]',-0.515
'[11:30:18.453]',-0.505
'[11:30:18.461]',-0.515
'[11:30:18.469]',-0.535
'[11:30:18.477]',-0.835
'[11:30:18.484]',-0.955
'[11:30:18.492]',-0.495
'[11:30:18.500]',0.265
'[11:30:18.508]',0.485
'[11:30:18.516]',-0.015
'[11:30:18.523]',-0.525
'[11:30:18.531]',-0.695
'[11:30:18.539]',-0.675
'[11:30:18.547]',-0.595
'[11:30:18.555]',-0.525
'[11:30:18.563]',-0.505
'[11:30:18.570]',-0.505
'[11:30:18.578]',-0.515
'[11:30:18.586]',-0.505
'[11:30:18.594]',-0.495
'[11:30:18.602]',-0.475
'[11:30:18.609]',-0.455
'[11:30:18.617]',-0.435
'[11:30:18.625]',-0.445
'[11:30:18.633]',-0.425
'[11:30:18.641]',-0.415
'[11:30:18.648]',-0.405
'[11:30:18.656]',-0.365
'[11:30:18.664]',-0.325
'[11:30:18.672]',-0.295
'[11:30:18.680]',-0.245
'[11:30:18.688]',-0.185
'[11:30:18.695]',-0.175
'[11:30:18.703]',-0.115
'[11:30:18.711]',-0.085
'[11:30:18.719]',-0.065
'[11:30:18.727]',-0.035
'[11:30:18.734]',-0.035
'[11:30:18.742]',-0.055
'[11:30:18.750]',-0.105
'[11:30:18.758]',-0.185
'[11:30:18.766]',-0.235
'[11:30:18.773]',-0.305
'[11:30:18.781]',-0.335
'[11:30:18.789]',-0.345
'[11:30:18.797]',-0.375
'[11:30:18.805]',-0.375
'[11:30:18.813]',-0.375
'[11:30:18.820]',-0.375
'[11:30:18.828]',-0.375
'[11:30:18.836]',-0.365
'[11:30:18.844]',-0.375
'[11:30:18.852]',-0.375
'[11:30:18.859]',-0.375
'[11:30:18.867]',-0.325
'[11:30:18.875]',-0.295
'[11:30:18.883]',-0.275
'[11:30:18.891]',-0.245
'[11:30:18.898]',-0.195
'[11:30:18.906]',-0.145
'[11:30:18.914]',-0.135
'[11:30:18.922]',-0.125
'[11:30:18.930]',-0.155
'[11:30:18.938]',-0.185
'[11:30:18.945]',-0.235
'[11:30:18.953]',-0.295
'[11:30:18.961]',-0.375
'[11:30:18.969]',-0.405
'[11:30:18.977]',-0.415
'[11:30:18.984]',-0.425
'[11:30:18.992]',-0.405
'[11:30:19.000]',-0.535
'[11:30:19.008]',-0.795
'[11:30:19.016]',-0.775
'[11:30:19.023]',-0.265
'[11:30:19.031]',0.355
'[11:30:19.039]',0.355
'[11:30:19.047]',-0.205
'[11:30:19.055]',-0.555
'[11:30:19.063]',-0.555
'[11:30:19.070]',-0.495
'[11:30:19.078]',-0.425
'[11:30:19.086]',-0.415
'[11:30:19.094]',-0.415
'[11:30:19.102]',-0.405
'[11:30:19.109]',-0.405
'[11:30:19.117]',-0.395
'[11:30:19.125]',-0.355
'[11:30:19.133]',-0.365
'[11:30:19.141]',-0.355
'[11:30:19.148]',-0.345
'[11:30:19.156]',-0.335
'[11:30:19.164]',-0.315
'[11:30:19.172]',-0.295
'[11:30:19.180]',-0.285
'[11:30:19.188]',-0.245
'[11:30:19.195]',-0.225
'[11:30:19.203]',-0.195
'[11:30:19.211]',-0.165
'[11:30:19.219]',-0.135
'[11:30:19.227]',-0.085
'[11:30:19.234]',-0.035
'[11:30:19.242]',-0.005
'[11:30:19.250]',0.025
'[11:30:19.258]',0.055
'[11:30:19.266]',0.035
'[11:30:19.273]',-0.005
'[11:30:19.281]',-0.085
'[11:30:19.289]',-0.125
'[11:30:19.297]',-0.185
'[11:30:19.305]',-0.225
'[11:30:19.313]',-0.255
'[11:30:19.320]',-0.285
'[11:30:19.328]',-0.305
'[11:30:19.336]',-0.305
'[11:30:19.344]',-0.315
'[11:30:19.352]',-0.295
'[11:30:19.359]',-0.295
'[11:30:19.367]',-0.295
'[11:30:19.375]',-0.285
'[11:30:19.383]',-0.295
'[11:30:19.391]',-0.295
'[11:30:19.398]',-0.255
'[11:30:19.406]',-0.235
'[11:30:19.414]',-0.215
'[11:30:19.422]',-0.185
'[11:30:19.430]',-0.115
'[11:30:19.438]',-0.075
'[11:30:19.445]',-0.075
'[11:30:19.453]',-0.105
'[11:30:19.461]',-0.145
'[11:30:19.469]',-0.195
'[11:30:19.477]',-0.235
'[11:30:19.484]',-0.295
'[11:30:19.492]',-0.355
'[11:30:19.500]',-0.395
'[11:30:19.508]',-0.395
'[11:30:19.516]',-0.415
'[11:30:19.523]',-0.395
'[11:30:19.531]',-0.575
'[11:30:19.539]',-0.805
'[11:30:19.547]',-0.685
'[11:30:19.555]',-0.045
'[11:30:19.563]',0.475
'[11:30:19.570]',0.195
'[11:30:19.578]',-0.355
'[11:30:19.586]',-0.595
'[11:30:19.594]',-0.555
'[11:30:19.602]',-0.465
'[11:30:19.609]',-0.395
'[11:30:19.617]',-0.385
'[11:30:19.625]',-0.385
'[11:30:19.633]',-0.395
'[11:30:19.641]',-0.385
'[11:30:19.648]',-0.375
'[11:30:19.656]',-0.365
'[11:30:19.664]',-0.365
'[11:30:19.672]',-0.345
'[11:30:19.680]',-0.325
'[11:30:19.688]',-0.305
'[11:30:19.695]',-0.295
'[11:30:19.703]',-0.285
'[11:30:19.711]',-0.265
'[11:30:19.719]',-0.245
'[11:30:19.727]',-0.205
'[11:30:19.734]',-0.165
'[11:30:19.742]',-0.115
'[11:30:19.750]',-0.065
'[11:30:19.758]',-0.025
'[11:30:19.766]',0.005
'[11:30:19.773]',0.035
'[11:30:19.781]',0.035
'[11:30:19.789]',0.055
'[11:30:19.797]',0.025
'[11:30:19.805]',-0.015
'[11:30:19.813]',-0.065
'[11:30:19.820]',-0.135
'[11:30:19.828]',-0.195
'[11:30:19.836]',-0.235
'[11:30:19.844]',-0.295
'[11:30:19.852]',-0.285
'[11:30:19.859]',-0.295
'[11:30:19.867]',-0.295
'[11:30:19.875]',-0.305
'[11:30:19.883]',-0.315
'[11:30:19.891]',-0.315
'[11:30:19.898]',-0.335
'[11:30:19.906]',-0.325
'[11:30:19.914]',-0.325
'[11:30:19.922]',-0.295
'[11:30:19.930]',-0.275
'[11:30:19.938]',-0.235
'[11:30:19.945]',-0.225
'[11:30:19.953]',-0.185
'[11:30:19.961]',-0.125
'[11:30:19.969]',-0.125
'[11:30:19.977]',-0.095
'[11:30:19.984]',-0.135
'[11:30:19.992]',-0.175
'[11:30:20.000]',-0.215
'[11:30:20.008]',-0.275
'[11:30:20.016]',-0.345
'[11:30:20.023]',-0.395
'[11:30:20.031]',-0.435
'[11:30:20.039]',-0.435
'[11:30:20.047]',-0.425
'[11:30:20.055]',-0.475
'[11:30:20.063]',-0.745
'[11:30:20.070]',-0.805
'[11:30:20.078]',-0.395
'[11:30:20.086]',0.225
'[11:30:20.094]',0.355
'[11:30:20.102]',-0.025
'[11:30:20.109]',-0.455
'[11:30:20.117]',-0.585
'[11:30:20.125]',-0.585
'[11:30:20.133]',-0.515
'[11:30:20.141]',-0.465
'[11:30:20.148]',-0.465
'[11:30:20.156]',-0.445
'[11:30:20.164]',-0.445
'[11:30:20.172]',-0.435
'[11:30:20.180]',-0.425
'[11:30:20.188]',-0.395
'[11:30:20.195]',-0.415
'[11:30:20.203]',-0.405
'[11:30:20.211]',-0.395
'[11:30:20.219]',-0.375
'[11:30:20.227]',-0.345
'[11:30:20.234]',-0.325
'[11:30:20.242]',-0.305
'[11:30:20.250]',-0.265
'[11:30:20.258]',-0.235
'[11:30:20.266]',-0.215
'[11:30:20.273]',-0.175
'[11:30:20.281]',-0.135
'[11:30:20.289]',-0.095
'[11:30:20.297]',-0.065
'[11:30:20.305]',-0.025
'[11:30:20.313]',-0.025
'[11:30:20.320]',-0.035
'[11:30:20.328]',-0.055
'[11:30:20.336]',-0.105
'[11:30:20.344]',-0.195
'[11:30:20.352]',-0.255
'[11:30:20.359]',-0.305
'[11:30:20.367]',-0.325
'[11:30:20.375]',-0.335
'[11:30:20.383]',-0.365
'[11:30:20.391]',-0.385
'[11:30:20.398]',-0.385
'[11:30:20.406]',-0.395
'[11:30:20.414]',-0.385
'[11:30:20.422]',-0.385
'[11:30:20.430]',-0.405
'[11:30:20.438]',-0.375
'[11:30:20.445]',-0.365
'[11:30:20.453]',-0.345
'[11:30:20.461]',-0.325
'[11:30:20.469]',-0.315
'[11:30:20.477]',-0.285
'[11:30:20.484]',-0.235
'[11:30:20.492]',-0.165
'[11:30:20.500]',-0.145
'[11:30:20.508]',-0.125
'[11:30:20.516]',-0.175
'[11:30:20.523]',-0.225
'[11:30:20.531]',-0.275
'[11:30:20.539]',-0.325
'[11:30:20.547]',-0.405
'[11:30:20.555]',-0.435
'[11:30:20.563]',-0.435
'[11:30:20.570]',-0.435
'[11:30:20.578]',-0.445
'[11:30:20.586]',-0.585
'[11:30:20.594]',-0.875
'[11:30:20.602]',-0.795
'[11:30:20.609]',-0.135
'[11:30:20.617]',0.545
'[11:30:20.625]',0.455
'[11:30:20.633]',-0.125
'[11:30:20.641]',-0.525
'[11:30:20.648]',-0.605
'[11:30:20.656]',-0.565
'[11:30:20.664]',-0.465
'[11:30:20.672]',-0.435
'[11:30:20.680]',-0.415
'[11:30:20.688]',-0.395
'[11:30:20.695]',-0.395
'[11:30:20.703]',-0.375
'[11:30:20.711]',-0.375
'[11:30:20.719]',-0.355
'[11:30:20.727]',-0.335
'[11:30:20.734]',-0.315
'[11:30:20.742]',-0.295
'[11:30:20.750]',-0.265
'[11:30:20.758]',-0.255
'[11:30:20.766]',-0.225
'[11:30:20.773]',-0.195
'[11:30:20.781]',-0.175
'[11:30:20.789]',-0.115
'[11:30:20.797]',-0.085
'[11:30:20.805]',0.005
'[11:30:20.813]',0.045
'[11:30:20.820]',0.075
'[11:30:20.828]',0.095
'[11:30:20.836]',0.135
'[11:30:20.844]',0.125
'[11:30:20.852]',0.115
'[11:30:20.859]',0.075
'[11:30:20.867]',0.035
'[11:30:20.875]',-0.015
'[11:30:20.883]',-0.075
'[11:30:20.891]',-0.105
'[11:30:20.898]',-0.145
'[11:30:20.906]',-0.145
'[11:30:20.914]',-0.145
'[11:30:20.922]',-0.135
'[11:30:20.930]',-0.135
'[11:30:20.938]',-0.115
'[11:30:20.945]',-0.125
'[11:30:20.953]',-0.125
'[11:30:20.961]',-0.145
'[11:30:20.969]',-0.115
'[11:30:20.977]',-0.065
'[11:30:20.984]',-0.025
'[11:30:20.992]',-0.005
'[11:30:21.000]',0.035
'[11:30:21.008]',0.095
'[11:30:21.016]',0.145
'[11:30:21.023]',0.145
'[11:30:21.031]',0.145
'[11:30:21.039]',0.125
'[11:30:21.047]',0.095
'[11:30:21.055]',0.065
'[11:30:21.063]',0.025
'[11:30:21.070]',-0.045
'[11:30:21.078]',-0.095
'[11:30:21.086]',-0.125
'[11:30:21.094]',-0.125
'[11:30:21.102]',-0.095
'[11:30:21.109]',-0.175
'[11:30:21.117]',-0.455
'[11:30:21.125]',-0.485
'[11:30:21.133]',-0.005
'[11:30:21.141]',0.665
'[11:30:21.148]',0.775
'[11:30:21.156]',0.195
'[11:30:21.164]',-0.185
'[11:30:21.172]',-0.225
'[11:30:21.180]',-0.145
'[11:30:21.188]',-0.055
'[11:30:21.195]',-0.055
'[11:30:21.203]',-0.045
'[11:30:21.211]',-0.045
'[11:30:21.219]',-0.035
'[11:30:21.227]',-0.005
'[11:30:21.234]',0.005
'[11:30:21.242]',0.015
'[11:30:21.250]',0.035
'[11:30:21.258]',0.045
'[11:30:21.266]',0.045
'[11:30:21.273]',0.065
'[11:30:21.281]',0.075
'[11:30:21.289]',0.115
'[11:30:21.297]',0.135
'[11:30:21.305]',0.165
'[11:30:21.313]',0.215
'[11:30:21.320]',0.245
'[11:30:21.328]',0.285
'[11:30:21.336]',0.335
'[11:30:21.344]',0.375
'[11:30:21.352]',0.415
'[11:30:21.359]',0.425
'[11:30:21.367]',0.445
'[11:30:21.375]',0.455
'[11:30:21.383]',0.425
'[11:30:21.391]',0.375
'[11:30:21.398]',0.305
'[11:30:21.406]',0.255
'[11:30:21.414]',0.205
'[11:30:21.422]',0.175
'[11:30:21.430]',0.165
'[11:30:21.438]',0.165
'[11:30:21.445]',0.145
'[11:30:21.453]',0.165
'[11:30:21.461]',0.165
'[11:30:21.469]',0.145
'[11:30:21.477]',0.145
'[11:30:21.484]',0.155
'[11:30:21.492]',0.175
'[11:30:21.500]',0.195
'[11:30:21.508]',0.215
'[11:30:21.516]',0.215
'[11:30:21.523]',0.265
'[11:30:21.531]',0.285
'[11:30:21.539]',0.355
'[11:30:21.547]',0.395
'[11:30:21.555]',0.405
'[11:30:21.563]',0.385
'[11:30:21.570]',0.355
'[11:30:21.578]',0.305
'[11:30:21.586]',0.245
'[11:30:21.594]',0.165
'[11:30:21.602]',0.115
'[11:30:21.609]',0.085
'[11:30:21.617]',0.095
'[11:30:21.625]',0.095
'[11:30:21.633]',0.085
'[11:30:21.641]',-0.075
'[11:30:21.648]',-0.335
'[11:30:21.656]',-0.275
'[11:30:21.664]',0.295
'[11:30:21.672]',0.885
'[11:30:21.680]',0.805
'[11:30:21.688]',0.275
'[11:30:21.695]',-0.065
'[11:30:21.703]',-0.065
'[11:30:21.711]',-0.015
'[11:30:21.719]',0.045
'[11:30:21.727]',0.085
'[11:30:21.734]',0.095
'[11:30:21.742]',0.095
'[11:30:21.750]',0.085
'[11:30:21.758]',0.115
'[11:30:21.766]',0.125
'[11:30:21.773]',0.135
'[11:30:21.781]',0.115
'[11:30:21.789]',0.155
'[11:30:21.797]',0.155
'[11:30:21.805]',0.165
'[11:30:21.813]',0.195
'[11:30:21.820]',0.215
'[11:30:21.828]',0.225
'[11:30:21.836]',0.265
'[11:30:21.844]',0.285
'[11:30:21.852]',0.325
'[11:30:21.859]',0.365
'[11:30:21.867]',0.415
'[11:30:21.875]',0.465
'[11:30:21.883]',0.485
'[11:30:21.891]',0.505
'[11:30:21.898]',0.505
'[11:30:21.906]',0.485
'[11:30:21.914]',0.455
'[11:30:21.922]',0.405
'[11:30:21.930]',0.325
'[11:30:21.938]',0.305
'[11:30:21.945]',0.255
'[11:30:21.953]',0.205
'[11:30:21.961]',0.185
'[11:30:21.969]',0.155
'[11:30:21.977]',0.165
'[11:30:21.984]',0.145
'[11:30:21.992]',0.155
'[11:30:22.000]',0.165
'[11:30:22.008]',0.175
'[11:30:22.016]',0.145
'[11:30:22.023]',0.155
'[11:30:22.031]',0.135
'[11:30:22.039]',0.175
'[11:30:22.047]',0.185
'[11:30:22.055]',0.205
'[11:30:22.063]',0.245
'[11:30:22.070]',0.295
'[11:30:22.078]',0.345
'[11:30:22.086]',0.335
'[11:30:22.094]',0.335
'[11:30:22.102]',0.295
'[11:30:22.109]',0.265
'[11:30:22.117]',0.205
'[11:30:22.125]',0.155
'[11:30:22.133]',0.075
'[11:30:22.141]',0.025
'[11:30:22.148]',0.015
'[11:30:22.156]',0.015
'[11:30:22.164]',0.035
'[11:30:22.172]',-0.055
'[11:30:22.180]',-0.335
'[11:30:22.188]',-0.355
'[11:30:22.195]',0.105
'[11:30:22.203]',0.675
'[11:30:22.211]',0.715
'[11:30:22.219]',0.275
'[11:30:22.227]',-0.095
'[11:30:22.234]',-0.155
'[11:30:22.242]',-0.125
'[11:30:22.250]',-0.035
'[11:30:22.258]',-0.005
'[11:30:22.266]',-0.015
'[11:30:22.273]',-0.015
'[11:30:22.281]',-0.015
'[11:30:22.289]',-0.005
'[11:30:22.297]',0.005
'[11:30:22.305]',0.005
'[11:30:22.313]',0.045
'[11:30:22.320]',0.055
'[11:30:22.328]',0.045
'[11:30:22.336]',0.055
'[11:30:22.344]',0.065
'[11:30:22.352]',0.085
'[11:30:22.359]',0.095
'[11:30:22.367]',0.115
'[11:30:22.375]',0.165
'[11:30:22.383]',0.195
'[11:30:22.391]',0.255
'[11:30:22.398]',0.275
'[11:30:22.406]',0.335
'[11:30:22.414]',0.345
'[11:30:22.422]',0.375
'[11:30:22.430]',0.385
'[11:30:22.438]',0.365
'[11:30:22.445]',0.325
'[11:30:22.453]',0.255
'[11:30:22.461]',0.175
'[11:30:22.469]',0.105
'[11:30:22.477]',0.095
'[11:30:22.484]',0.055
'[11:30:22.492]',0.045
'[11:30:22.500]',0.035
'[11:30:22.508]',0.035
'[11:30:22.516]',0.005
'[11:30:22.523]',-0.015
'[11:30:22.531]',-0.005
'[11:30:22.539]',-0.005
'[11:30:22.547]',-0.005
'[11:30:22.555]',0.005
'[11:30:22.563]',0.025
'[11:30:22.570]',0.065
'[11:30:22.578]',0.065
'[11:30:22.586]',0.085
'[11:30:22.594]',0.085
'[11:30:22.602]',0.165
'[11:30:22.609]',0.195
'[11:30:22.617]',0.215
'[11:30:22.625]',0.205
'[11:30:22.633]',0.155
'[11:30:22.641]',0.125
'[11:30:22.648]',0.065
'[11:30:22.656]',-0.005
'[11:30:22.664]',-0.045
'[11:30:22.672]',-0.075
'[11:30:22.680]',-0.075
'[11:30:22.688]',-0.065
'[11:30:22.695]',-0.085
'[11:30:22.703]',-0.295
'[11:30:22.711]',-0.455
'[11:30:22.719]',-0.215
'[11:30:22.727]',0.405
'[11:30:22.734]',0.805
'[11:30:22.742]',0.545
'[11:30:22.750]',0.085
'[11:30:22.758]',-0.195
'[11:30:22.766]',-0.235
'[11:30:22.773]',-0.225
'[11:30:22.781]',-0.135
'[11:30:22.789]',-0.105
'[11:30:22.797]',-0.105
'[11:30:22.805]',-0.085
'[11:30:22.813]',-0.085
'[11:30:22.820]',-0.095
'[11:30:22.828]',-0.075
'[11:30:22.836]',-0.075
'[11:30:22.844]',-0.065
'[11:30:22.852]',-0.045
'[11:30:22.859]',-0.055
'[11:30:22.867]',-0.025
'[11:30:22.875]',0.015
'[11:30:22.883]',0.025
'[11:30:22.891]',0.045
'[11:30:22.898]',0.075
'[11:30:22.906]',0.115
'[11:30:22.914]',0.165
'[11:30:22.922]',0.205
'[11:30:22.930]',0.245
'[11:30:22.938]',0.295
'[11:30:22.945]',0.315
'[11:30:22.953]',0.335
'[11:30:22.961]',0.325
'[11:30:22.969]',0.305
'[11:30:22.977]',0.265
'[11:30:22.984]',0.205
'[11:30:22.992]',0.145
'[11:30:23.000]',0.095
'[11:30:23.008]',0.045
'[11:30:23.016]',0.015
'[11:30:23.023]',-0.005
'[11:30:23.031]',-0.015
'[11:30:23.039]',-0.015
'[11:30:23.047]',-0.015
'[11:30:23.055]',-0.025
'[11:30:23.063]',-0.005
'[11:30:23.070]',-0.015
'[11:30:23.078]',0.005
'[11:30:23.086]',-0.005
'[11:30:23.094]',0.005
'[11:30:23.102]',0.035
'[11:30:23.109]',0.075
'[11:30:23.117]',0.075
'[11:30:23.125]',0.135
'[11:30:23.133]',0.185
'[11:30:23.141]',0.215
'[11:30:23.148]',0.215
'[11:30:23.156]',0.195
'[11:30:23.164]',0.145
'[11:30:23.172]',0.105
'[11:30:23.180]',0.055
'[11:30:23.188]',0.005
'[11:30:23.195]',-0.075
'[11:30:23.203]',-0.095
'[11:30:23.211]',-0.085
'[11:30:23.219]',-0.085
'[11:30:23.227]',-0.115
'[11:30:23.234]',-0.415
'[11:30:23.242]',-0.535
'[11:30:23.250]',-0.115
'[11:30:23.258]',0.625
'[11:30:23.266]',0.885
'[11:30:23.273]',0.355
'[11:30:23.281]',-0.135
'[11:30:23.289]',-0.245
'[11:30:23.297]',-0.215
'[11:30:23.305]',-0.145
'[11:30:23.313]',-0.095
'[11:30:23.320]',-0.095
'[11:30:23.328]',-0.085
'[11:30:23.336]',-0.085
'[11:30:23.344]',-0.095
'[11:30:23.352]',-0.075
'[11:30:23.359]',-0.055
'[11:30:23.367]',-0.045
'[11:30:23.375]',-0.005
'[11:30:23.383]',-0.005
'[11:30:23.391]',-0.005
'[11:30:23.398]',-0.005
'[11:30:23.406]',0.025
'[11:30:23.414]',0.045
'[11:30:23.422]',0.085
'[11:30:23.430]',0.115
'[11:30:23.438]',0.165
'[11:30:23.445]',0.195
'[11:30:23.453]',0.225
'[11:30:23.461]',0.265
'[11:30:23.469]',0.295
'[11:30:23.477]',0.315
'[11:30:23.484]',0.315
'[11:30:23.492]',0.325
'[11:30:23.500]',0.305
'[11:30:23.508]',0.265
'[11:30:23.516]',0.205
'[11:30:23.523]',0.135
'[11:30:23.531]',0.055
'[11:30:23.539]',0.045
'[11:30:23.547]',0.035
'[11:30:23.555]',0.035
'[11:30:23.563]',0.015
'[11:30:23.570]',0.015
'[11:30:23.578]',0.005
'[11:30:23.586]',-0.005
'[11:30:23.594]',0.005
'[11:30:23.602]',0.025
'[11:30:23.609]',0.005
'[11:30:23.617]',0.035
'[11:30:23.625]',0.065
'[11:30:23.633]',0.085
'[11:30:23.641]',0.105
'[11:30:23.648]',0.125
'[11:30:23.656]',0.175
'[11:30:23.664]',0.225
'[11:30:23.672]',0.215
'[11:30:23.680]',0.215
'[11:30:23.688]',0.175
'[11:30:23.695]',0.135
'[11:30:23.703]',0.085
'[11:30:23.711]',0.005
'[11:30:23.719]',-0.055
'[11:30:23.727]',-0.085
'[11:30:23.734]',-0.085
'[11:30:23.742]',-0.085
'[11:30:23.750]',-0.085
'[11:30:23.758]',-0.235
'[11:30:23.766]',-0.515
'[11:30:23.773]',-0.445
'[11:30:23.781]',0.155
'[11:30:23.789]',0.745
'[11:30:23.797]',0.555
'[11:30:23.805]',0.045
'[11:30:23.813]',-0.265
'[11:30:23.820]',-0.235
'[11:30:23.828]',-0.195
'[11:30:23.836]',-0.125
'[11:30:23.844]',-0.105
'[11:30:23.852]',-0.115
'[11:30:23.859]',-0.125
'[11:30:23.867]',-0.105
'[11:30:23.875]',-0.075
'[11:30:23.883]',-0.075
'[11:30:23.891]',-0.085
'[11:30:23.898]',-0.095
'[11:30:23.906]',-0.065
'[11:30:23.914]',-0.055
'[11:30:23.922]',-0.045
'[11:30:23.930]',-0.035
'[11:30:23.938]',0.005
'[11:30:23.945]',0.035
'[11:30:23.953]',0.035
'[11:30:23.961]',0.065
'[11:30:23.969]',0.115
'[11:30:23.977]',0.155
'[11:30:23.984]',0.185
'[11:30:23.992]',0.245
'[11:30:24.000]',0.255
'[11:30:24.008]',0.285
'[11:30:24.016]',0.295
'[11:30:24.023]',0.265
'[11:30:24.031]',0.215
'[11:30:24.039]',0.175
'[11:30:24.047]',0.105
'[11:30:24.055]',0.045
'[11:30:24.063]',0.015
'[11:30:24.070]',-0.005
'[11:30:24.078]',-0.035
'[11:30:24.086]',-0.055
'[11:30:24.094]',-0.065
'[11:30:24.102]',-0.045
'[11:30:24.109]',-0.065
'[11:30:24.117]',-0.065
'[11:30:24.125]',-0.055
'[11:30:24.133]',-0.065
'[11:30:24.141]',-0.055
'[11:30:24.148]',-0.045
'[11:30:24.156]',-0.015
'[11:30:24.164]',0.015
'[11:30:24.172]',0.025
'[11:30:24.180]',0.055
'[11:30:24.188]',0.125
'[11:30:24.195]',0.165
'[11:30:24.203]',0.155
'[11:30:24.211]',0.135
'[11:30:24.219]',0.075
'[11:30:24.227]',0.045
'[11:30:24.234]',-0.015
'[11:30:24.242]',-0.075
'[11:30:24.250]',-0.125
'[11:30:24.258]',-0.165
'[11:30:24.266]',-0.195
'[11:30:24.273]',-0.195
'[11:30:24.281]',-0.205
'[11:30:24.289]',-0.355
'[11:30:24.297]',-0.595
'[11:30:24.305]',-0.485
'[11:30:24.313]',0.095
'[11:30:24.320]',0.595
'[11:30:24.328]',0.435
'[11:30:24.336]',-0.055
'[11:30:24.344]',-0.365
'[11:30:24.352]',-0.365
'[11:30:24.359]',-0.315
'[11:30:24.367]',-0.245
'[11:30:24.375]',-0.205
'[11:30:24.383]',-0.195
'[11:30:24.391]',-0.195
'[11:30:24.398]',-0.195
'[11:30:24.406]',-0.195
'[11:30:24.414]',-0.175
'[11:30:24.422]',-0.165
'[11:30:24.430]',-0.175
'[11:30:24.438]',-0.145
'[11:30:24.445]',-0.155
'[11:30:24.453]',-0.145
'[11:30:24.461]',-0.125
'[11:30:24.469]',-0.135
'[11:30:24.477]',-0.065
'[11:30:24.484]',-0.035
'[11:30:24.492]',-0.005
'[11:30:24.500]',0.025
'[11:30:24.508]',0.075
'[11:30:24.516]',0.105
'[11:30:24.523]',0.135
'[11:30:24.531]',0.135
'[11:30:24.539]',0.185
'[11:30:24.547]',0.195
'[11:30:24.555]',0.155
'[11:30:24.563]',0.105
'[11:30:24.570]',0.065
'[11:30:24.578]',-0.015
'[11:30:24.586]',-0.075
'[11:30:24.594]',-0.125
'[11:30:24.602]',-0.145
'[11:30:24.609]',-0.175
'[11:30:24.617]',-0.175
'[11:30:24.625]',-0.185
'[11:30:24.633]',-0.185
'[11:30:24.641]',-0.195
'[11:30:24.648]',-0.225
'[11:30:24.656]',-0.195
'[11:30:24.664]',-0.205
'[11:30:24.672]',-0.195
'[11:30:24.680]',-0.165
'[11:30:24.688]',-0.115
'[11:30:24.695]',-0.125
'[11:30:24.703]',-0.095
'[11:30:24.711]',-0.035
'[11:30:24.719]',0.005
'[11:30:24.727]',-0.005
'[11:30:24.734]',-0.025
'[11:30:24.742]',-0.055
'[11:30:24.750]',-0.085
'[11:30:24.758]',-0.145
'[11:30:24.766]',-0.215
'[11:30:24.773]',-0.295
'[11:30:24.781]',-0.325
'[11:30:24.789]',-0.325
'[11:30:24.797]',-0.335
'[11:30:24.805]',-0.305
'[11:30:24.813]',-0.475
'[11:30:24.820]',-0.745
'[11:30:24.828]',-0.585
'[11:30:24.836]',0.015
'[11:30:24.844]',0.595
'[11:30:24.852]',0.465
'[11:30:24.859]',-0.015
'[11:30:24.867]',-0.415
'[11:30:24.875]',-0.515
'[11:30:24.883]',-0.525
'[11:30:24.891]',-0.425
'[11:30:24.898]',-0.365
'[11:30:24.906]',-0.345
'[11:30:24.914]',-0.345
'[11:30:24.922]',-0.335
'[11:30:24.930]',-0.325
'[11:30:24.938]',-0.315
'[11:30:24.945]',-0.305
'[11:30:24.953]',-0.295
'[11:30:24.961]',-0.305
'[11:30:24.969]',-0.295
'[11:30:24.977]',-0.275
'[11:30:24.984]',-0.245
'[11:30:24.992]',-0.235
'[11:30:25.000]',-0.215
'[11:30:25.008]',-0.185
'[11:30:25.016]',-0.125
'[11:30:25.023]',-0.105
'[11:30:25.031]',-0.065
'[11:30:25.039]',-0.015
'[11:30:25.047]',0.005
'[11:30:25.055]',0.055
'[11:30:25.063]',0.085
'[11:30:25.070]',0.085
'[11:30:25.078]',0.065
'[11:30:25.086]',0.005
'[11:30:25.094]',-0.065
'[11:30:25.102]',-0.115
'[11:30:25.109]',-0.165
'[11:30:25.117]',-0.195
'[11:30:25.125]',-0.245
'[11:30:25.133]',-0.265
'[11:30:25.141]',-0.265
'[11:30:25.148]',-0.295
'[11:30:25.156]',-0.295
'[11:30:25.164]',-0.295
'[11:30:25.172]',-0.285
'[11:30:25.180]',-0.275
'[11:30:25.188]',-0.275
'[11:30:25.195]',-0.285
'[11:30:25.203]',-0.255
'[11:30:25.211]',-0.235
'[11:30:25.219]',-0.215
'[11:30:25.227]',-0.155
'[11:30:25.234]',-0.135
'[11:30:25.242]',-0.075
'[11:30:25.250]',-0.045
'[11:30:25.258]',-0.045
'[11:30:25.266]',-0.085
'[11:30:25.273]',-0.125
'[11:30:25.281]',-0.155
'[11:30:25.289]',-0.225
'[11:30:25.297]',-0.285
'[11:30:25.305]',-0.335
'[11:30:25.313]',-0.345
'[11:30:25.320]',-0.325
'[11:30:25.328]',-0.325
'[11:30:25.336]',-0.445
'[11:30:25.344]',-0.765
'[11:30:25.352]',-0.755
'[11:30:25.359]',-0.155
'[11:30:25.367]',0.595
'[11:30:25.375]',0.605
'[11:30:25.383]',0.035
'[11:30:25.391]',-0.435
'[11:30:25.398]',-0.525
'[11:30:25.406]',-0.495
'[11:30:25.414]',-0.395
'[11:30:25.422]',-0.345
'[11:30:25.430]',-0.325
'[11:30:25.438]',-0.325
'[11:30:25.445]',-0.335
'[11:30:25.453]',-0.315
'[11:30:25.461]',-0.305
'[11:30:25.469]',-0.305
'[11:30:25.477]',-0.285
'[11:30:25.484]',-0.295
'[11:30:25.492]',-0.265
'[11:30:25.500]',-0.245
'[11:30:25.508]',-0.235
'[11:30:25.516]',-0.215
'[11:30:25.523]',-0.205
'[11:30:25.531]',-0.155
'[11:30:25.539]',-0.135
'[11:30:25.547]',-0.095
'[11:30:25.555]',-0.045
'[11:30:25.563]',0.005
'[11:30:25.570]',0.045
'[11:30:25.578]',0.075
'[11:30:25.586]',0.095
'[11:30:25.594]',0.095
'[11:30:25.602]',0.095
'[11:30:25.609]',0.075
'[11:30:25.617]',0.025
'[11:30:25.625]',-0.035
'[11:30:25.633]',-0.095
'[11:30:25.641]',-0.145
'[11:30:25.648]',-0.205
'[11:30:25.656]',-0.205
'[11:30:25.664]',-0.215
'[11:30:25.672]',-0.205
'[11:30:25.680]',-0.215
'[11:30:25.688]',-0.205
'[11:30:25.695]',-0.225
'[11:30:25.703]',-0.215
'[11:30:25.711]',-0.215
'[11:30:25.719]',-0.205
'[11:30:25.727]',-0.185
'[11:30:25.734]',-0.165
'[11:30:25.742]',-0.145
'[11:30:25.750]',-0.105
'[11:30:25.758]',-0.075
'[11:30:25.766]',-0.025
'[11:30:25.773]',0.015
'[11:30:25.781]',0.005
'[11:30:25.789]',0.015
'[11:30:25.797]',-0.035
'[11:30:25.805]',-0.055
'[11:30:25.813]',-0.085
'[11:30:25.820]',-0.145
'[11:30:25.828]',-0.225
'[11:30:25.836]',-0.265
'[11:30:25.844]',-0.275
'[11:30:25.852]',-0.255
'[11:30:25.859]',-0.255
'[11:30:25.867]',-0.385
'[11:30:25.875]',-0.625
'[11:30:25.883]',-0.565
'[11:30:25.891]',-0.025
'[11:30:25.898]',0.515
'[11:30:25.906]',0.475
'[11:30:25.914]',-0.045
'[11:30:25.922]',-0.375
'[11:30:25.930]',-0.385
'[11:30:25.938]',-0.315
'[11:30:25.945]',-0.255
'[11:30:25.953]',-0.235
'[11:30:25.961]',-0.235
'[11:30:25.969]',-0.225
'[11:30:25.977]',-0.225
'[11:30:25.984]',-0.225
'[11:30:25.992]',-0.215
'[11:30:26.000]',-0.205
'[11:30:26.008]',-0.195
'[11:30:26.016]',-0.195
'[11:30:26.023]',-0.175
'[11:30:26.031]',-0.185
'[11:30:26.039]',-0.145
'[11:30:26.047]',-0.125
'[11:30:26.055]',-0.105
'[11:30:26.063]',-0.075
'[11:30:26.070]',-0.055
'[11:30:26.078]',-0.015
'[11:30:26.086]',0.025
'[11:30:26.094]',0.055
'[11:30:26.102]',0.095
'[11:30:26.109]',0.125
'[11:30:26.117]',0.145
'[11:30:26.125]',0.155
'[11:30:26.133]',0.145
'[11:30:26.141]',0.095
'[11:30:26.148]',0.025
'[11:30:26.156]',-0.025
'[11:30:26.164]',-0.065
'[11:30:26.172]',-0.115
'[11:30:26.180]',-0.145
'[11:30:26.188]',-0.145
'[11:30:26.195]',-0.175
'[11:30:26.203]',-0.175
'[11:30:26.211]',-0.195
'[11:30:26.219]',-0.185
'[11:30:26.227]',-0.185
'[11:30:26.234]',-0.165
'[11:30:26.242]',-0.155
'[11:30:26.250]',-0.145
'[11:30:26.258]',-0.125
'[11:30:26.266]',-0.105
'[11:30:26.273]',-0.085
'[11:30:26.281]',-0.055
'[11:30:26.289]',0.015
'[11:30:26.297]',0.045
'[11:30:26.305]',0.065
'[11:30:26.313]',0.045
'[11:30:26.320]',0.005
'[11:30:26.328]',-0.035
'[11:30:26.336]',-0.095
'[11:30:26.344]',-0.155
'[11:30:26.352]',-0.205
'[11:30:26.359]',-0.255
'[11:30:26.367]',-0.255
'[11:30:26.375]',-0.245
'[11:30:26.383]',-0.245
'[11:30:26.391]',-0.345
'[11:30:26.398]',-0.655
'[11:30:26.406]',-0.645
'[11:30:26.414]',-0.155
'[11:30:26.422]',0.485
'[11:30:26.430]',0.545
'[11:30:26.438]',0.005
'[11:30:26.445]',-0.435
'[11:30:26.453]',-0.435
'[11:30:26.461]',-0.405
'[11:30:26.469]',-0.295
'[11:30:26.477]',-0.275
'[11:30:26.484]',-0.265
'[11:30:26.492]',-0.255
'[11:30:26.500]',-0.265
'[11:30:26.508]',-0.235
'[11:30:26.516]',-0.205
'[11:30:26.523]',-0.255
'[11:30:26.531]',-0.255
'[11:30:26.539]',-0.215
'[11:30:26.547]',-0.195
'[11:30:26.555]',-0.155
'[11:30:26.563]',-0.175
'[11:30:26.570]',-0.135
'[11:30:26.578]',-0.145
'[11:30:26.586]',-0.105
'[11:30:26.594]',-0.065
'[11:30:26.602]',-0.015
'[11:30:26.609]',0.045
'[11:30:26.617]',0.105
'[11:30:26.625]',0.115
'[11:30:26.633]',0.125
'[11:30:26.641]',0.145
'[11:30:26.648]',0.155
'[11:30:26.656]',0.145
'[11:30:26.664]',0.095
'[11:30:26.672]',0.065
'[11:30:26.680]',-0.025
'[11:30:26.688]',-0.055
'[11:30:26.695]',-0.115
'[11:30:26.703]',-0.135
'[11:30:26.711]',-0.165
'[11:30:26.719]',-0.195
'[11:30:26.727]',-0.195
'[11:30:26.734]',-0.215
'[11:30:26.742]',-0.185
'[11:30:26.750]',-0.185
'[11:30:26.758]',-0.185
'[11:30:26.766]',-0.205
'[11:30:26.773]',-0.195
'[11:30:26.781]',-0.175
'[11:30:26.789]',-0.145
'[11:30:26.797]',-0.135
'[11:30:26.805]',-0.095
'[11:30:26.813]',-0.075
'[11:30:26.820]',-0.005
'[11:30:26.828]',0.015
'[11:30:26.836]',-0.005
'[11:30:26.844]',-0.035
'[11:30:26.852]',-0.065
'[11:30:26.859]',-0.115
'[11:30:26.867]',-0.175
'[11:30:26.875]',-0.235
'[11:30:26.883]',-0.275
'[11:30:26.891]',-0.315
'[11:30:26.898]',-0.325
'[11:30:26.906]',-0.295
'[11:30:26.914]',-0.345
'[11:30:26.922]',-0.625
'[11:30:26.930]',-0.685
'[11:30:26.938]',-0.235
'[11:30:26.945]',0.415
'[11:30:26.953]',0.665
'[11:30:26.961]',0.195
'[11:30:26.969]',-0.315
'[11:30:26.977]',-0.495
'[11:30:26.984]',-0.495
'[11:30:26.992]',-0.395
'[11:30:27.000]',-0.335
'[11:30:27.008]',-0.305
'[11:30:27.016]',-0.315
'[11:30:27.023]',-0.335
'[11:30:27.031]',-0.325
'[11:30:27.039]',-0.305
'[11:30:27.047]',-0.285
'[11:30:27.055]',-0.265
'[11:30:27.063]',-0.255
'[11:30:27.070]',-0.245
'[11:30:27.078]',-0.245
'[11:30:27.086]',-0.245
'[11:30:27.094]',-0.225
'[11:30:27.102]',-0.175
'[11:30:27.109]',-0.145
'[11:30:27.117]',-0.105
'[11:30:27.125]',-0.065
'[11:30:27.133]',-0.015
'[11:30:27.141]',0.025
'[11:30:27.148]',0.045
'[11:30:27.156]',0.075
'[11:30:27.164]',0.115
'[11:30:27.172]',0.145
'[11:30:27.180]',0.105
'[11:30:27.188]',0.105
'[11:30:27.195]',0.035
'[11:30:27.203]',-0.025
'[11:30:27.211]',-0.115
'[11:30:27.219]',-0.155
'[11:30:27.227]',-0.175
'[11:30:27.234]',-0.195
'[11:30:27.242]',-0.225
'[11:30:27.250]',-0.215
'[11:30:27.258]',-0.195
'[11:30:27.266]',-0.215
'[11:30:27.273]',-0.225
'[11:30:27.281]',-0.225
'[11:30:27.289]',-0.205
'[11:30:27.297]',-0.205
'[11:30:27.305]',-0.185
'[11:30:27.313]',-0.155
'[11:30:27.320]',-0.135
'[11:30:27.328]',-0.105
'[11:30:27.336]',-0.075
'[11:30:27.344]',-0.025
'[11:30:27.352]',0.015
'[11:30:27.359]',0.035
'[11:30:27.367]',0.025
'[11:30:27.375]',0.015
'[11:30:27.383]',-0.015
'[11:30:27.391]',-0.075
'[11:30:27.398]',-0.135
'[11:30:27.406]',-0.195
'[11:30:27.414]',-0.225
'[11:30:27.422]',-0.235
'[11:30:27.430]',-0.255
'[11:30:27.438]',-0.235
'[11:30:27.445]',-0.365
'[11:30:27.453]',-0.645
'[11:30:27.461]',-0.595
'[11:30:27.469]',-0.075
'[11:30:27.477]',0.605
'[11:30:27.484]',0.625
'[11:30:27.492]',0.095
'[11:30:27.500]',-0.325
'[11:30:27.508]',-0.415
'[11:30:27.516]',-0.395
'[11:30:27.523]',-0.305
'[11:30:27.531]',-0.275
'[11:30:27.539]',-0.255
'[11:30:27.547]',-0.255
'[11:30:27.555]',-0.265
'[11:30:27.563]',-0.235
'[11:30:27.570]',-0.215
'[11:30:27.578]',-0.205
'[11:30:27.586]',-0.205
'[11:30:27.594]',-0.205
'[11:30:27.602]',-0.175
'[11:30:27.609]',-0.145
'[11:30:27.617]',-0.135
'[11:30:27.625]',-0.095
'[11:30:27.633]',-0.075
'[11:30:27.641]',-0.055
'[11:30:27.648]',-0.035
'[11:30:27.656]',0.015
'[11:30:27.664]',0.055
'[11:30:27.672]',0.105
'[11:30:27.680]',0.155
'[11:30:27.688]',0.185
'[11:30:27.695]',0.195
'[11:30:27.703]',0.205
'[11:30:27.711]',0.175
'[11:30:27.719]',0.135
'[11:30:27.727]',0.085
'[11:30:27.734]',0.045
'[11:30:27.742]',-0.005
'[11:30:27.750]',-0.055
'[11:30:27.758]',-0.075
'[11:30:27.766]',-0.095
'[11:30:27.773]',-0.115
'[11:30:27.781]',-0.105
'[11:30:27.789]',-0.095
'[11:30:27.797]',-0.095
'[11:30:27.805]',-0.085
'[11:30:27.813]',-0.105
'[11:30:27.820]',-0.095
'[11:30:27.828]',-0.085
'[11:30:27.836]',-0.055
'[11:30:27.844]',-0.035
'[11:30:27.852]',-0.015
'[11:30:27.859]',0.015
'[11:30:27.867]',0.075
'[11:30:27.875]',0.125
'[11:30:27.883]',0.125
'[11:30:27.891]',0.135
'[11:30:27.898]',0.095
'[11:30:27.906]',0.035
'[11:30:27.914]',0.005
'[11:30:27.922]',-0.045
'[11:30:27.930]',-0.095
'[11:30:27.938]',-0.135
'[11:30:27.945]',-0.165
'[11:30:27.953]',-0.175
'[11:30:27.961]',-0.175
'[11:30:27.969]',-0.275
'[11:30:27.977]',-0.545
'[11:30:27.984]',-0.565
'[11:30:27.992]',-0.055
'[11:30:28.000]',0.585
'[11:30:28.008]',0.665
'[11:30:28.016]',0.105
'[11:30:28.023]',-0.295
'[11:30:28.031]',-0.335
'[11:30:28.039]',-0.255
'[11:30:28.047]',-0.195
'[11:30:28.055]',-0.165
'[11:30:28.063]',-0.165
'[11:30:28.070]',-0.165
'[11:30:28.078]',-0.155
'[11:30:28.086]',-0.145
'[11:30:28.094]',-0.145
'[11:30:28.102]',-0.135
'[11:30:28.109]',-0.125
'[11:30:28.117]',-0.105
'[11:30:28.125]',-0.085
'[11:30:28.133]',-0.085
'[11:30:28.141]',-0.075
'[11:30:28.148]',-0.045
'[11:30:28.156]',-0.015
'[11:30:28.164]',0.015
'[11:30:28.172]',0.035
'[11:30:28.180]',0.085
'[11:30:28.188]',0.155
'[11:30:28.195]',0.185
'[11:30:28.203]',0.215
'[11:30:28.211]',0.225
'[11:30:28.219]',0.245
'[11:30:28.227]',0.265
'[11:30:28.234]',0.235
'[11:30:28.242]',0.215
'[11:30:28.250]',0.155
'[11:30:28.258]',0.095
'[11:30:28.266]',0.035
'[11:30:28.273]',-0.015
'[11:30:28.281]',-0.045
'[11:30:28.289]',-0.055
'[11:30:28.297]',-0.075
'[11:30:28.305]',-0.045
'[11:30:28.313]',-0.055
'[11:30:28.320]',-0.055
'[11:30:28.328]',-0.065
'[11:30:28.336]',-0.055
'[11:30:28.344]',-0.075
'[11:30:28.352]',-0.055
'[11:30:28.359]',-0.035
'[11:30:28.367]',0.005
'[11:30:28.375]',0.025
'[11:30:28.383]',0.045
'[11:30:28.391]',0.065
'[11:30:28.398]',0.115
'[11:30:28.406]',0.165
'[11:30:28.414]',0.165
'[11:30:28.422]',0.165
'[11:30:28.430]',0.115
'[11:30:28.438]',0.095
'[11:30:28.445]',0.045
'[11:30:28.453]',-0.035
'[11:30:28.461]',-0.085
'[11:30:28.469]',-0.135
'[11:30:28.477]',-0.145
'[11:30:28.484]',-0.145
'[11:30:28.492]',-0.135
'[11:30:28.500]',-0.305
'[11:30:28.508]',-0.535
'[11:30:28.516]',-0.455
'[11:30:28.523]',0.115
'[11:30:28.531]',0.685
'[11:30:28.539]',0.565
'[11:30:28.547]',-0.015
'[11:30:28.555]',-0.315
'[11:30:28.563]',-0.325
'[11:30:28.570]',-0.235
'[11:30:28.578]',-0.165
'[11:30:28.586]',-0.155
'[11:30:28.594]',-0.155
'[11:30:28.602]',-0.155
'[11:30:28.609]',-0.145
'[11:30:28.617]',-0.125
'[11:30:28.625]',-0.115
'[11:30:28.633]',-0.105
'[11:30:28.641]',-0.105
'[11:30:28.648]',-0.115
'[11:30:28.656]',-0.095
'[11:30:28.664]',-0.075
'[11:30:28.672]',-0.055
'[11:30:28.680]',-0.015
'[11:30:28.688]',0.025
'[11:30:28.695]',0.015
'[11:30:28.703]',0.055
'[11:30:28.711]',0.085
'[11:30:28.719]',0.135
'[11:30:28.727]',0.195
'[11:30:28.734]',0.225
'[11:30:28.742]',0.245
'[11:30:28.750]',0.275
'[11:30:28.758]',0.275
'[11:30:28.766]',0.245
'[11:30:28.773]',0.215
'[11:30:28.781]',0.155
'[11:30:28.789]',0.095
'[11:30:28.797]',0.015
'[11:30:28.805]',-0.035
'[11:30:28.813]',-0.035
'[11:30:28.820]',-0.055
'[11:30:28.828]',-0.065
'[11:30:28.836]',-0.085
'[11:30:28.844]',-0.085
'[11:30:28.852]',-0.075
'[11:30:28.859]',-0.095
'[11:30:28.867]',-0.095
'[11:30:28.875]',-0.075
'[11:30:28.883]',-0.075
'[11:30:28.891]',-0.065
'[11:30:28.898]',-0.055
'[11:30:28.906]',-0.035
'[11:30:28.914]',-0.035
'[11:30:28.922]',0.005
'[11:30:28.930]',0.055
'[11:30:28.938]',0.125
'[11:30:28.945]',0.115
'[11:30:28.953]',0.105
'[11:30:28.961]',0.065
'[11:30:28.969]',0.025
'[11:30:28.977]',-0.005
'[11:30:28.984]',-0.055
'[11:30:28.992]',-0.115
'[11:30:29.000]',-0.175
'[11:30:29.008]',-0.195
'[11:30:29.016]',-0.205
'[11:30:29.023]',-0.195
'[11:30:29.031]',-0.255
'[11:30:29.039]',-0.505
'[11:30:29.047]',-0.595
'[11:30:29.055]',-0.205
'[11:30:29.063]',0.435
'[11:30:29.070]',0.705
'[11:30:29.078]',0.285
'[11:30:29.086]',-0.215
'[11:30:29.094]',-0.395
'[11:30:29.102]',-0.365
'[11:30:29.109]',-0.305
'[11:30:29.117]',-0.225
'[11:30:29.125]',-0.215
'[11:30:29.133]',-0.225
'[11:30:29.141]',-0.205
'[11:30:29.148]',-0.205
'[11:30:29.156]',-0.215
'[11:30:29.164]',-0.185
'[11:30:29.172]',-0.155
'[11:30:29.180]',-0.165
'[11:30:29.188]',-0.145
'[11:30:29.195]',-0.135
'[11:30:29.203]',-0.125
'[11:30:29.211]',-0.125
'[11:30:29.219]',-0.105
'[11:30:29.227]',-0.065
'[11:30:29.234]',-0.025
'[11:30:29.242]',0.045
'[11:30:29.250]',0.065
'[11:30:29.258]',0.105
'[11:30:29.266]',0.145
'[11:30:29.273]',0.165
'[11:30:29.281]',0.165
'[11:30:29.289]',0.195
'[11:30:29.297]',0.175
'[11:30:29.305]',0.155
'[11:30:29.313]',0.095
'[11:30:29.320]',0.045
'[11:30:29.328]',-0.025
'[11:30:29.336]',-0.085
'[11:30:29.344]',-0.125
'[11:30:29.352]',-0.145
'[11:30:29.359]',-0.145
'[11:30:29.367]',-0.165
'[11:30:29.375]',-0.155
'[11:30:29.383]',-0.155
'[11:30:29.391]',-0.155
'[11:30:29.398]',-0.175
'[11:30:29.406]',-0.165
'[11:30:29.414]',-0.175
'[11:30:29.422]',-0.165
'[11:30:29.430]',-0.145
'[11:30:29.438]',-0.105
'[11:30:29.445]',-0.075
'[11:30:29.453]',-0.045
'[11:30:29.461]',-0.025
'[11:30:29.469]',0.055
'[11:30:29.477]',0.065
'[11:30:29.484]',0.055
'[11:30:29.492]',0.035
'[11:30:29.500]',0.015
'[11:30:29.508]',-0.025
'[11:30:29.516]',-0.095
'[11:30:29.523]',-0.175
'[11:30:29.531]',-0.255
'[11:30:29.539]',-0.245
'[11:30:29.547]',-0.255
'[11:30:29.555]',-0.265
'[11:30:29.563]',-0.295
'[11:30:29.570]',-0.545
'[11:30:29.578]',-0.695
'[11:30:29.586]',-0.355
'[11:30:29.594]',0.385
'[11:30:29.602]',0.865
'[11:30:29.609]',0.355
'[11:30:29.617]',-0.245
'[11:30:29.625]',-0.445
'[11:30:29.633]',-0.415
'[11:30:29.641]',-0.345
'[11:30:29.648]',-0.275
'[11:30:29.656]',-0.255
'[11:30:29.664]',-0.235
'[11:30:29.672]',-0.215
'[11:30:29.680]',-0.225
'[11:30:29.688]',-0.205
'[11:30:29.695]',-0.215
'[11:30:29.703]',-0.185
'[11:30:29.711]',-0.195
'[11:30:29.719]',-0.185
'[11:30:29.727]',-0.155
'[11:30:29.734]',-0.145
'[11:30:29.742]',-0.115
'[11:30:29.750]',-0.095
'[11:30:29.758]',-0.045
'[11:30:29.766]',-0.035
'[11:30:29.773]',0.015
'[11:30:29.781]',0.055
'[11:30:29.789]',0.115
'[11:30:29.797]',0.125
'[11:30:29.805]',0.175
'[11:30:29.813]',0.195
'[11:30:29.820]',0.215
'[11:30:29.828]',0.205
'[11:30:29.836]',0.175
'[11:30:29.844]',0.125
'[11:30:29.852]',0.085
'[11:30:29.859]',0.025
'[11:30:29.867]',-0.025
'[11:30:29.875]',-0.035
'[11:30:29.883]',-0.065
'[11:30:29.891]',-0.085
'[11:30:29.898]',-0.095
'[11:30:29.906]',-0.115
'[11:30:29.914]',-0.095
'[11:30:29.922]',-0.095
'[11:30:29.930]',-0.095
'[11:30:29.938]',-0.065
'[11:30:29.945]',-0.095
'[11:30:29.953]',-0.085
'[11:30:29.961]',-0.055
'[11:30:29.969]',-0.025
'[11:30:29.977]',-0.015
'[11:30:29.984]',0.035
'[11:30:29.992]',0.085
'[11:30:30.000]',0.125
'[11:30:30.008]',0.125
'[11:30:30.016]',0.125
'[11:30:30.023]',0.075
'[11:30:30.031]',0.055
'[11:30:30.039]',0.015
'[11:30:30.047]',-0.045
'[11:30:30.055]',-0.095
'[11:30:30.063]',-0.145
'[11:30:30.070]',-0.155
'[11:30:30.078]',-0.165
'[11:30:30.086]',-0.165
'[11:30:30.094]',-0.235
'[11:30:30.102]',-0.515
'[11:30:30.109]',-0.595
'[11:30:30.117]',-0.155
'[11:30:30.125]',0.555
'[11:30:30.133]',0.755
'[11:30:30.141]',0.135
'[11:30:30.148]',-0.345
'[11:30:30.156]',-0.375
'[11:30:30.164]',-0.295
'[11:30:30.172]',-0.215
'[11:30:30.180]',-0.195
'[11:30:30.188]',-0.175
'[11:30:30.195]',-0.165
'[11:30:30.203]',-0.165
'[11:30:30.211]',-0.175
'[11:30:30.219]',-0.145
'[11:30:30.227]',-0.125
'[11:30:30.234]',-0.125
'[11:30:30.242]',-0.105
'[11:30:30.250]',-0.105
'[11:30:30.258]',-0.085
'[11:30:30.266]',-0.075
'[11:30:30.273]',-0.065
'[11:30:30.281]',-0.055
'[11:30:30.289]',-0.005
'[11:30:30.297]',0.015
'[11:30:30.305]',0.075
'[11:30:30.313]',0.105
'[11:30:30.320]',0.155
'[11:30:30.328]',0.195
'[11:30:30.336]',0.215
'[11:30:30.344]',0.235
'[11:30:30.352]',0.265
'[11:30:30.359]',0.255
'[11:30:30.367]',0.215
'[11:30:30.375]',0.185
'[11:30:30.383]',0.115
'[11:30:30.391]',0.055
'[11:30:30.398]',0.015
'[11:30:30.406]',-0.035
'[11:30:30.414]',-0.045
'[11:30:30.422]',-0.065
'[11:30:30.430]',-0.085
'[11:30:30.438]',-0.065
'[11:30:30.445]',-0.075
'[11:30:30.453]',-0.055
'[11:30:30.461]',-0.095
'[11:30:30.469]',-0.075
'[11:30:30.477]',-0.065
'[11:30:30.484]',-0.065
'[11:30:30.492]',-0.035
'[11:30:30.500]',-0.015
'[11:30:30.508]',0.005
'[11:30:30.516]',0.035
'[11:30:30.523]',0.065
'[11:30:30.531]',0.115
'[11:30:30.539]',0.165
'[11:30:30.547]',0.145
'[11:30:30.555]',0.145
'[11:30:30.563]',0.095
'[11:30:30.570]',0.055
'[11:30:30.578]',0.015
'[11:30:30.586]',-0.065
'[11:30:30.594]',-0.125
'[11:30:30.602]',-0.145
'[11:30:30.609]',-0.145
'[11:30:30.617]',-0.155
'[11:30:30.625]',-0.135
'[11:30:30.633]',-0.295
'[11:30:30.641]',-0.595
'[11:30:30.648]',-0.515
'[11:30:30.656]',0.095
'[11:30:30.664]',0.725
'[11:30:30.672]',0.535
'[11:30:30.680]',-0.095
'[11:30:30.688]',-0.385
'[11:30:30.695]',-0.335
'[11:30:30.703]',-0.245
'[11:30:30.711]',-0.185
'[11:30:30.719]',-0.155
'[11:30:30.727]',-0.155
'[11:30:30.734]',-0.165
'[11:30:30.742]',-0.145
'[11:30:30.750]',-0.125
'[11:30:30.758]',-0.125
'[11:30:30.766]',-0.125
'[11:30:30.773]',-0.125
'[11:30:30.781]',-0.085
'[11:30:30.789]',-0.085
'[11:30:30.797]',-0.065
'[11:30:30.805]',-0.025
'[11:30:30.813]',-0.005
'[11:30:30.820]',0.005
'[11:30:30.828]',0.035
'[11:30:30.836]',0.075
'[11:30:30.844]',0.135
'[11:30:30.852]',0.175
'[11:30:30.859]',0.185
'[11:30:30.867]',0.245
'[11:30:30.875]',0.265
'[11:30:30.883]',0.285
'[11:30:30.891]',0.275
'[11:30:30.898]',0.235
'[11:30:30.906]',0.195
'[11:30:30.914]',0.155
'[11:30:30.922]',0.095
'[11:30:30.930]',0.035
'[11:30:30.938]',-0.015
'[11:30:30.945]',-0.045
'[11:30:30.953]',-0.055
'[11:30:30.961]',-0.085
'[11:30:30.969]',-0.095
'[11:30:30.977]',-0.085
'[11:30:30.984]',-0.095
'[11:30:30.992]',-0.075
'[11:30:31.000]',-0.075
'[11:30:31.008]',-0.095
'[11:30:31.016]',-0.095
'[11:30:31.023]',-0.075
'[11:30:31.031]',-0.055
'[11:30:31.039]',-0.045
'[11:30:31.047]',-0.025
'[11:30:31.055]',0.025
'[11:30:31.063]',0.075
'[11:30:31.070]',0.135
'[11:30:31.078]',0.115
'[11:30:31.086]',0.105
'[11:30:31.094]',0.085
'[11:30:31.102]',0.025
'[11:30:31.109]',-0.025
'[11:30:31.117]',-0.075
'[11:30:31.125]',-0.155
'[11:30:31.133]',-0.205
'[11:30:31.141]',-0.205
'[11:30:31.148]',-0.205
'[11:30:31.156]',-0.195
'[11:30:31.164]',-0.335
'[11:30:31.172]',-0.645
'[11:30:31.180]',-0.535
'[11:30:31.188]',0.065
'[11:30:31.195]',0.735
'[11:30:31.203]',0.615
'[11:30:31.211]',0.075
'[11:30:31.219]',-0.345
'[11:30:31.227]',-0.415
'[11:30:31.234]',-0.395
'[11:30:31.242]',-0.285
'[11:30:31.250]',-0.225
'[11:30:31.258]',-0.225
'[11:30:31.266]',-0.235
'[11:30:31.273]',-0.215
'[11:30:31.281]',-0.205
'[11:30:31.289]',-0.175
'[11:30:31.297]',-0.175
'[11:30:31.305]',-0.195
'[11:30:31.313]',-0.165
'[11:30:31.320]',-0.135
'[11:30:31.328]',-0.135
'[11:30:31.336]',-0.115
'[11:30:31.344]',-0.115
'[11:30:31.352]',-0.085
'[11:30:31.359]',-0.055
'[11:30:31.367]',-0.035
'[11:30:31.375]',0.045
'[11:30:31.383]',0.085
'[11:30:31.391]',0.125
'[11:30:31.398]',0.135
'[11:30:31.406]',0.175
'[11:30:31.414]',0.195
'[11:30:31.422]',0.215
'[11:30:31.430]',0.205
'[11:30:31.438]',0.185
'[11:30:31.445]',0.125
'[11:30:31.453]',0.045
'[11:30:31.461]',-0.025
'[11:30:31.469]',-0.085
'[11:30:31.477]',-0.095
'[11:30:31.484]',-0.145
'[11:30:31.492]',-0.135
'[11:30:31.500]',-0.115
'[11:30:31.508]',-0.145
'[11:30:31.516]',-0.145
'[11:30:31.523]',-0.155
'[11:30:31.531]',-0.155
'[11:30:31.539]',-0.135
'[11:30:31.547]',-0.135
'[11:30:31.555]',-0.135
'[11:30:31.563]',-0.105
'[11:30:31.570]',-0.075
'[11:30:31.578]',-0.055
'[11:30:31.586]',-0.035
'[11:30:31.594]',0.005
'[11:30:31.602]',0.085
'[11:30:31.609]',0.085
'[11:30:31.617]',0.095
'[11:30:31.625]',0.085
'[11:30:31.633]',0.035
'[11:30:31.641]',-0.025
'[11:30:31.648]',-0.085
'[11:30:31.656]',-0.155
'[11:30:31.664]',-0.185
'[11:30:31.672]',-0.195
'[11:30:31.680]',-0.195
'[11:30:31.688]',-0.175
'[11:30:31.695]',-0.295
'[11:30:31.703]',-0.645
'[11:30:31.711]',-0.625
'[11:30:31.719]',-0.055
'[11:30:31.727]',0.765
'[11:30:31.734]',0.795
'[11:30:31.742]',0.195
'[11:30:31.750]',-0.295
'[11:30:31.758]',-0.405
'[11:30:31.766]',-0.355
'[11:30:31.773]',-0.265
'[11:30:31.781]',-0.205
'[11:30:31.789]',-0.175
'[11:30:31.797]',-0.185
'[11:30:31.805]',-0.175
'[11:30:31.813]',-0.155
'[11:30:31.820]',-0.135
'[11:30:31.828]',-0.135
'[11:30:31.836]',-0.145
'[11:30:31.844]',-0.135
'[11:30:31.852]',-0.105
'[11:30:31.859]',-0.085
'[11:30:31.867]',-0.065
'[11:30:31.875]',-0.045
'[11:30:31.883]',-0.015
'[11:30:31.891]',0.005
'[11:30:31.898]',0.025
'[11:30:31.906]',0.095
'[11:30:31.914]',0.155
'[11:30:31.922]',0.195
'[11:30:31.930]',0.225
'[11:30:31.938]',0.265
'[11:30:31.945]',0.285
'[11:30:31.953]',0.295
'[11:30:31.961]',0.275
'[11:30:31.969]',0.245
'[11:30:31.977]',0.195
'[11:30:31.984]',0.135
'[11:30:31.992]',0.075
'[11:30:32.000]',0.015
'[11:30:32.008]',0.005
'[11:30:32.016]',-0.035
'[11:30:32.023]',-0.035
'[11:30:32.031]',-0.035
'[11:30:32.039]',-0.025
'[11:30:32.047]',-0.025
'[11:30:32.055]',-0.005
'[11:30:32.063]',-0.025
'[11:30:32.070]',-0.035
'[11:30:32.078]',-0.035
'[11:30:32.086]',-0.015
'[11:30:32.094]',0.015
'[11:30:32.102]',0.045
'[11:30:32.109]',0.065
'[11:30:32.117]',0.105
'[11:30:32.125]',0.165
'[11:30:32.133]',0.205
'[11:30:32.141]',0.195
'[11:30:32.148]',0.175
'[11:30:32.156]',0.145
'[11:30:32.164]',0.125
'[11:30:32.172]',0.075
'[11:30:32.180]',0.025
'[11:30:32.188]',-0.055
'[11:30:32.195]',-0.115
'[11:30:32.203]',-0.105
'[11:30:32.211]',-0.135
'[11:30:32.219]',-0.115
'[11:30:32.227]',-0.285
'[11:30:32.234]',-0.595
'[11:30:32.242]',-0.435
'[11:30:32.250]',0.205
'[11:30:32.258]',0.855
'[11:30:32.266]',0.635
'[11:30:32.273]',-0.045
'[11:30:32.281]',-0.365
'[11:30:32.289]',-0.305
'[11:30:32.297]',-0.195
'[11:30:32.305]',-0.105
'[11:30:32.313]',-0.105
'[11:30:32.320]',-0.115
'[11:30:32.328]',-0.125
'[11:30:32.336]',-0.115
'[11:30:32.344]',-0.105
'[11:30:32.352]',-0.065
'[11:30:32.359]',-0.095
'[11:30:32.367]',-0.075
'[11:30:32.375]',-0.055
'[11:30:32.383]',-0.035
'[11:30:32.391]',-0.045
'[11:30:32.398]',-0.015
'[11:30:32.406]',0.005
'[11:30:32.414]',0.015
'[11:30:32.422]',0.065
'[11:30:32.430]',0.125
'[11:30:32.438]',0.175
'[11:30:32.445]',0.205
'[11:30:32.453]',0.235
'[11:30:32.461]',0.265
'[11:30:32.469]',0.285
'[11:30:32.477]',0.315
'[11:30:32.484]',0.335
'[11:30:32.492]',0.325
'[11:30:32.500]',0.285
'[11:30:32.508]',0.235
'[11:30:32.516]',0.145
'[11:30:32.523]',0.085
'[11:30:32.531]',0.055
'[11:30:32.539]',0.045
'[11:30:32.547]',0.005
'[11:30:32.555]',-0.015
'[11:30:32.563]',0.005
'[11:30:32.570]',-0.015
'[11:30:32.578]',-0.015
'[11:30:32.586]',-0.035
'[11:30:32.594]',-0.025
'[11:30:32.602]',-0.005
'[11:30:32.609]',-0.015
'[11:30:32.617]',-0.015
'[11:30:32.625]',0.025
'[11:30:32.633]',0.045
'[11:30:32.641]',0.075
'[11:30:32.648]',0.085
'[11:30:32.656]',0.115
'[11:30:32.664]',0.175
'[11:30:32.672]',0.205
'[11:30:32.680]',0.195
'[11:30:32.688]',0.185
'[11:30:32.695]',0.135
'[11:30:32.703]',0.085
'[11:30:32.711]',0.015
'[11:30:32.719]',-0.045
'[11:30:32.727]',-0.095
'[11:30:32.734]',-0.105
'[11:30:32.742]',-0.115
'[11:30:32.750]',-0.085
'[11:30:32.758]',-0.135
'[11:30:32.766]',-0.435
'[11:30:32.773]',-0.585
'[11:30:32.781]',-0.245
'[11:30:32.789]',0.515
'[11:30:32.797]',0.865
'[11:30:32.805]',0.315
'[11:30:32.813]',-0.225
'[11:30:32.820]',-0.355
'[11:30:32.828]',-0.285
'[11:30:32.836]',-0.195
'[11:30:32.844]',-0.145
'[11:30:32.852]',-0.145
'[11:30:32.859]',-0.125
'[11:30:32.867]',-0.125
'[11:30:32.875]',-0.115
'[11:30:32.883]',-0.115
'[11:30:32.891]',-0.075
'[11:30:32.898]',-0.095
'[11:30:32.906]',-0.075
'[11:30:32.914]',-0.095
'[11:30:32.922]',-0.065
'[11:30:32.930]',-0.045
'[11:30:32.938]',-0.025
'[11:30:32.945]',-0.015
'[11:30:32.953]',0.015
'[11:30:32.961]',0.055
'[11:30:32.969]',0.085
'[11:30:32.977]',0.145
'[11:30:32.984]',0.175
'[11:30:32.992]',0.235
'[11:30:33.000]',0.265
'[11:30:33.008]',0.275
'[11:30:33.016]',0.275
'[11:30:33.023]',0.235
'[11:30:33.031]',0.235
'[11:30:33.039]',0.205
'[11:30:33.047]',0.105
'[11:30:33.055]',0.045
'[11:30:33.063]',-0.015
'[11:30:33.070]',-0.035
'[11:30:33.078]',-0.075
'[11:30:33.086]',-0.105
'[11:30:33.094]',-0.095
'[11:30:33.102]',-0.085
'[11:30:33.109]',-0.115
'[11:30:33.117]',-0.085
'[11:30:33.125]',-0.105
'[11:30:33.133]',-0.115
'[11:30:33.141]',-0.115
'[11:30:33.148]',-0.115
'[11:30:33.156]',-0.095
'[11:30:33.164]',-0.065
'[11:30:33.172]',-0.055
'[11:30:33.180]',0.005
'[11:30:33.188]',0.035
'[11:30:33.195]',0.095
'[11:30:33.203]',0.085
'[11:30:33.211]',0.075
'[11:30:33.219]',0.065
'[11:30:33.227]',0.035
'[11:30:33.234]',-0.005
'[11:30:33.242]',-0.065
'[11:30:33.250]',-0.145
'[11:30:33.258]',-0.205
'[11:30:33.266]',-0.225
'[11:30:33.273]',-0.235
'[11:30:33.281]',-0.255
'[11:30:33.289]',-0.235
'[11:30:33.297]',-0.505
'[11:30:33.305]',-0.705
'[11:30:33.313]',-0.435
'[11:30:33.320]',0.335
'[11:30:33.328]',0.905
'[11:30:33.336]',0.475
'[11:30:33.344]',-0.115
'[11:30:33.352]',-0.415
'[11:30:33.359]',-0.415
'[11:30:33.367]',-0.375
'[11:30:33.375]',-0.255
'[11:30:33.383]',-0.215
'[11:30:33.391]',-0.215
'[11:30:33.398]',-0.235
'[11:30:33.406]',-0.245
'[11:30:33.414]',-0.215
'[11:30:33.422]',-0.185
'[11:30:33.430]',-0.195
'[11:30:33.438]',-0.155
'[11:30:33.445]',-0.145
'[11:30:33.453]',-0.145
'[11:30:33.461]',-0.145
'[11:30:33.469]',-0.125
'[11:30:33.477]',-0.095
'[11:30:33.484]',-0.065
'[11:30:33.492]',-0.025
'[11:30:33.500]',0.015
'[11:30:33.508]',0.065
'[11:30:33.516]',0.085
'[11:30:33.523]',0.145
'[11:30:33.531]',0.155
'[11:30:33.539]',0.205
'[11:30:33.547]',0.205
'[11:30:33.555]',0.225
'[11:30:33.563]',0.205
'[11:30:33.570]',0.155
'[11:30:33.578]',0.105
'[11:30:33.586]',0.045
'[11:30:33.594]',-0.015
'[11:30:33.602]',-0.055
'[11:30:33.609]',-0.075
'[11:30:33.617]',-0.105
'[11:30:33.625]',-0.105
'[11:30:33.633]',-0.135
'[11:30:33.641]',-0.115
'[11:30:33.648]',-0.115
'[11:30:33.656]',-0.125
'[11:30:33.664]',-0.105
'[11:30:33.672]',-0.125
'[11:30:33.680]',-0.135
'[11:30:33.688]',-0.105
'[11:30:33.695]',-0.085
'[11:30:33.703]',-0.045
'[11:30:33.711]',-0.015
'[11:30:33.719]',-0.025
'[11:30:33.727]',0.045
'[11:30:33.734]',0.085
'[11:30:33.742]',0.095
'[11:30:33.750]',0.125
'[11:30:33.758]',0.075
'[11:30:33.766]',0.035
'[11:30:33.773]',-0.045
'[11:30:33.781]',-0.085
'[11:30:33.789]',-0.145
'[11:30:33.797]',-0.195
'[11:30:33.805]',-0.215
'[11:30:33.813]',-0.205
'[11:30:33.820]',-0.225
'[11:30:33.828]',-0.435
'[11:30:33.836]',-0.655
'[11:30:33.844]',-0.465
'[11:30:33.852]',0.255
'[11:30:33.859]',0.795
'[11:30:33.867]',0.365
'[11:30:33.875]',-0.215
'[11:30:33.883]',-0.425
'[11:30:33.891]',-0.345
'[11:30:33.898]',-0.275
'[11:30:33.906]',-0.225
'[11:30:33.914]',-0.245
'[11:30:33.922]',-0.215
'[11:30:33.930]',-0.215
'[11:30:33.938]',-0.205
'[11:30:33.945]',-0.205
'[11:30:33.953]',-0.205
'[11:30:33.961]',-0.205
'[11:30:33.969]',-0.195
'[11:30:33.977]',-0.205
'[11:30:33.984]',-0.165
'[11:30:33.992]',-0.125
'[11:30:34.000]',-0.115
'[11:30:34.008]',-0.085
'[11:30:34.016]',-0.045
'[11:30:34.023]',-0.015
'[11:30:34.031]',0.005
'[11:30:34.039]',0.065
'[11:30:34.047]',0.105
'[11:30:34.055]',0.155
'[11:30:34.063]',0.185
'[11:30:34.070]',0.185
'[11:30:34.078]',0.215
'[11:30:34.086]',0.195
'[11:30:34.094]',0.165
'[11:30:34.102]',0.115
'[11:30:34.109]',0.055
'[11:30:34.117]',-0.005
'[11:30:34.125]',-0.045
'[11:30:34.133]',-0.085
'[11:30:34.141]',-0.105
'[11:30:34.148]',-0.145
'[11:30:34.156]',-0.135
'[11:30:34.164]',-0.135
'[11:30:34.172]',-0.125
'[11:30:34.180]',-0.135
'[11:30:34.188]',-0.115
'[11:30:34.195]',-0.125
'[11:30:34.203]',-0.125
'[11:30:34.211]',-0.145
'[11:30:34.219]',-0.115
'[11:30:34.227]',-0.085
'[11:30:34.234]',-0.045
'[11:30:34.242]',-0.015
'[11:30:34.250]',0.015
'[11:30:34.258]',0.075
'[11:30:34.266]',0.125
'[11:30:34.273]',0.115
'[11:30:34.281]',0.105
'[11:30:34.289]',0.065
'[11:30:34.297]',0.045
'[11:30:34.305]',0.015
'[11:30:34.313]',-0.075
'[11:30:34.320]',-0.125
'[11:30:34.328]',-0.165
'[11:30:34.336]',-0.195
'[11:30:34.344]',-0.195
'[11:30:34.352]',-0.175
'[11:30:34.359]',-0.285
'[11:30:34.367]',-0.535
'[11:30:34.375]',-0.515
'[11:30:34.383]',-0.035
'[11:30:34.391]',0.555
'[11:30:34.398]',0.525
'[11:30:34.406]',-0.005
'[11:30:34.414]',-0.305
'[11:30:34.422]',-0.295
'[11:30:34.430]',-0.215
'[11:30:34.438]',-0.165
'[11:30:34.445]',-0.165
'[11:30:34.453]',-0.165
'[11:30:34.461]',-0.165
'[11:30:34.469]',-0.145
'[11:30:34.477]',-0.125
'[11:30:34.484]',-0.125
'[11:30:34.492]',-0.105
'[11:30:34.500]',-0.085
'[11:30:34.508]',-0.075
'[11:30:34.516]',-0.085
'[11:30:34.523]',-0.065
'[11:30:34.531]',-0.055
'[11:30:34.539]',-0.025
'[11:30:34.547]',-0.025
'[11:30:34.555]',-0.015
'[11:30:34.563]',0.015
'[11:30:34.570]',0.065
'[11:30:34.578]',0.095
'[11:30:34.586]',0.125
'[11:30:34.594]',0.155
'[11:30:34.602]',0.185
'[11:30:34.609]',0.205
'[11:30:34.617]',0.235
'[11:30:34.625]',0.215
'[11:30:34.633]',0.175
'[11:30:34.641]',0.135
'[11:30:34.648]',0.075
'[11:30:34.656]',0.035
'[11:30:34.664]',-0.005
'[11:30:34.672]',-0.035
'[11:30:34.680]',-0.055
'[11:30:34.688]',-0.065
'[11:30:34.695]',-0.075
'[11:30:34.703]',-0.095
'[11:30:34.711]',-0.105
'[11:30:34.719]',-0.115
'[11:30:34.727]',-0.115
'[11:30:34.734]',-0.105
'[11:30:34.742]',-0.115
'[11:30:34.750]',-0.125
'[11:30:34.758]',-0.115
'[11:30:34.766]',-0.105
'[11:30:34.773]',-0.075
'[11:30:34.781]',-0.075
'[11:30:34.789]',-0.015
'[11:30:34.797]',0.005
'[11:30:34.805]',0.085
'[11:30:34.813]',0.105
'[11:30:34.820]',0.145
'[11:30:34.828]',0.105
'[11:30:34.836]',0.065
'[11:30:34.844]',0.025
'[11:30:34.852]',-0.035
'[11:30:34.859]',-0.095
'[11:30:34.867]',-0.145
'[11:30:34.875]',-0.175
'[11:30:34.883]',-0.195
'[11:30:34.891]',-0.185
'[11:30:34.898]',-0.255
'[11:30:34.906]',-0.535
'[11:30:34.914]',-0.645
'[11:30:34.922]',-0.245
'[11:30:34.930]',0.455
'[11:30:34.938]',0.725
'[11:30:34.945]',0.195
'[11:30:34.953]',-0.305
'[11:30:34.961]',-0.445
'[11:30:34.969]',-0.375
'[11:30:34.977]',-0.265
'[11:30:34.984]',-0.215
'[11:30:34.992]',-0.215
'[11:30:35.000]',-0.195
'[11:30:35.008]',-0.185
'[11:30:35.016]',-0.185
'[11:30:35.023]',-0.185
'[11:30:35.031]',-0.185
'[11:30:35.039]',-0.145
'[11:30:35.047]',-0.145
'[11:30:35.055]',-0.095
'[11:30:35.063]',-0.075
'[11:30:35.070]',-0.075
'[11:30:35.078]',-0.055
'[11:30:35.086]',-0.035
'[11:30:35.094]',-0.015
'[11:30:35.102]',0.025
'[11:30:35.109]',0.055
'[11:30:35.117]',0.085
'[11:30:35.125]',0.145
'[11:30:35.133]',0.205
'[11:30:35.141]',0.205
'[11:30:35.148]',0.245
'[11:30:35.156]',0.295
'[11:30:35.164]',0.285
'[11:30:35.172]',0.255
'[11:30:35.180]',0.185
'[11:30:35.188]',0.125
'[11:30:35.195]',0.045
'[11:30:35.203]',-0.015
'[11:30:35.211]',-0.075
'[11:30:35.219]',-0.115
'[11:30:35.227]',-0.105
'[11:30:35.234]',-0.115
'[11:30:35.242]',-0.125
'[11:30:35.250]',-0.125
'[11:30:35.258]',-0.115
'[11:30:35.266]',-0.125
'[11:30:35.273]',-0.135
'[11:30:35.281]',-0.175
'[11:30:35.289]',-0.155
'[11:30:35.297]',-0.135
'[11:30:35.305]',-0.115
'[11:30:35.313]',-0.085
'[11:30:35.320]',-0.055
'[11:30:35.328]',-0.035
'[11:30:35.336]',0.025
'[11:30:35.344]',0.045
'[11:30:35.352]',0.055
'[11:30:35.359]',0.035
'[11:30:35.367]',0.005
'[11:30:35.375]',-0.035
'[11:30:35.383]',-0.105
'[11:30:35.391]',-0.175
'[11:30:35.398]',-0.245
'[11:30:35.406]',-0.265
'[11:30:35.414]',-0.285
'[11:30:35.422]',-0.295
'[11:30:35.430]',-0.295
'[11:30:35.438]',-0.515
'[11:30:35.445]',-0.675
'[11:30:35.453]',-0.315
'[11:30:35.461]',0.375
'[11:30:35.469]',0.745
'[11:30:35.477]',0.335
'[11:30:35.484]',-0.145
'[11:30:35.492]',-0.465
'[11:30:35.500]',-0.525
'[11:30:35.508]',-0.505
'[11:30:35.516]',-0.375
'[11:30:35.523]',-0.325
'[11:30:35.531]',-0.325
'[11:30:35.539]',-0.285
'[11:30:35.547]',-0.285
'[11:30:35.555]',-0.255
'[11:30:35.563]',-0.235
'[11:30:35.570]',-0.205
'[11:30:35.578]',-0.185
'[11:30:35.586]',-0.165
'[11:30:35.594]',-0.145
'[11:30:35.602]',-0.095
'[11:30:35.609]',-0.085
'[11:30:35.617]',-0.065
'[11:30:35.625]',-0.025
'[11:30:35.633]',-0.005
'[11:30:35.641]',0.005
'[11:30:35.648]',0.015
'[11:30:35.656]',0.075
'[11:30:35.664]',0.125
'[11:30:35.672]',0.145
'[11:30:35.680]',0.175
'[11:30:35.688]',0.185
'[11:30:35.695]',0.185
'[11:30:35.703]',0.175
'[11:30:35.711]',0.105
'[11:30:35.719]',0.055
'[11:30:35.727]',-0.015
'[11:30:35.734]',-0.085
'[11:30:35.742]',-0.105
'[11:30:35.750]',-0.125
'[11:30:35.758]',-0.145
'[11:30:35.766]',-0.145
'[11:30:35.773]',-0.155
'[11:30:35.781]',-0.155
'[11:30:35.789]',-0.135
'[11:30:35.797]',-0.145
'[11:30:35.805]',-0.115
'[11:30:35.813]',-0.125
'[11:30:35.820]',-0.115
'[11:30:35.828]',-0.095
'[11:30:35.836]',-0.055
'[11:30:35.844]',-0.035
'[11:30:35.852]',0.015
'[11:30:35.859]',0.025
'[11:30:35.867]',0.115
'[11:30:35.875]',0.135
'[11:30:35.883]',0.145
'[11:30:35.891]',0.105
'[11:30:35.898]',0.065
'[11:30:35.906]',0.035
'[11:30:35.914]',-0.025
'[11:30:35.922]',-0.105
'[11:30:35.930]',-0.155
'[11:30:35.938]',-0.165
'[11:30:35.945]',-0.175
'[11:30:35.953]',-0.175
'[11:30:35.961]',-0.215
'[11:30:35.969]',-0.475
'[11:30:35.977]',-0.645
'[11:30:35.984]',-0.205
'[11:30:35.992]',0.575
'[11:30:36.000]',0.945
'[11:30:36.008]',0.415
'[11:30:36.016]',-0.065
'[11:30:36.023]',-0.325
'[11:30:36.031]',-0.415
'[11:30:36.039]',-0.345
'[11:30:36.047]',-0.215
'[11:30:36.055]',-0.135
'[11:30:36.063]',-0.145
'[11:30:36.070]',-0.135
'[11:30:36.078]',-0.145
'[11:30:36.086]',-0.135
'[11:30:36.094]',-0.105
'[11:30:36.102]',-0.075
'[11:30:36.109]',-0.045
'[11:30:36.117]',-0.045
'[11:30:36.125]',-0.065
'[11:30:36.133]',-0.025
'[11:30:36.141]',-0.005
'[11:30:36.148]',0.025
'[11:30:36.156]',0.075
'[11:30:36.164]',0.115
'[11:30:36.172]',0.155
'[11:30:36.180]',0.185
'[11:30:36.188]',0.215
'[11:30:36.195]',0.265
'[11:30:36.203]',0.275
'[11:30:36.211]',0.265
'[11:30:36.219]',0.295
'[11:30:36.227]',0.315
'[11:30:36.234]',0.305
'[11:30:36.242]',0.255
'[11:30:36.250]',0.175
'[11:30:36.258]',0.165
'[11:30:36.266]',0.115
'[11:30:36.273]',0.085
'[11:30:36.281]',0.045
'[11:30:36.289]',0.045
'[11:30:36.297]',0.025
'[11:30:36.305]',0.025
'[11:30:36.313]',0.035
'[11:30:36.320]',0.055
'[11:30:36.328]',0.045
'[11:30:36.336]',0.025
'[11:30:36.344]',0.025
'[11:30:36.352]',0.055
'[11:30:36.359]',0.075
'[11:30:36.367]',0.105
'[11:30:36.375]',0.125
'[11:30:36.383]',0.155
'[11:30:36.391]',0.205
'[11:30:36.398]',0.245
'[11:30:36.406]',0.245
'[11:30:36.414]',0.265
'[11:30:36.422]',0.255
'[11:30:36.430]',0.215
'[11:30:36.438]',0.175
'[11:30:36.445]',0.085
'[11:30:36.453]',0.045
'[11:30:36.461]',-0.025
'[11:30:36.469]',-0.035
'[11:30:36.477]',-0.035
'[11:30:36.484]',-0.025
'[11:30:36.492]',-0.075
'[11:30:36.500]',-0.425
'[11:30:36.508]',-0.555
'[11:30:36.516]',-0.035
'[11:30:36.523]',0.715
'[11:30:36.531]',1035
'[11:30:36.539]',0.555
'[11:30:36.547]',0.015
'[11:30:36.555]',-0.255
'[11:30:36.563]',-0.315
'[11:30:36.570]',-0.235
'[11:30:36.578]',-0.105
'[11:30:36.586]',-0.075
'[11:30:36.594]',-0.075
'[11:30:36.602]',-0.065
'[11:30:36.609]',-0.045
'[11:30:36.617]',-0.025
'[11:30:36.625]',-0.015
'[11:30:36.633]',-0.005
'[11:30:36.641]',-0.005
'[11:30:36.648]',0.005
'[11:30:36.656]',0.005
'[11:30:36.664]',0.035
'[11:30:36.672]',0.055
'[11:30:36.680]',0.075
'[11:30:36.688]',0.105
'[11:30:36.695]',0.145
'[11:30:36.703]',0.175
'[11:30:36.711]',0.205
'[11:30:36.719]',0.255
'[11:30:36.727]',0.315
'[11:30:36.734]',0.315
'[11:30:36.742]',0.345
'[11:30:36.750]',0.345
'[11:30:36.758]',0.325
'[11:30:36.766]',0.305
'[11:30:36.773]',0.245
'[11:30:36.781]',0.185
'[11:30:36.789]',0.145
'[11:30:36.797]',0.095
'[11:30:36.805]',0.065
'[11:30:36.813]',0.035
'[11:30:36.820]',0.005
'[11:30:36.828]',0.015
'[11:30:36.836]',-0.025
'[11:30:36.844]',-0.005
'[11:30:36.852]',-0.005
'[11:30:36.859]',-0.025
'[11:30:36.867]',-0.015
'[11:30:36.875]',-0.025
'[11:30:36.883]',0.005
'[11:30:36.891]',0.035
'[11:30:36.898]',0.055
'[11:30:36.906]',0.055
'[11:30:36.914]',0.105
'[11:30:36.922]',0.205
'[11:30:36.930]',0.205
'[11:30:36.938]',0.215
'[11:30:36.945]',0.195
'[11:30:36.953]',0.165
'[11:30:36.961]',0.115
'[11:30:36.969]',0.055
'[11:30:36.977]',-0.045
'[11:30:36.984]',-0.095
'[11:30:36.992]',-0.115
'[11:30:37.000]',-0.105
'[11:30:37.008]',-0.115
'[11:30:37.016]',-0.105
'[11:30:37.023]',-0.365
'[11:30:37.031]',-0.675
'[11:30:37.039]',-0.355
'[11:30:37.047]',0.435
'[11:30:37.055]',1065
'[11:30:37.063]',0.795
'[11:30:37.070]',0.175
'[11:30:37.078]',-0.295
'[11:30:37.086]',-0.415
'[11:30:37.094]',-0.425
'[11:30:37.102]',-0.295
'[11:30:37.109]',-0.195
'[11:30:37.117]',-0.185
'[11:30:37.125]',-0.185
'[11:30:37.133]',-0.175
'[11:30:37.141]',-0.155
'[11:30:37.148]',-0.175
'[11:30:37.156]',-0.155
'[11:30:37.164]',-0.135
'[11:30:37.172]',-0.135
'[11:30:37.180]',-0.115
'[11:30:37.188]',-0.075
'[11:30:37.195]',-0.065
'[11:30:37.203]',-0.055
'[11:30:37.211]',-0.045
'[11:30:37.219]',-0.035
'[11:30:37.227]',0.045
'[11:30:37.234]',0.075
'[11:30:37.242]',0.115
'[11:30:37.250]',0.165
'[11:30:37.258]',0.205
'[11:30:37.266]',0.215
'[11:30:37.273]',0.225
'[11:30:37.281]',0.225
'[11:30:37.289]',0.225
'[11:30:37.297]',0.165
'[11:30:37.305]',0.115
'[11:30:37.313]',0.075
'[11:30:37.320]',0.025
'[11:30:37.328]',-0.035
'[11:30:37.336]',-0.065
'[11:30:37.344]',-0.085
'[11:30:37.352]',-0.095
'[11:30:37.359]',-0.105
'[11:30:37.367]',-0.115
'[11:30:37.375]',-0.105
'[11:30:37.383]',-0.095
'[11:30:37.391]',-0.105
'[11:30:37.398]',-0.115
'[11:30:37.406]',-0.085
'[11:30:37.414]',-0.055
'[11:30:37.422]',-0.035
'[11:30:37.430]',-0.025
'[11:30:37.438]',0.015
'[11:30:37.445]',0.095
'[11:30:37.453]',0.095
'[11:30:37.461]',0.095
'[11:30:37.469]',0.095
'[11:30:37.477]',0.075
'[11:30:37.484]',0.035
'[11:30:37.492]',0.005
'[11:30:37.500]',-0.075
'[11:30:37.508]',-0.135
'[11:30:37.516]',-0.185
'[11:30:37.523]',-0.215
'[11:30:37.531]',-0.195
'[11:30:37.539]',-0.185
'[11:30:37.547]',-0.485
'[11:30:37.555]',-0.745
'[11:30:37.563]',-0.475
'[11:30:37.570]',0.395
'[11:30:37.578]',1055
'[11:30:37.586]',0.635
'[11:30:37.594]',-0.045
'[11:30:37.602]',-0.445
'[11:30:37.609]',-0.485
'[11:30:37.617]',-0.415
'[11:30:37.625]',-0.295
'[11:30:37.633]',-0.255
'[11:30:37.641]',-0.245
'[11:30:37.648]',-0.255
'[11:30:37.656]',-0.245
'[11:30:37.664]',-0.255
'[11:30:37.672]',-0.235
'[11:30:37.680]',-0.205
'[11:30:37.688]',-0.195
'[11:30:37.695]',-0.195
'[11:30:37.703]',-0.175
'[11:30:37.711]',-0.185
'[11:30:37.719]',-0.155
'[11:30:37.727]',-0.135
'[11:30:37.734]',-0.095
'[11:30:37.742]',-0.055
'[11:30:37.750]',-0.035
'[11:30:37.758]',0.045
'[11:30:37.766]',0.095
'[11:30:37.773]',0.105
'[11:30:37.781]',0.135
'[11:30:37.789]',0.145
'[11:30:37.797]',0.175
'[11:30:37.805]',0.185
'[11:30:37.813]',0.135
'[11:30:37.820]',0.095
'[11:30:37.828]',0.025
'[11:30:37.836]',-0.035
'[11:30:37.844]',-0.085
'[11:30:37.852]',-0.125
'[11:30:37.859]',-0.155
'[11:30:37.867]',-0.165
'[11:30:37.875]',-0.175
'[11:30:37.883]',-0.185
'[11:30:37.891]',-0.155
'[11:30:37.898]',-0.175
'[11:30:37.906]',-0.175
'[11:30:37.914]',-0.195
'[11:30:37.922]',-0.165
'[11:30:37.930]',-0.135
'[11:30:37.938]',-0.105
'[11:30:37.945]',-0.095
'[11:30:37.953]',-0.075
'[11:30:37.961]',-0.025
'[11:30:37.969]',0.025
'[11:30:37.977]',0.015
'[11:30:37.984]',0.025
'[11:30:37.992]',0.035
'[11:30:38.000]',-0.035
'[11:30:38.008]',-0.035
'[11:30:38.016]',-0.105
'[11:30:38.023]',-0.155
'[11:30:38.031]',-0.255
'[11:30:38.039]',-0.235
'[11:30:38.047]',-0.255
'[11:30:38.055]',-0.275
'[11:30:38.063]',-0.255
'[11:30:38.070]',-0.525
'[11:30:38.078]',-0.825
'[11:30:38.086]',-0.555
'[11:30:38.094]',0.245
'[11:30:38.102]',0.995
'[11:30:38.109]',0.605
'[11:30:38.117]',-0.095
'[11:30:38.125]',-0.475
'[11:30:38.133]',-0.505
'[11:30:38.141]',-0.405
'[11:30:38.148]',-0.325
'[11:30:38.156]',-0.295
'[11:30:38.164]',-0.285
'[11:30:38.172]',-0.285
'[11:30:38.180]',-0.285
'[11:30:38.188]',-0.265
'[11:30:38.195]',-0.255
'[11:30:38.203]',-0.255
'[11:30:38.211]',-0.275
'[11:30:38.219]',-0.275
'[11:30:38.227]',-0.215
'[11:30:38.234]',-0.165
'[11:30:38.242]',-0.135
'[11:30:38.250]',-0.115
'[11:30:38.258]',-0.105
'[11:30:38.266]',-0.075
'[11:30:38.273]',-0.045
'[11:30:38.281]',-0.015
'[11:30:38.289]',0.065
'[11:30:38.297]',0.095
'[11:30:38.305]',0.155
'[11:30:38.313]',0.145
'[11:30:38.320]',0.175
'[11:30:38.328]',0.165
'[11:30:38.336]',0.135
'[11:30:38.344]',0.075
'[11:30:38.352]',0.045
'[11:30:38.359]',-0.025
'[11:30:38.367]',-0.065
'[11:30:38.375]',-0.105
'[11:30:38.383]',-0.125
'[11:30:38.391]',-0.135
'[11:30:38.398]',-0.135
'[11:30:38.406]',-0.125
'[11:30:38.414]',-0.125
'[11:30:38.422]',-0.145
'[11:30:38.430]',-0.115
'[11:30:38.438]',-0.085
'[11:30:38.445]',-0.065
'[11:30:38.453]',-0.055
'[11:30:38.461]',-0.055
'[11:30:38.469]',-0.035
'[11:30:38.477]',0.005
'[11:30:38.484]',0.075
'[11:30:38.492]',0.125
'[11:30:38.500]',0.105
'[11:30:38.508]',0.115
'[11:30:38.516]',0.085
'[11:30:38.523]',0.035
'[11:30:38.531]',-0.005
'[11:30:38.539]',-0.065
'[11:30:38.547]',-0.145
'[11:30:38.555]',-0.175
'[11:30:38.563]',-0.175
'[11:30:38.570]',-0.165
'[11:30:38.578]',-0.155
'[11:30:38.586]',-0.285
'[11:30:38.594]',-0.635
'[11:30:38.602]',-0.685
'[11:30:38.609]',-0.145
'[11:30:38.617]',0.805
'[11:30:38.625]',1115
'[11:30:38.633]',0.375
'[11:30:38.641]',-0.125
'[11:30:38.648]',-0.355
'[11:30:38.656]',-0.315
'[11:30:38.664]',-0.245
'[11:30:38.672]',-0.205
'[11:30:38.680]',-0.185
'[11:30:38.688]',-0.175
'[11:30:38.695]',-0.175
'[11:30:38.703]',-0.165
'[11:30:38.711]',-0.155
'[11:30:38.719]',-0.165
'[11:30:38.727]',-0.135
'[11:30:38.734]',-0.125
'[11:30:38.742]',-0.115
'[11:30:38.750]',-0.095
'[11:30:38.758]',-0.095
'[11:30:38.766]',-0.085
'[11:30:38.773]',-0.055
'[11:30:38.781]',-0.045
'[11:30:38.789]',0.045
'[11:30:38.797]',0.065
'[11:30:38.805]',0.095
'[11:30:38.813]',0.145
'[11:30:38.820]',0.195
'[11:30:38.828]',0.235
'[11:30:38.836]',0.255
'[11:30:38.844]',0.255
'[11:30:38.852]',0.265
'[11:30:38.859]',0.255
'[11:30:38.867]',0.205
'[11:30:38.875]',0.165
'[11:30:38.883]',0.115
'[11:30:38.891]',0.065
'[11:30:38.898]',0.025
'[11:30:38.906]',-0.005
'[11:30:38.914]',-0.025
'[11:30:38.922]',-0.035
'[11:30:38.930]',-0.035
'[11:30:38.938]',-0.005
'[11:30:38.945]',0.005
'[11:30:38.953]',-0.005
'[11:30:38.961]',0.015
'[11:30:38.969]',-0.005
'[11:30:38.977]',0.005
'[11:30:38.984]',-0.015
'[11:30:38.992]',-0.005
'[11:30:39.000]',0.035
'[11:30:39.008]',0.045
'[11:30:39.016]',0.075
'[11:30:39.023]',0.105
'[11:30:39.031]',0.145
'[11:30:39.039]',0.205
'[11:30:39.047]',0.185
'[11:30:39.055]',0.195
'[11:30:39.063]',0.175
'[11:30:39.070]',0.135
'[11:30:39.078]',0.095
'[11:30:39.086]',0.005
'[11:30:39.094]',-0.055
'[11:30:39.102]',-0.095
'[11:30:39.109]',-0.105
'[11:30:39.117]',-0.095
'[11:30:39.125]',-0.095
'[11:30:39.133]',-0.195
'[11:30:39.141]',-0.495
'[11:30:39.148]',-0.575
'[11:30:39.156]',-0.085
'[11:30:39.164]',0.765
'[11:30:39.172]',1045
'[11:30:39.180]',0.345
'[11:30:39.188]',-0.165
'[11:30:39.195]',-0.285
'[11:30:39.203]',-0.235
'[11:30:39.211]',-0.145
'[11:30:39.219]',-0.095
'[11:30:39.227]',-0.085
'[11:30:39.234]',-0.085
'[11:30:39.242]',-0.085
'[11:30:39.250]',-0.075
'[11:30:39.258]',-0.065
'[11:30:39.266]',-0.045
'[11:30:39.273]',-0.025
'[11:30:39.281]',-0.045
'[11:30:39.289]',-0.035
'[11:30:39.297]',0.005
'[11:30:39.305]',0.025
'[11:30:39.313]',0.055
'[11:30:39.320]',0.065
'[11:30:39.328]',0.105
'[11:30:39.336]',0.135
'[11:30:39.344]',0.175
'[11:30:39.352]',0.235
'[11:30:39.359]',0.275
'[11:30:39.367]',0.335
'[11:30:39.375]',0.365
'[11:30:39.383]',0.385
'[11:30:39.391]',0.385
'[11:30:39.398]',0.365
'[11:30:39.406]',0.345
'[11:30:39.414]',0.285
'[11:30:39.422]',0.235
'[11:30:39.430]',0.175
'[11:30:39.438]',0.125
'[11:30:39.445]',0.095
'[11:30:39.453]',0.065
'[11:30:39.461]',0.045
'[11:30:39.469]',0.045
'[11:30:39.477]',0.055
'[11:30:39.484]',0.065
'[11:30:39.492]',0.085
'[11:30:39.500]',0.075
'[11:30:39.508]',0.075
'[11:30:39.516]',0.065
'[11:30:39.523]',0.065
'[11:30:39.531]',0.065
'[11:30:39.539]',0.065
'[11:30:39.547]',0.055
'[11:30:39.555]',0.065
'[11:30:39.563]',0.085
'[11:30:39.570]',0.125
'[11:30:39.578]',0.165
'[11:30:39.586]',0.165
'[11:30:39.594]',0.185
'[11:30:39.602]',0.275
'[11:30:39.609]',0.305
'[11:30:39.617]',0.325
'[11:30:39.625]',0.295
'[11:30:39.633]',0.255
'[11:30:39.641]',0.215
'[11:30:39.648]',0.155
'[11:30:39.656]',0.095
'[11:30:39.664]',0.035
'[11:30:39.672]',0.005
'[11:30:39.680]',-0.015
'[11:30:39.688]',0.005
'[11:30:39.695]',0.005
'[11:30:39.703]',-0.025
'[11:30:39.711]',-0.305
