'Time','ECG1'
'[16:00:00.000]',-0.725
'[16:00:00.004]',-0.905
'[16:00:00.008]',-0.88
'[16:00:00.012]',-0.72
'[16:00:00.016]',-0.52
'[16:00:00.020]',-0.33
'[16:00:00.024]',-0.14
'[16:00:00.028]',-0.055
'[16:00:00.032]',-0.005
'[16:00:00.036]',0.04
'[16:00:00.040]',0.05
'[16:00:00.044]',0.085
'[16:00:00.048]',0.1
'[16:00:00.052]',0.1
'[16:00:00.056]',0.105
'[16:00:00.060]',0.12
'[16:00:00.064]',0.12
'[16:00:00.068]',0.115
'[16:00:00.072]',0.12
'[16:00:00.076]',0.13
'[16:00:00.080]',0.145
'[16:00:00.084]',0.145
'[16:00:00.088]',0.15
'[16:00:00.092]',0.18
'[16:00:00.096]',0.17
'[16:00:00.100]',0.16
'[16:00:00.104]',0.145
'[16:00:00.108]',0.18
'[16:00:00.112]',0.165
'[16:00:00.116]',0.165
'[16:00:00.120]',0.17
'[16:00:00.124]',0.185
'[16:00:00.128]',0.185
'[16:00:00.132]',0.19
'[16:00:00.136]',0.205
'[16:00:00.140]',0.21
'[16:00:00.144]',0.225
'[16:00:00.148]',0.245
'[16:00:00.152]',0.26
'[16:00:00.156]',0.275
'[16:00:00.160]',0.285
'[16:00:00.164]',0.3
'[16:00:00.168]',0.3
'[16:00:00.172]',0.3
'[16:00:00.176]',0.32
'[16:00:00.180]',0.345
'[16:00:00.184]',0.34
'[16:00:00.188]',0.35
'[16:00:00.192]',0.355
'[16:00:00.196]',0.36
'[16:00:00.200]',0.38
'[16:00:00.204]',0.385
'[16:00:00.208]',0.385
'[16:00:00.212]',0.385
'[16:00:00.216]',0.4
'[16:00:00.220]',0.375
'[16:00:00.224]',0.345
'[16:00:00.228]',0.325
'[16:00:00.232]',0.31
'[16:00:00.236]',0.28
'[16:00:00.240]',0.255
'[16:00:00.244]',0.23
'[16:00:00.248]',0.21
'[16:00:00.252]',0.175
'[16:00:00.256]',0.185
'[16:00:00.260]',0.15
'[16:00:00.264]',0.135
'[16:00:00.268]',0.105
'[16:00:00.272]',0.1
'[16:00:00.276]',0.075
'[16:00:00.280]',0.09
'[16:00:00.284]',0.08
'[16:00:00.288]',0.08
'[16:00:00.292]',0.07
'[16:00:00.296]',0.09
'[16:00:00.300]',0.075
'[16:00:00.304]',0.075
'[16:00:00.308]',0.07
'[16:00:00.312]',0.075
'[16:00:00.316]',0.07
'[16:00:00.320]',0.075
'[16:00:00.324]',0.08
'[16:00:00.328]',0.07
'[16:00:00.332]',0.08
'[16:00:00.336]',0.08
'[16:00:00.340]',0.075
'[16:00:00.344]',0.075
'[16:00:00.348]',0.075
'[16:00:00.352]',0.08
'[16:00:00.356]',0.065
'[16:00:00.360]',0.075
'[16:00:00.364]',0.095
'[16:00:00.368]',0.1
'[16:00:00.372]',0.075
'[16:00:00.376]',0.11
'[16:00:00.380]',0.105
'[16:00:00.384]',0.1
'[16:00:00.388]',0.09
'[16:00:00.392]',0.11
'[16:00:00.396]',0.09
'[16:00:00.400]',0.12
'[16:00:00.404]',0.115
'[16:00:00.408]',0.1
'[16:00:00.412]',0.09
'[16:00:00.416]',0.09
'[16:00:00.420]',0.09
'[16:00:00.424]',0.085
'[16:00:00.428]',0.09
'[16:00:00.432]',0.1
'[16:00:00.436]',0.095
'[16:00:00.440]',0.09
'[16:00:00.444]',0.1
'[16:00:00.448]',0.1
'[16:00:00.452]',0.09
'[16:00:00.456]',0.105
'[16:00:00.460]',0.085
'[16:00:00.464]',0.1
'[16:00:00.468]',0.09
'[16:00:00.472]',0.095
'[16:00:00.476]',0.095
'[16:00:00.480]',0.11
'[16:00:00.484]',0.105
'[16:00:00.488]',0.1
'[16:00:00.492]',0.075
'[16:00:00.496]',0.105
'[16:00:00.500]',0.1
'[16:00:00.504]',0.095
'[16:00:00.508]',0.1
'[16:00:00.512]',0.1
'[16:00:00.516]',0.095
'[16:00:00.520]',0.11
'[16:00:00.524]',0.105
'[16:00:00.528]',0.105
'[16:00:00.532]',0.095
'[16:00:00.536]',0.1
'[16:00:00.540]',0.1
'[16:00:00.544]',0.105
'[16:00:00.548]',0.095
'[16:00:00.552]',0.095
'[16:00:00.556]',0.09
'[16:00:00.560]',0.095
'[16:00:00.564]',0.09
'[16:00:00.568]',0.1
'[16:00:00.572]',0.085
'[16:00:00.576]',0.095
'[16:00:00.580]',0.1
'[16:00:00.584]',0.1
'[16:00:00.588]',0.1
'[16:00:00.592]',0.1
'[16:00:00.596]',0.12
'[16:00:00.600]',0.1
'[16:00:00.604]',0.095
'[16:00:00.608]',0.09
'[16:00:00.612]',0.095
'[16:00:00.616]',0.075
'[16:00:00.620]',0.09
'[16:00:00.624]',0.085
'[16:00:00.628]',0.095
'[16:00:00.632]',0.095
'[16:00:00.636]',0.1
'[16:00:00.640]',0.095
'[16:00:00.644]',0.085
'[16:00:00.648]',0.1
'[16:00:00.652]',0.105
'[16:00:00.656]',0.085
'[16:00:00.660]',0.105
'[16:00:00.664]',0.11
'[16:00:00.668]',0.1
'[16:00:00.672]',0.09
'[16:00:00.676]',0.1
'[16:00:00.680]',0.095
'[16:00:00.684]',0.095
'[16:00:00.688]',0.07
'[16:00:00.692]',0.1
'[16:00:00.696]',0.095
'[16:00:00.700]',0.08
'[16:00:00.704]',0.08
'[16:00:00.708]',0.09
'[16:00:00.712]',0.09
'[16:00:00.716]',0.095
'[16:00:00.720]',0.1
'[16:00:00.724]',0.1
'[16:00:00.728]',0.095
'[16:00:00.732]',0.13
'[16:00:00.736]',0.115
'[16:00:00.740]',0.105
'[16:00:00.744]',0.1
'[16:00:00.748]',0.125
'[16:00:00.752]',0.1
'[16:00:00.756]',0.09
'[16:00:00.760]',0.125
'[16:00:00.764]',0.115
'[16:00:00.768]',0.105
'[16:00:00.772]',0.11
'[16:00:00.776]',0.095
'[16:00:00.780]',0.085
'[16:00:00.784]',0.09
'[16:00:00.788]',0.095
'[16:00:00.792]',0.09
'[16:00:00.796]',0.115
'[16:00:00.800]',0.095
'[16:00:00.804]',0.11
'[16:00:00.808]',0.105
'[16:00:00.812]',0.1
'[16:00:00.816]',0.1
'[16:00:00.820]',0.115
'[16:00:00.824]',0.105
'[16:00:00.828]',0.12
'[16:00:00.832]',0.105
'[16:00:00.836]',0.1
'[16:00:00.840]',0.1
'[16:00:00.844]',0.1
'[16:00:00.848]',0.09
'[16:00:00.852]',0.095
'[16:00:00.856]',0.11
'[16:00:00.860]',0.105
'[16:00:00.864]',0.115
'[16:00:00.868]',0.12
'[16:00:00.872]',0.105
'[16:00:00.876]',0.11
'[16:00:00.880]',0.13
'[16:00:00.884]',0.11
'[16:00:00.888]',0.115
'[16:00:00.892]',0.11
'[16:00:00.896]',0.115
'[16:00:00.900]',0.11
'[16:00:00.904]',0.1
'[16:00:00.908]',0.105
'[16:00:00.912]',0.085
'[16:00:00.916]',0.09
'[16:00:00.920]',0.12
'[16:00:00.924]',0.09
'[16:00:00.928]',0.09
'[16:00:00.932]',0.115
'[16:00:00.936]',0.09
'[16:00:00.940]',0.085
'[16:00:00.944]',0.09
'[16:00:00.948]',0.095
'[16:00:00.952]',0.105
'[16:00:00.956]',0.095
'[16:00:00.960]',0.11
'[16:00:00.964]',0.11
'[16:00:00.968]',0.105
'[16:00:00.972]',0.105
'[16:00:00.976]',0.11
'[16:00:00.980]',0.095
'[16:00:00.984]',0.09
'[16:00:00.988]',0.085
'[16:00:00.992]',0.085
'[16:00:00.996]',0.08
'[16:00:01.000]',0.09
'[16:00:01.004]',0.085
'[16:00:01.008]',0.08
'[16:00:01.012]',0.09
'[16:00:01.016]',0.09
'[16:00:01.020]',0.075
'[16:00:01.024]',0.07
'[16:00:01.028]',0.075
'[16:00:01.032]',0.065
'[16:00:01.036]',0.065
'[16:00:01.040]',0.06
'[16:00:01.044]',0.065
'[16:00:01.048]',0.065
'[16:00:01.052]',0.075
'[16:00:01.056]',0.075
'[16:00:01.060]',0.07
'[16:00:01.064]',0.06
'[16:00:01.068]',0.085
'[16:00:01.072]',0.07
'[16:00:01.076]',0.075
'[16:00:01.080]',0.06
'[16:00:01.084]',0.055
'[16:00:01.088]',0.055
'[16:00:01.092]',0.065
'[16:00:01.096]',0.075
'[16:00:01.100]',0.085
'[16:00:01.104]',0.08
'[16:00:01.108]',0.055
'[16:00:01.112]',0.08
'[16:00:01.116]',0.095
'[16:00:01.120]',0.085
'[16:00:01.124]',0.1
'[16:00:01.128]',0.1
'[16:00:01.132]',0.09
'[16:00:01.136]',0.1
'[16:00:01.140]',0.095
'[16:00:01.144]',0.115
'[16:00:01.148]',0.11
'[16:00:01.152]',0.11
'[16:00:01.156]',0.09
'[16:00:01.160]',0.09
'[16:00:01.164]',0.095
'[16:00:01.168]',0.085
'[16:00:01.172]',0.08
'[16:00:01.176]',0.075
'[16:00:01.180]',0.085
'[16:00:01.184]',0.085
'[16:00:01.188]',0.08
'[16:00:01.192]',0.07
'[16:00:01.196]',0.08
'[16:00:01.200]',0.05
'[16:00:01.204]',0.055
'[16:00:01.208]',0.075
'[16:00:01.212]',0.065
'[16:00:01.216]',0.075
'[16:00:01.220]',0.085
'[16:00:01.224]',0.105
'[16:00:01.228]',0.16
'[16:00:01.232]',0.23
'[16:00:01.236]',0.35
'[16:00:01.240]',0.375
'[16:00:01.244]',0.395
'[16:00:01.248]',0.265
'[16:00:01.252]',-0.06
'[16:00:01.256]',-0.415
'[16:00:01.260]',-0.74
'[16:00:01.264]',-0.925
'[16:00:01.268]',-0.925
'[16:00:01.272]',-0.785
'[16:00:01.276]',-0.605
'[16:00:01.280]',-0.465
'[16:00:01.284]',-0.275
'[16:00:01.288]',-0.085
'[16:00:01.292]',-0.01
'[16:00:01.296]',0.015
'[16:00:01.300]',0.045
'[16:00:01.304]',0.075
'[16:00:01.308]',0.12
'[16:00:01.312]',0.15
'[16:00:01.316]',0.16
'[16:00:01.320]',0.17
'[16:00:01.324]',0.185
'[16:00:01.328]',0.195
'[16:00:01.332]',0.2
'[16:00:01.336]',0.19
'[16:00:01.340]',0.185
'[16:00:01.344]',0.2
'[16:00:01.348]',0.2
'[16:00:01.352]',0.2
'[16:00:01.356]',0.22
'[16:00:01.360]',0.195
'[16:00:01.364]',0.2
'[16:00:01.368]',0.225
'[16:00:01.372]',0.215
'[16:00:01.376]',0.23
'[16:00:01.380]',0.225
'[16:00:01.384]',0.235
'[16:00:01.388]',0.275
'[16:00:01.392]',0.265
'[16:00:01.396]',0.275
'[16:00:01.400]',0.275
'[16:00:01.404]',0.3
'[16:00:01.408]',0.305
'[16:00:01.412]',0.315
'[16:00:01.416]',0.325
'[16:00:01.420]',0.32
'[16:00:01.424]',0.34
'[16:00:01.428]',0.34
'[16:00:01.432]',0.355
'[16:00:01.436]',0.37
'[16:00:01.440]',0.385
'[16:00:01.444]',0.4
'[16:00:01.448]',0.415
'[16:00:01.452]',0.435
'[16:00:01.456]',0.435
'[16:00:01.460]',0.435
'[16:00:01.464]',0.42
'[16:00:01.468]',0.43
'[16:00:01.472]',0.43
'[16:00:01.476]',0.455
'[16:00:01.480]',0.42
'[16:00:01.484]',0.44
'[16:00:01.488]',0.42
'[16:00:01.492]',0.41
'[16:00:01.496]',0.39
'[16:00:01.500]',0.375
'[16:00:01.504]',0.36
'[16:00:01.508]',0.365
'[16:00:01.512]',0.33
'[16:00:01.516]',0.325
'[16:00:01.520]',0.3
'[16:00:01.524]',0.27
'[16:00:01.528]',0.24
'[16:00:01.532]',0.245
'[16:00:01.536]',0.22
'[16:00:01.540]',0.18
'[16:00:01.544]',0.17
'[16:00:01.548]',0.16
'[16:00:01.552]',0.145
'[16:00:01.556]',0.14
'[16:00:01.560]',0.125
'[16:00:01.564]',0.105
'[16:00:01.568]',0.11
'[16:00:01.572]',0.125
'[16:00:01.576]',0.095
'[16:00:01.580]',0.105
'[16:00:01.584]',0.115
'[16:00:01.588]',0.11
'[16:00:01.592]',0.09
'[16:00:01.596]',0.09
'[16:00:01.600]',0.12
'[16:00:01.604]',0.105
'[16:00:01.608]',0.115
'[16:00:01.612]',0.11
'[16:00:01.616]',0.105
'[16:00:01.620]',0.105
'[16:00:01.624]',0.11
'[16:00:01.628]',0.115
'[16:00:01.632]',0.095
'[16:00:01.636]',0.11
'[16:00:01.640]',0.11
'[16:00:01.644]',0.1
'[16:00:01.648]',0.1
'[16:00:01.652]',0.1
'[16:00:01.656]',0.115
'[16:00:01.660]',0.11
'[16:00:01.664]',0.12
'[16:00:01.668]',0.12
'[16:00:01.672]',0.12
'[16:00:01.676]',0.11
'[16:00:01.680]',0.1
'[16:00:01.684]',0.13
'[16:00:01.688]',0.11
'[16:00:01.692]',0.11
'[16:00:01.696]',0.115
'[16:00:01.700]',0.11
'[16:00:01.704]',0.095
'[16:00:01.708]',0.075
'[16:00:01.712]',0.09
'[16:00:01.716]',0.115
'[16:00:01.720]',0.085
'[16:00:01.724]',0.09
'[16:00:01.728]',0.09
'[16:00:01.732]',0.09
'[16:00:01.736]',0.09
'[16:00:01.740]',0.1
'[16:00:01.744]',0.075
'[16:00:01.748]',0.1
'[16:00:01.752]',0.1
'[16:00:01.756]',0.075
'[16:00:01.760]',0.085
'[16:00:01.764]',0.08
'[16:00:01.768]',0.085
'[16:00:01.772]',0.05
'[16:00:01.776]',0.08
'[16:00:01.780]',0.08
'[16:00:01.784]',0.07
'[16:00:01.788]',0.07
'[16:00:01.792]',0.075
'[16:00:01.796]',0.075
'[16:00:01.800]',0.07
'[16:00:01.804]',0.075
'[16:00:01.808]',0.085
'[16:00:01.812]',0.07
'[16:00:01.816]',0.075
'[16:00:01.820]',0.07
'[16:00:01.824]',0.095
'[16:00:01.828]',0.08
'[16:00:01.832]',0.075
'[16:00:01.836]',0.085
'[16:00:01.840]',0.075
'[16:00:01.844]',0.075
'[16:00:01.848]',0.105
'[16:00:01.852]',0.085
'[16:00:01.856]',0.07
'[16:00:01.860]',0.075
'[16:00:01.864]',0.09
'[16:00:01.868]',0.095
'[16:00:01.872]',0.09
'[16:00:01.876]',0.09
'[16:00:01.880]',0.115
'[16:00:01.884]',0.09
'[16:00:01.888]',0.105
'[16:00:01.892]',0.09
'[16:00:01.896]',0.075
'[16:00:01.900]',0.07
'[16:00:01.904]',0.07
'[16:00:01.908]',0.07
'[16:00:01.912]',0.085
'[16:00:01.916]',0.07
'[16:00:01.920]',0.075
'[16:00:01.924]',0.06
'[16:00:01.928]',0.055
'[16:00:01.932]',0.06
'[16:00:01.936]',0.045
'[16:00:01.940]',0.055
'[16:00:01.944]',0.05
'[16:00:01.948]',0.055
'[16:00:01.952]',0.055
'[16:00:01.956]',0.045
'[16:00:01.960]',0.055
'[16:00:01.964]',0.065
'[16:00:01.968]',0.07
'[16:00:01.972]',0.055
'[16:00:01.976]',0.065
'[16:00:01.980]',0.07
'[16:00:01.984]',0.07
'[16:00:01.988]',0.07
'[16:00:01.992]',0.05
'[16:00:01.996]',0.06
'[16:00:02.000]',0.05
'[16:00:02.004]',0.055
'[16:00:02.008]',0.06
'[16:00:02.012]',0.04
'[16:00:02.016]',0.045
'[16:00:02.020]',0.07
'[16:00:02.024]',0.07
'[16:00:02.028]',0.11
'[16:00:02.032]',0.17
'[16:00:02.036]',0.27
'[16:00:02.040]',0.375
'[16:00:02.044]',0.435
'[16:00:02.048]',0.41
'[16:00:02.052]',0.245
'[16:00:02.056]',-0.025
'[16:00:02.060]',-0.36
'[16:00:02.064]',-0.695
'[16:00:02.068]',-0.95
'[16:00:02.072]',-0.96
'[16:00:02.076]',-0.77
'[16:00:02.080]',-0.575
'[16:00:02.084]',-0.39
'[16:00:02.088]',-0.18
'[16:00:02.092]',-0.055
'[16:00:02.096]',-0.035
'[16:00:02.100]',-0.005
'[16:00:02.104]',0.035
'[16:00:02.108]',0.05
'[16:00:02.112]',0.085
'[16:00:02.116]',0.11
'[16:00:02.120]',0.14
'[16:00:02.124]',0.13
'[16:00:02.128]',0.145
'[16:00:02.132]',0.135
'[16:00:02.136]',0.14
'[16:00:02.140]',0.13
'[16:00:02.144]',0.16
'[16:00:02.148]',0.14
'[16:00:02.152]',0.135
'[16:00:02.156]',0.15
'[16:00:02.160]',0.16
'[16:00:02.164]',0.16
'[16:00:02.168]',0.15
'[16:00:02.172]',0.16
'[16:00:02.176]',0.175
'[16:00:02.180]',0.185
'[16:00:02.184]',0.185
'[16:00:02.188]',0.2
'[16:00:02.192]',0.205
'[16:00:02.196]',0.205
'[16:00:02.200]',0.225
'[16:00:02.204]',0.23
'[16:00:02.208]',0.245
'[16:00:02.212]',0.235
'[16:00:02.216]',0.26
'[16:00:02.220]',0.265
'[16:00:02.224]',0.27
'[16:00:02.228]',0.28
'[16:00:02.232]',0.275
'[16:00:02.236]',0.3
'[16:00:02.240]',0.32
'[16:00:02.244]',0.315
'[16:00:02.248]',0.335
'[16:00:02.252]',0.32
'[16:00:02.256]',0.345
'[16:00:02.260]',0.335
'[16:00:02.264]',0.355
'[16:00:02.268]',0.36
'[16:00:02.272]',0.34
'[16:00:02.276]',0.34
'[16:00:02.280]',0.345
'[16:00:02.284]',0.345
'[16:00:02.288]',0.305
'[16:00:02.292]',0.305
'[16:00:02.296]',0.285
'[16:00:02.300]',0.255
'[16:00:02.304]',0.26
'[16:00:02.308]',0.235
'[16:00:02.312]',0.225
'[16:00:02.316]',0.185
'[16:00:02.320]',0.165
'[16:00:02.324]',0.16
'[16:00:02.328]',0.12
'[16:00:02.332]',0.115
'[16:00:02.336]',0.11
'[16:00:02.340]',0.085
'[16:00:02.344]',0.085
'[16:00:02.348]',0.075
'[16:00:02.352]',0.08
'[16:00:02.356]',0.07
'[16:00:02.360]',0.08
'[16:00:02.364]',0.055
'[16:00:02.368]',0.055
'[16:00:02.372]',0.05
'[16:00:02.376]',0.07
'[16:00:02.380]',0.055
'[16:00:02.384]',0.055
'[16:00:02.388]',0.06
'[16:00:02.392]',0.055
'[16:00:02.396]',0.045
'[16:00:02.400]',0.055
'[16:00:02.404]',0.06
'[16:00:02.408]',0.065
'[16:00:02.412]',0.055
'[16:00:02.416]',0.07
'[16:00:02.420]',0.06
'[16:00:02.424]',0.09
'[16:00:02.428]',0.075
'[16:00:02.432]',0.08
'[16:00:02.436]',0.075
'[16:00:02.440]',0.07
'[16:00:02.444]',0.08
'[16:00:02.448]',0.05
'[16:00:02.452]',0.05
'[16:00:02.456]',0.075
'[16:00:02.460]',0.075
'[16:00:02.464]',0.075
'[16:00:02.468]',0.075
'[16:00:02.472]',0.085
'[16:00:02.476]',0.075
'[16:00:02.480]',0.075
'[16:00:02.484]',0.075
'[16:00:02.488]',0.07
'[16:00:02.492]',0.075
'[16:00:02.496]',0.085
'[16:00:02.500]',0.075
'[16:00:02.504]',0.065
'[16:00:02.508]',0.06
'[16:00:02.512]',0.08
'[16:00:02.516]',0.055
'[16:00:02.520]',0.075
'[16:00:02.524]',0.085
'[16:00:02.528]',0.06
'[16:00:02.532]',0.065
'[16:00:02.536]',0.07
'[16:00:02.540]',0.06
'[16:00:02.544]',0.07
'[16:00:02.548]',0.07
'[16:00:02.552]',0.08
'[16:00:02.556]',0.07
'[16:00:02.560]',0.065
'[16:00:02.564]',0.075
'[16:00:02.568]',0.075
'[16:00:02.572]',0.06
'[16:00:02.576]',0.08
'[16:00:02.580]',0.08
'[16:00:02.584]',0.08
'[16:00:02.588]',0.065
'[16:00:02.592]',0.09
'[16:00:02.596]',0.085
'[16:00:02.600]',0.09
'[16:00:02.604]',0.095
'[16:00:02.608]',0.09
'[16:00:02.612]',0.09
'[16:00:02.616]',0.09
'[16:00:02.620]',0.105
'[16:00:02.624]',0.105
'[16:00:02.628]',0.075
'[16:00:02.632]',0.07
'[16:00:02.636]',0.095
'[16:00:02.640]',0.07
'[16:00:02.644]',0.07
'[16:00:02.648]',0.07
'[16:00:02.652]',0.05
'[16:00:02.656]',0.065
'[16:00:02.660]',0.055
'[16:00:02.664]',0.065
'[16:00:02.668]',0.065
'[16:00:02.672]',0.045
'[16:00:02.676]',0.045
'[16:00:02.680]',0.035
'[16:00:02.684]',0.035
'[16:00:02.688]',0.035
'[16:00:02.692]',0.055
'[16:00:02.696]',0.04
'[16:00:02.700]',0.035
'[16:00:02.704]',0.05
'[16:00:02.708]',0.05
'[16:00:02.712]',0.035
'[16:00:02.716]',0.055
'[16:00:02.720]',0.035
'[16:00:02.724]',0.03
'[16:00:02.728]',0.045
'[16:00:02.732]',0.055
'[16:00:02.736]',0.04
'[16:00:02.740]',0.04
'[16:00:02.744]',0.04
'[16:00:02.748]',0.05
'[16:00:02.752]',0.035
'[16:00:02.756]',0.06
'[16:00:02.760]',0.06
'[16:00:02.764]',0.055
'[16:00:02.768]',0.08
'[16:00:02.772]',0.14
'[16:00:02.776]',0.225
'[16:00:02.780]',0.33
'[16:00:02.784]',0.41
'[16:00:02.788]',0.44
'[16:00:02.792]',0.335
'[16:00:02.796]',0.11
'[16:00:02.800]',-0.235
'[16:00:02.804]',-0.595
'[16:00:02.808]',-0.885
'[16:00:02.812]',-0.995
'[16:00:02.816]',-0.865
'[16:00:02.820]',-0.655
'[16:00:02.824]',-0.45
'[16:00:02.828]',-0.255
'[16:00:02.832]',-0.1
'[16:00:02.836]',-0.03
'[16:00:02.840]',-0.01
'[16:00:02.844]',0.025
'[16:00:02.848]',0.03
'[16:00:02.852]',0.08
'[16:00:02.856]',0.1
'[16:00:02.860]',0.115
'[16:00:02.864]',0.13
'[16:00:02.868]',0.145
'[16:00:02.872]',0.135
'[16:00:02.876]',0.14
'[16:00:02.880]',0.12
'[16:00:02.884]',0.15
'[16:00:02.888]',0.145
'[16:00:02.892]',0.155
'[16:00:02.896]',0.155
'[16:00:02.900]',0.17
'[16:00:02.904]',0.17
'[16:00:02.908]',0.165
'[16:00:02.912]',0.175
'[16:00:02.916]',0.18
'[16:00:02.920]',0.195
'[16:00:02.924]',0.185
'[16:00:02.928]',0.18
'[16:00:02.932]',0.205
'[16:00:02.936]',0.205
'[16:00:02.940]',0.21
'[16:00:02.944]',0.22
'[16:00:02.948]',0.23
'[16:00:02.952]',0.235
'[16:00:02.956]',0.235
'[16:00:02.960]',0.265
'[16:00:02.964]',0.26
'[16:00:02.968]',0.27
'[16:00:02.972]',0.295
'[16:00:02.976]',0.3
'[16:00:02.980]',0.335
'[16:00:02.984]',0.325
'[16:00:02.988]',0.35
'[16:00:02.992]',0.335
'[16:00:02.996]',0.32
'[16:00:03.000]',0.345
'[16:00:03.004]',0.325
'[16:00:03.008]',0.33
'[16:00:03.012]',0.33
'[16:00:03.016]',0.315
'[16:00:03.020]',0.315
'[16:00:03.024]',0.3
'[16:00:03.028]',0.315
'[16:00:03.032]',0.295
'[16:00:03.036]',0.285
'[16:00:03.040]',0.275
'[16:00:03.044]',0.27
'[16:00:03.048]',0.235
'[16:00:03.052]',0.21
'[16:00:03.056]',0.19
'[16:00:03.060]',0.18
'[16:00:03.064]',0.16
'[16:00:03.068]',0.115
'[16:00:03.072]',0.08
'[16:00:03.076]',0.085
'[16:00:03.080]',0.085
'[16:00:03.084]',0.07
'[16:00:03.088]',0.045
'[16:00:03.092]',0.04
'[16:00:03.096]',0.045
'[16:00:03.100]',0.025
'[16:00:03.104]',0.025
'[16:00:03.108]',0.04
'[16:00:03.112]',0.03
'[16:00:03.116]',0.03
'[16:00:03.120]',0.04
'[16:00:03.124]',0.04
'[16:00:03.128]',0.04
'[16:00:03.132]',0.045
'[16:00:03.136]',0.035
'[16:00:03.140]',0.05
'[16:00:03.144]',0.04
'[16:00:03.148]',0.045
'[16:00:03.152]',0.05
'[16:00:03.156]',0.035
'[16:00:03.160]',0.035
'[16:00:03.164]',0.055
'[16:00:03.168]',0.04
'[16:00:03.172]',0.04
'[16:00:03.176]',0.045
'[16:00:03.180]',0.035
'[16:00:03.184]',0.045
'[16:00:03.188]',0.055
'[16:00:03.192]',0.055
'[16:00:03.196]',0.05
'[16:00:03.200]',0.055
'[16:00:03.204]',0.045
'[16:00:03.208]',0.06
'[16:00:03.212]',0.04
'[16:00:03.216]',0.05
'[16:00:03.220]',0.06
'[16:00:03.224]',0.045
'[16:00:03.228]',0.06
'[16:00:03.232]',0.045
'[16:00:03.236]',0.025
'[16:00:03.240]',0.03
'[16:00:03.244]',0.035
'[16:00:03.248]',0.035
'[16:00:03.252]',0.015
'[16:00:03.256]',0.025
'[16:00:03.260]',0.045
'[16:00:03.264]',0.045
'[16:00:03.268]',0.045
'[16:00:03.272]',0.04
'[16:00:03.276]',0.055
'[16:00:03.280]',0.04
'[16:00:03.284]',0.045
'[16:00:03.288]',0.05
'[16:00:03.292]',0.035
'[16:00:03.296]',0.04
'[16:00:03.300]',0.035
'[16:00:03.304]',0.04
'[16:00:03.308]',0.035
'[16:00:03.312]',0.02
'[16:00:03.316]',0.05
'[16:00:03.320]',0.035
'[16:00:03.324]',0.035
'[16:00:03.328]',0.045
'[16:00:03.332]',0.04
'[16:00:03.336]',0.05
'[16:00:03.340]',0.065
'[16:00:03.344]',0.065
'[16:00:03.348]',0.06
'[16:00:03.352]',0.055
'[16:00:03.356]',0.06
'[16:00:03.360]',0.045
'[16:00:03.364]',0.04
'[16:00:03.368]',0.055
'[16:00:03.372]',0.03
'[16:00:03.376]',0.025
'[16:00:03.380]',0.03
'[16:00:03.384]',0.02
'[16:00:03.388]',0.035
'[16:00:03.392]',0.02
'[16:00:03.396]',0.03
'[16:00:03.400]',0.015
'[16:00:03.404]',0.02
'[16:00:03.408]',0.03
'[16:00:03.412]',0.025
'[16:00:03.416]',0.03
'[16:00:03.420]',0.04
'[16:00:03.424]',0.03
'[16:00:03.428]',0.035
'[16:00:03.432]',0.025
'[16:00:03.436]',0.02
'[16:00:03.440]',0.01
'[16:00:03.444]',0.01
'[16:00:03.448]',0.02
'[16:00:03.452]',0.015
'[16:00:03.456]',0.015
'[16:00:03.460]',0.035
'[16:00:03.464]',0.03
'[16:00:03.468]',0.02
'[16:00:03.472]',0.025
'[16:00:03.476]',0.03
'[16:00:03.480]',0.025
'[16:00:03.484]',0.04
'[16:00:03.488]',0.045
'[16:00:03.492]',0.04
'[16:00:03.496]',0.05
'[16:00:03.500]',0.105
'[16:00:03.504]',0.19
'[16:00:03.508]',0.31
'[16:00:03.512]',0.38
'[16:00:03.516]',0.43
'[16:00:03.520]',0.345
'[16:00:03.524]',0.105
'[16:00:03.528]',-0.22
'[16:00:03.532]',-0.575
'[16:00:03.536]',-0.875
'[16:00:03.540]',-0.985
'[16:00:03.544]',-0.885
'[16:00:03.548]',-0.68
'[16:00:03.552]',-0.475
'[16:00:03.556]',-0.225
'[16:00:03.560]',-0.095
'[16:00:03.564]',-0.05
'[16:00:03.568]',0
'[16:00:03.572]',0.01
'[16:00:03.576]',0.035
'[16:00:03.580]',0.075
'[16:00:03.584]',0.105
'[16:00:03.588]',0.12
'[16:00:03.592]',0.135
'[16:00:03.596]',0.125
'[16:00:03.600]',0.14
'[16:00:03.604]',0.125
'[16:00:03.608]',0.135
'[16:00:03.612]',0.145
'[16:00:03.616]',0.125
'[16:00:03.620]',0.145
'[16:00:03.624]',0.15
'[16:00:03.628]',0.15
'[16:00:03.632]',0.15
'[16:00:03.636]',0.145
'[16:00:03.640]',0.165
'[16:00:03.644]',0.16
'[16:00:03.648]',0.17
'[16:00:03.652]',0.175
'[16:00:03.656]',0.18
'[16:00:03.660]',0.19
'[16:00:03.664]',0.2
'[16:00:03.668]',0.21
'[16:00:03.672]',0.21
'[16:00:03.676]',0.22
'[16:00:03.680]',0.24
'[16:00:03.684]',0.22
'[16:00:03.688]',0.25
'[16:00:03.692]',0.275
'[16:00:03.696]',0.285
'[16:00:03.700]',0.275
'[16:00:03.704]',0.285
'[16:00:03.708]',0.315
'[16:00:03.712]',0.335
'[16:00:03.716]',0.325
'[16:00:03.720]',0.335
'[16:00:03.724]',0.325
'[16:00:03.728]',0.335
'[16:00:03.732]',0.335
'[16:00:03.736]',0.325
'[16:00:03.740]',0.32
'[16:00:03.744]',0.33
'[16:00:03.748]',0.31
'[16:00:03.752]',0.31
'[16:00:03.756]',0.3
'[16:00:03.760]',0.28
'[16:00:03.764]',0.26
'[16:00:03.768]',0.25
'[16:00:03.772]',0.24
'[16:00:03.776]',0.235
'[16:00:03.780]',0.195
'[16:00:03.784]',0.175
'[16:00:03.788]',0.155
'[16:00:03.792]',0.14
'[16:00:03.796]',0.11
'[16:00:03.800]',0.105
'[16:00:03.804]',0.085
'[16:00:03.808]',0.08
'[16:00:03.812]',0.06
'[16:00:03.816]',0.055
'[16:00:03.820]',0.045
'[16:00:03.824]',0.04
'[16:00:03.828]',0.04
'[16:00:03.832]',0.035
'[16:00:03.836]',0.03
'[16:00:03.840]',0.04
'[16:00:03.844]',0.025
'[16:00:03.848]',0.035
'[16:00:03.852]',0.045
'[16:00:03.856]',0.06
'[16:00:03.860]',0.045
'[16:00:03.864]',0.045
'[16:00:03.868]',0.045
'[16:00:03.872]',0.05
'[16:00:03.876]',0.035
'[16:00:03.880]',0.045
'[16:00:03.884]',0.035
'[16:00:03.888]',0.035
'[16:00:03.892]',0.05
'[16:00:03.896]',0.055
'[16:00:03.900]',0.055
'[16:00:03.904]',0.055
'[16:00:03.908]',0.05
'[16:00:03.912]',0.06
'[16:00:03.916]',0.03
'[16:00:03.920]',0.06
'[16:00:03.924]',0.05
'[16:00:03.928]',0.06
'[16:00:03.932]',0.045
'[16:00:03.936]',0.075
'[16:00:03.940]',0.05
'[16:00:03.944]',0.04
'[16:00:03.948]',0.03
'[16:00:03.952]',0.035
'[16:00:03.956]',0.035
'[16:00:03.960]',0.04
'[16:00:03.964]',0.03
'[16:00:03.968]',0.045
'[16:00:03.972]',0.03
'[16:00:03.976]',0.03
'[16:00:03.980]',0.03
'[16:00:03.984]',0.03
'[16:00:03.988]',0.03
'[16:00:03.992]',0.025
'[16:00:03.996]',0.015
'[16:00:04.000]',0.025
'[16:00:04.004]',0.025
'[16:00:04.008]',0.04
'[16:00:04.012]',0.035
'[16:00:04.016]',0.02
'[16:00:04.020]',0.02
'[16:00:04.024]',0.04
'[16:00:04.028]',0.005
'[16:00:04.032]',0.01
'[16:00:04.036]',0.01
'[16:00:04.040]',0.015
'[16:00:04.044]',0.01
'[16:00:04.048]',0.005
'[16:00:04.052]',0.025
'[16:00:04.056]',0.03
'[16:00:04.060]',0.04
'[16:00:04.064]',0.035
'[16:00:04.068]',0.045
'[16:00:04.072]',0.065
'[16:00:04.076]',0.04
'[16:00:04.080]',0.025
'[16:00:04.084]',0.025
'[16:00:04.088]',0.03
'[16:00:04.092]',0
'[16:00:04.096]',0.005
'[16:00:04.100]',0.005
'[16:00:04.104]',0
'[16:00:04.108]',0.01
'[16:00:04.112]',0.005
'[16:00:04.116]',0
'[16:00:04.120]',-0.015
'[16:00:04.124]',-0.01
'[16:00:04.128]',-0.01
'[16:00:04.132]',-0.02
'[16:00:04.136]',0
'[16:00:04.140]',-0.01
'[16:00:04.144]',-0.015
'[16:00:04.148]',-0.01
'[16:00:04.152]',-0.01
'[16:00:04.156]',-0.01
'[16:00:04.160]',-0.015
'[16:00:04.164]',-0.015
'[16:00:04.168]',0
'[16:00:04.172]',0
'[16:00:04.176]',-0.01
'[16:00:04.180]',0
'[16:00:04.184]',-0.01
'[16:00:04.188]',0.01
'[16:00:04.192]',0
'[16:00:04.196]',0
'[16:00:04.200]',0
'[16:00:04.204]',0
'[16:00:04.208]',-0.01
'[16:00:04.212]',0
'[16:00:04.216]',-0.005
'[16:00:04.220]',0.035
'[16:00:04.224]',0.08
'[16:00:04.228]',0.17
'[16:00:04.232]',0.285
'[16:00:04.236]',0.4
'[16:00:04.240]',0.435
'[16:00:04.244]',0.36
'[16:00:04.248]',0.14
'[16:00:04.252]',-0.165
'[16:00:04.256]',-0.54
'[16:00:04.260]',-0.85
'[16:00:04.264]',-0.975
'[16:00:04.268]',-0.875
'[16:00:04.272]',-0.675
'[16:00:04.276]',-0.465
'[16:00:04.280]',-0.235
'[16:00:04.284]',-0.12
'[16:00:04.288]',-0.055
'[16:00:04.292]',-0.025
'[16:00:04.296]',0
'[16:00:04.300]',0.02
'[16:00:04.304]',0.025
'[16:00:04.308]',0.06
'[16:00:04.312]',0.07
'[16:00:04.316]',0.09
'[16:00:04.320]',0.09
'[16:00:04.324]',0.085
'[16:00:04.328]',0.09
'[16:00:04.332]',0.1
'[16:00:04.336]',0.09
'[16:00:04.340]',0.095
'[16:00:04.344]',0.1
'[16:00:04.348]',0.085
'[16:00:04.352]',0.095
'[16:00:04.356]',0.1
'[16:00:04.360]',0.11
'[16:00:04.364]',0.135
'[16:00:04.368]',0.125
'[16:00:04.372]',0.13
'[16:00:04.376]',0.15
'[16:00:04.380]',0.14
'[16:00:04.384]',0.145
'[16:00:04.388]',0.175
'[16:00:04.392]',0.165
'[16:00:04.396]',0.18
'[16:00:04.400]',0.19
'[16:00:04.404]',0.195
'[16:00:04.408]',0.195
'[16:00:04.412]',0.22
'[16:00:04.416]',0.225
'[16:00:04.420]',0.22
'[16:00:04.424]',0.25
'[16:00:04.428]',0.28
'[16:00:04.432]',0.27
'[16:00:04.436]',0.285
'[16:00:04.440]',0.33
'[16:00:04.444]',0.34
'[16:00:04.448]',0.35
'[16:00:04.452]',0.365
'[16:00:04.456]',0.355
'[16:00:04.460]',0.33
'[16:00:04.464]',0.315
'[16:00:04.468]',0.31
'[16:00:04.472]',0.28
'[16:00:04.476]',0.27
'[16:00:04.480]',0.27
'[16:00:04.484]',0.245
'[16:00:04.488]',0.255
'[16:00:04.492]',0.225
'[16:00:04.496]',0.22
'[16:00:04.500]',0.19
'[16:00:04.504]',0.16
'[16:00:04.508]',0.15
'[16:00:04.512]',0.115
'[16:00:04.516]',0.105
'[16:00:04.520]',0.095
'[16:00:04.524]',0.075
'[16:00:04.528]',0.07
'[16:00:04.532]',0.055
'[16:00:04.536]',0.04
'[16:00:04.540]',0.015
'[16:00:04.544]',0.035
'[16:00:04.548]',0.015
'[16:00:04.552]',0.04
'[16:00:04.556]',0.005
'[16:00:04.560]',0.025
'[16:00:04.564]',0.025
'[16:00:04.568]',0.015
'[16:00:04.572]',0.015
'[16:00:04.576]',0.03
'[16:00:04.580]',0.005
'[16:00:04.584]',0.04
'[16:00:04.588]',0.03
'[16:00:04.592]',0.025
'[16:00:04.596]',0.035
'[16:00:04.600]',0.035
'[16:00:04.604]',0.03
'[16:00:04.608]',0.03
'[16:00:04.612]',0.035
'[16:00:04.616]',0.035
'[16:00:04.620]',0.035
'[16:00:04.624]',0.045
'[16:00:04.628]',0.03
'[16:00:04.632]',0.035
'[16:00:04.636]',0.035
'[16:00:04.640]',0.045
'[16:00:04.644]',0.045
'[16:00:04.648]',0.05
'[16:00:04.652]',0.035
'[16:00:04.656]',0.055
'[16:00:04.660]',0.05
'[16:00:04.664]',0.06
'[16:00:04.668]',0.035
'[16:00:04.672]',0.05
'[16:00:04.676]',0.05
'[16:00:04.680]',0.05
'[16:00:04.684]',0.035
'[16:00:04.688]',0.03
'[16:00:04.692]',0.03
'[16:00:04.696]',0.025
'[16:00:04.700]',0.035
'[16:00:04.704]',0.02
'[16:00:04.708]',0.01
'[16:00:04.712]',0.025
'[16:00:04.716]',0.03
'[16:00:04.720]',0.025
'[16:00:04.724]',0.01
'[16:00:04.728]',0.015
'[16:00:04.732]',0.015
'[16:00:04.736]',0.015
'[16:00:04.740]',0.015
'[16:00:04.744]',0.025
'[16:00:04.748]',0.015
'[16:00:04.752]',0.005
'[16:00:04.756]',0.01
'[16:00:04.760]',0
'[16:00:04.764]',0.005
'[16:00:04.768]',0.015
'[16:00:04.772]',0.02
'[16:00:04.776]',0.005
'[16:00:04.780]',0.015
'[16:00:04.784]',0.005
'[16:00:04.788]',0.01
'[16:00:04.792]',0.015
'[16:00:04.796]',0.005
'[16:00:04.800]',0.015
'[16:00:04.804]',0.01
'[16:00:04.808]',0.025
'[16:00:04.812]',0.05
'[16:00:04.816]',0.01
'[16:00:04.820]',0.005
'[16:00:04.824]',0.015
'[16:00:04.828]',0
'[16:00:04.832]',0
'[16:00:04.836]',0.01
'[16:00:04.840]',0.005
'[16:00:04.844]',0.025
'[16:00:04.848]',0.005
'[16:00:04.852]',0.015
'[16:00:04.856]',0.015
'[16:00:04.860]',0.015
'[16:00:04.864]',0.005
'[16:00:04.868]',0
'[16:00:04.872]',0.015
'[16:00:04.876]',0.02
'[16:00:04.880]',0.005
'[16:00:04.884]',0.015
'[16:00:04.888]',0.01
'[16:00:04.892]',0.03
'[16:00:04.896]',0.01
'[16:00:04.900]',0.005
'[16:00:04.904]',0.015
'[16:00:04.908]',0
'[16:00:04.912]',0.015
'[16:00:04.916]',0.01
'[16:00:04.920]',0
'[16:00:04.924]',0.01
'[16:00:04.928]',0.005
'[16:00:04.932]',-0.005
'[16:00:04.936]',0
'[16:00:04.940]',0.015
'[16:00:04.944]',0.015
'[16:00:04.948]',0.015
'[16:00:04.952]',0.005
'[16:00:04.956]',0.025
'[16:00:04.960]',0.01
'[16:00:04.964]',0.01
'[16:00:04.968]',0.015
'[16:00:04.972]',0.02
'[16:00:04.976]',0
'[16:00:04.980]',0.01
'[16:00:04.984]',-0.01
'[16:00:04.988]',0.005
'[16:00:04.992]',0.005
'[16:00:04.996]',0.01
'[16:00:05.000]',0.015
'[16:00:05.004]',0.01
'[16:00:05.008]',0
'[16:00:05.012]',0
'[16:00:05.016]',0
'[16:00:05.020]',0
'[16:00:05.024]',0.01
'[16:00:05.028]',0
'[16:00:05.032]',0
'[16:00:05.036]',0.005
'[16:00:05.040]',0
'[16:00:05.044]',-0.005
'[16:00:05.048]',0.005
'[16:00:05.052]',0
'[16:00:05.056]',-0.01
'[16:00:05.060]',-0.015
'[16:00:05.064]',-0.015
'[16:00:05.068]',-0.015
'[16:00:05.072]',-0.005
'[16:00:05.076]',0
'[16:00:05.080]',-0.015
'[16:00:05.084]',-0.005
'[16:00:05.088]',-0.01
'[16:00:05.092]',-0.005
'[16:00:05.096]',0
'[16:00:05.100]',-0.005
'[16:00:05.104]',0
'[16:00:05.108]',0.01
'[16:00:05.112]',0
'[16:00:05.116]',-0.01
'[16:00:05.120]',-0.015
'[16:00:05.124]',-0.015
'[16:00:05.128]',-0.005
'[16:00:05.132]',-0.03
'[16:00:05.136]',-0.01
'[16:00:05.140]',-0.02
'[16:00:05.144]',-0.015
'[16:00:05.148]',-0.01
'[16:00:05.152]',-0.005
'[16:00:05.156]',0
'[16:00:05.160]',-0.01
'[16:00:05.164]',-0.005
'[16:00:05.168]',0
'[16:00:05.172]',0
'[16:00:05.176]',0
'[16:00:05.180]',-0.02
'[16:00:05.184]',-0.01
'[16:00:05.188]',0
'[16:00:05.192]',-0.01
'[16:00:05.196]',0
'[16:00:05.200]',0
'[16:00:05.204]',0
'[16:00:05.208]',-0.01
'[16:00:05.212]',-0.015
'[16:00:05.216]',0.005
'[16:00:05.220]',-0.02
'[16:00:05.224]',0
'[16:00:05.228]',0
'[16:00:05.232]',0
'[16:00:05.236]',0.005
'[16:00:05.240]',-0.01
'[16:00:05.244]',0
'[16:00:05.248]',0
'[16:00:05.252]',0.01
'[16:00:05.256]',0.005
'[16:00:05.260]',0.005
'[16:00:05.264]',-0.01
'[16:00:05.268]',0
'[16:00:05.272]',0
'[16:00:05.276]',-0.005
'[16:00:05.280]',-0.015
'[16:00:05.284]',-0.005
'[16:00:05.288]',0.015
'[16:00:05.292]',0.01
'[16:00:05.296]',-0.01
'[16:00:05.300]',0.01
'[16:00:05.304]',0
'[16:00:05.308]',0
'[16:00:05.312]',0.005
'[16:00:05.316]',0.01
'[16:00:05.320]',0.005
'[16:00:05.324]',0
'[16:00:05.328]',0
'[16:00:05.332]',0.015
'[16:00:05.336]',0.02
'[16:00:05.340]',0.015
'[16:00:05.344]',-0.02
'[16:00:05.348]',0
'[16:00:05.352]',0.005
'[16:00:05.356]',0.015
'[16:00:05.360]',0.015
'[16:00:05.364]',0.025
'[16:00:05.368]',0.025
'[16:00:05.372]',0.025
'[16:00:05.376]',0.025
'[16:00:05.380]',0.03
'[16:00:05.384]',0.015
'[16:00:05.388]',0.03
'[16:00:05.392]',0.01
'[16:00:05.396]',0.015
'[16:00:05.400]',0.01
'[16:00:05.404]',0.02
'[16:00:05.408]',0.01
'[16:00:05.412]',0.015
'[16:00:05.416]',-0.02
'[16:00:05.420]',0
'[16:00:05.424]',-0.015
'[16:00:05.428]',-0.015
'[16:00:05.432]',0.02
'[16:00:05.436]',0.055
'[16:00:05.440]',0.115
'[16:00:05.444]',0.21
'[16:00:05.448]',0.285
'[16:00:05.452]',0.325
'[16:00:05.456]',0.285
'[16:00:05.460]',0.09
'[16:00:05.464]',-0.22
'[16:00:05.468]',-0.57
'[16:00:05.472]',-0.86
'[16:00:05.476]',-0.99
'[16:00:05.480]',-0.92
'[16:00:05.484]',-0.75
'[16:00:05.488]',-0.58
'[16:00:05.492]',-0.415
'[16:00:05.496]',-0.22
'[16:00:05.500]',-0.095
'[16:00:05.504]',-0.06
'[16:00:05.508]',-0.04
'[16:00:05.512]',-0.005
'[16:00:05.516]',0.035
'[16:00:05.520]',0.055
'[16:00:05.524]',0.06
'[16:00:05.528]',0.1
'[16:00:05.532]',0.11
'[16:00:05.536]',0.115
'[16:00:05.540]',0.095
'[16:00:05.544]',0.105
'[16:00:05.548]',0.12
'[16:00:05.552]',0.125
'[16:00:05.556]',0.115
'[16:00:05.560]',0.105
'[16:00:05.564]',0.125
'[16:00:05.568]',0.12
'[16:00:05.572]',0.125
'[16:00:05.576]',0.125
'[16:00:05.580]',0.135
'[16:00:05.584]',0.125
'[16:00:05.588]',0.15
'[16:00:05.592]',0.155
'[16:00:05.596]',0.175
'[16:00:05.600]',0.175
'[16:00:05.604]',0.19
'[16:00:05.608]',0.195
'[16:00:05.612]',0.225
'[16:00:05.616]',0.215
'[16:00:05.620]',0.215
'[16:00:05.624]',0.235
'[16:00:05.628]',0.24
'[16:00:05.632]',0.25
'[16:00:05.636]',0.27
'[16:00:05.640]',0.275
'[16:00:05.644]',0.275
'[16:00:05.648]',0.3
'[16:00:05.652]',0.33
'[16:00:05.656]',0.325
'[16:00:05.660]',0.32
'[16:00:05.664]',0.355
'[16:00:05.668]',0.355
'[16:00:05.672]',0.36
'[16:00:05.676]',0.36
'[16:00:05.680]',0.355
'[16:00:05.684]',0.34
'[16:00:05.688]',0.345
'[16:00:05.692]',0.33
'[16:00:05.696]',0.34
'[16:00:05.700]',0.345
'[16:00:05.704]',0.335
'[16:00:05.708]',0.315
'[16:00:05.712]',0.3
'[16:00:05.716]',0.285
'[16:00:05.720]',0.25
'[16:00:05.724]',0.25
'[16:00:05.728]',0.225
'[16:00:05.732]',0.195
'[16:00:05.736]',0.175
'[16:00:05.740]',0.145
'[16:00:05.744]',0.125
'[16:00:05.748]',0.135
'[16:00:05.752]',0.11
'[16:00:05.756]',0.08
'[16:00:05.760]',0.065
'[16:00:05.764]',0.065
'[16:00:05.768]',0.06
'[16:00:05.772]',0.04
'[16:00:05.776]',0.045
'[16:00:05.780]',0.03
'[16:00:05.784]',0.035
'[16:00:05.788]',0.015
'[16:00:05.792]',0.02
'[16:00:05.796]',0.02
'[16:00:05.800]',0.03
'[16:00:05.804]',0.015
'[16:00:05.808]',0.025
'[16:00:05.812]',0.015
'[16:00:05.816]',0.04
'[16:00:05.820]',0.015
'[16:00:05.824]',0.015
'[16:00:05.828]',0.03
'[16:00:05.832]',0.04
'[16:00:05.836]',0.035
'[16:00:05.840]',0.03
'[16:00:05.844]',0.03
'[16:00:05.848]',0.01
'[16:00:05.852]',0.025
'[16:00:05.856]',0.045
'[16:00:05.860]',0.025
'[16:00:05.864]',0.015
'[16:00:05.868]',0.02
'[16:00:05.872]',0.035
'[16:00:05.876]',0.015
'[16:00:05.880]',0.045
'[16:00:05.884]',0.03
'[16:00:05.888]',0.045
'[16:00:05.892]',0.035
'[16:00:05.896]',0.055
'[16:00:05.900]',0.04
'[16:00:05.904]',0.04
'[16:00:05.908]',0.045
'[16:00:05.912]',0.05
'[16:00:05.916]',0.03
'[16:00:05.920]',0.04
'[16:00:05.924]',0.025
'[16:00:05.928]',0.01
'[16:00:05.932]',0.015
'[16:00:05.936]',0.04
'[16:00:05.940]',0.03
'[16:00:05.944]',0.035
'[16:00:05.948]',0.04
'[16:00:05.952]',0.04
'[16:00:05.956]',0.03
'[16:00:05.960]',0.04
'[16:00:05.964]',0.025
'[16:00:05.968]',0.035
'[16:00:05.972]',0.025
'[16:00:05.976]',0.03
'[16:00:05.980]',0.025
'[16:00:05.984]',0.03
'[16:00:05.988]',0.03
'[16:00:05.992]',0.035
'[16:00:05.996]',0.01
'[16:00:06.000]',0.015
'[16:00:06.004]',0.02
'[16:00:06.008]',0.025
'[16:00:06.012]',-0.01
'[16:00:06.016]',0.025
'[16:00:06.020]',0.01
'[16:00:06.024]',0.02
'[16:00:06.028]',0.01
'[16:00:06.032]',0.015
'[16:00:06.036]',0.02
'[16:00:06.040]',0.01
'[16:00:06.044]',0.025
'[16:00:06.048]',0.015
'[16:00:06.052]',0.02
'[16:00:06.056]',0.015
'[16:00:06.060]',0.01
'[16:00:06.064]',0.02
'[16:00:06.068]',0.035
'[16:00:06.072]',0.035
'[16:00:06.076]',0.025
'[16:00:06.080]',0.015
'[16:00:06.084]',0.035
'[16:00:06.088]',0.025
'[16:00:06.092]',0.025
'[16:00:06.096]',0.025
'[16:00:06.100]',0.01
'[16:00:06.104]',0
'[16:00:06.108]',0
'[16:00:06.112]',0
'[16:00:06.116]',-0.005
'[16:00:06.120]',0
'[16:00:06.124]',0.005
'[16:00:06.128]',0
'[16:00:06.132]',0.005
'[16:00:06.136]',-0.005
'[16:00:06.140]',-0.01
'[16:00:06.144]',-0.02
'[16:00:06.148]',-0.045
'[16:00:06.152]',-0.02
'[16:00:06.156]',-0.04
'[16:00:06.160]',-0.02
'[16:00:06.164]',-0.02
'[16:00:06.168]',-0.025
'[16:00:06.172]',-0.03
'[16:00:06.176]',-0.04
'[16:00:06.180]',-0.025
'[16:00:06.184]',-0.02
'[16:00:06.188]',-0.015
'[16:00:06.192]',-0.025
'[16:00:06.196]',-0.015
'[16:00:06.200]',-0.015
'[16:00:06.204]',-0.015
'[16:00:06.208]',-0.015
'[16:00:06.212]',-0.015
'[16:00:06.216]',0
'[16:00:06.220]',-0.015
'[16:00:06.224]',-0.015
'[16:00:06.228]',-0.01
'[16:00:06.232]',0.01
'[16:00:06.236]',0.065
'[16:00:06.240]',0.175
'[16:00:06.244]',0.27
'[16:00:06.248]',0.355
'[16:00:06.252]',0.35
'[16:00:06.256]',0.235
'[16:00:06.260]',0.025
'[16:00:06.264]',-0.315
'[16:00:06.268]',-0.675
'[16:00:06.272]',-0.94
'[16:00:06.276]',-1005
'[16:00:06.280]',-0.85
'[16:00:06.284]',-0.64
'[16:00:06.288]',-0.44
'[16:00:06.292]',-0.235
'[16:00:06.296]',-0.13
'[16:00:06.300]',-0.085
'[16:00:06.304]',-0.07
'[16:00:06.308]',-0.02
'[16:00:06.312]',0
'[16:00:06.316]',0.035
'[16:00:06.320]',0.03
'[16:00:06.324]',0.065
'[16:00:06.328]',0.065
'[16:00:06.332]',0.09
'[16:00:06.336]',0.08
'[16:00:06.340]',0.07
'[16:00:06.344]',0.1
'[16:00:06.348]',0.09
'[16:00:06.352]',0.08
'[16:00:06.356]',0.09
'[16:00:06.360]',0.1
'[16:00:06.364]',0.11
'[16:00:06.368]',0.09
'[16:00:06.372]',0.11
'[16:00:06.376]',0.07
'[16:00:06.380]',0.105
'[16:00:06.384]',0.13
'[16:00:06.388]',0.12
'[16:00:06.392]',0.12
'[16:00:06.396]',0.14
'[16:00:06.400]',0.135
'[16:00:06.404]',0.15
'[16:00:06.408]',0.17
'[16:00:06.412]',0.16
'[16:00:06.416]',0.19
'[16:00:06.420]',0.2
'[16:00:06.424]',0.22
'[16:00:06.428]',0.22
'[16:00:06.432]',0.215
'[16:00:06.436]',0.235
'[16:00:06.440]',0.245
'[16:00:06.444]',0.245
'[16:00:06.448]',0.26
'[16:00:06.452]',0.275
'[16:00:06.456]',0.27
'[16:00:06.460]',0.29
'[16:00:06.464]',0.29
'[16:00:06.468]',0.285
'[16:00:06.472]',0.285
'[16:00:06.476]',0.295
'[16:00:06.480]',0.29
'[16:00:06.484]',0.27
'[16:00:06.488]',0.265
'[16:00:06.492]',0.265
'[16:00:06.496]',0.265
'[16:00:06.500]',0.245
'[16:00:06.504]',0.235
'[16:00:06.508]',0.21
'[16:00:06.512]',0.185
'[16:00:06.516]',0.165
'[16:00:06.520]',0.145
'[16:00:06.524]',0.125
'[16:00:06.528]',0.12
'[16:00:06.532]',0.095
'[16:00:06.536]',0.07
'[16:00:06.540]',0.07
'[16:00:06.544]',0.07
'[16:00:06.548]',0.05
'[16:00:06.552]',0.025
'[16:00:06.556]',0.035
'[16:00:06.560]',0.025
'[16:00:06.564]',0.02
'[16:00:06.568]',0.03
'[16:00:06.572]',0.03
'[16:00:06.576]',0.025
'[16:00:06.580]',0.01
'[16:00:06.584]',0.02
'[16:00:06.588]',0.01
'[16:00:06.592]',0.015
'[16:00:06.596]',0.01
'[16:00:06.600]',0.03
'[16:00:06.604]',0.03
'[16:00:06.608]',0.025
'[16:00:06.612]',0.04
'[16:00:06.616]',0.03
'[16:00:06.620]',0.035
'[16:00:06.624]',0.035
'[16:00:06.628]',0.04
'[16:00:06.632]',0.05
'[16:00:06.636]',0.04
'[16:00:06.640]',0.055
'[16:00:06.644]',0.05
'[16:00:06.648]',0.035
'[16:00:06.652]',0.04
'[16:00:06.656]',0.06
'[16:00:06.660]',0.03
'[16:00:06.664]',0.045
'[16:00:06.668]',0.045
'[16:00:06.672]',0.05
'[16:00:06.676]',0.04
'[16:00:06.680]',0.045
'[16:00:06.684]',0.045
'[16:00:06.688]',0.05
'[16:00:06.692]',0.055
'[16:00:06.696]',0.055
'[16:00:06.700]',0.035
'[16:00:06.704]',0.04
'[16:00:06.708]',0.05
'[16:00:06.712]',0.035
'[16:00:06.716]',0.04
'[16:00:06.720]',0.035
'[16:00:06.724]',0.04
'[16:00:06.728]',0.02
'[16:00:06.732]',0.03
'[16:00:06.736]',0.02
'[16:00:06.740]',0.02
'[16:00:06.744]',0.03
'[16:00:06.748]',0.015
'[16:00:06.752]',0.01
'[16:00:06.756]',0.03
'[16:00:06.760]',0.04
'[16:00:06.764]',0.01
'[16:00:06.768]',0.04
'[16:00:06.772]',0.015
'[16:00:06.776]',0.01
'[16:00:06.780]',0.03
'[16:00:06.784]',0.035
'[16:00:06.788]',0.05
'[16:00:06.792]',0.035
'[16:00:06.796]',0.035
'[16:00:06.800]',0.035
'[16:00:06.804]',0.04
'[16:00:06.808]',0.055
'[16:00:06.812]',0.04
'[16:00:06.816]',0.03
'[16:00:06.820]',0.03
'[16:00:06.824]',0.03
'[16:00:06.828]',0.02
'[16:00:06.832]',0.01
'[16:00:06.836]',0.025
'[16:00:06.840]',0.005
'[16:00:06.844]',0.005
'[16:00:06.848]',0.015
'[16:00:06.852]',0.005
'[16:00:06.856]',-0.005
'[16:00:06.860]',0
'[16:00:06.864]',0
'[16:00:06.868]',0
'[16:00:06.872]',-0.015
'[16:00:06.876]',-0.015
'[16:00:06.880]',-0.015
'[16:00:06.884]',0
'[16:00:06.888]',-0.015
'[16:00:06.892]',-0.01
'[16:00:06.896]',-0.01
'[16:00:06.900]',-0.01
'[16:00:06.904]',-0.005
'[16:00:06.908]',-0.01
'[16:00:06.912]',0.015
'[16:00:06.916]',0
'[16:00:06.920]',-0.01
'[16:00:06.924]',-0.005
'[16:00:06.928]',-0.01
'[16:00:06.932]',-0.015
'[16:00:06.936]',0
'[16:00:06.940]',0
'[16:00:06.944]',0
'[16:00:06.948]',0.005
'[16:00:06.952]',0.005
'[16:00:06.956]',0.02
'[16:00:06.960]',0.035
'[16:00:06.964]',0.125
'[16:00:06.968]',0.21
'[16:00:06.972]',0.315
'[16:00:06.976]',0.37
'[16:00:06.980]',0.345
'[16:00:06.984]',0.15
'[16:00:06.988]',-0.135
'[16:00:06.992]',-0.5
'[16:00:06.996]',-0.83
'[16:00:07.000]',-1025
'[16:00:07.004]',-0.975
'[16:00:07.008]',-0.79
'[16:00:07.012]',-0.59
'[16:00:07.016]',-0.38
'[16:00:07.020]',-0.205
'[16:00:07.024]',-0.105
'[16:00:07.028]',-0.07
'[16:00:07.032]',-0.045
'[16:00:07.036]',-0.025
'[16:00:07.040]',0
'[16:00:07.044]',0.035
'[16:00:07.048]',0.04
'[16:00:07.052]',0.055
'[16:00:07.056]',0.06
'[16:00:07.060]',0.07
'[16:00:07.064]',0.09
'[16:00:07.068]',0.08
'[16:00:07.072]',0.065
'[16:00:07.076]',0.085
'[16:00:07.080]',0.075
'[16:00:07.084]',0.09
'[16:00:07.088]',0.09
'[16:00:07.092]',0.085
'[16:00:07.096]',0.09
'[16:00:07.100]',0.085
'[16:00:07.104]',0.095
'[16:00:07.108]',0.105
'[16:00:07.112]',0.085
'[16:00:07.116]',0.12
'[16:00:07.120]',0.11
'[16:00:07.124]',0.115
'[16:00:07.128]',0.135
'[16:00:07.132]',0.14
'[16:00:07.136]',0.155
'[16:00:07.140]',0.165
'[16:00:07.144]',0.18
'[16:00:07.148]',0.185
'[16:00:07.152]',0.2
'[16:00:07.156]',0.185
'[16:00:07.160]',0.21
'[16:00:07.164]',0.225
'[16:00:07.168]',0.22
'[16:00:07.172]',0.245
'[16:00:07.176]',0.24
'[16:00:07.180]',0.26
'[16:00:07.184]',0.275
'[16:00:07.188]',0.28
'[16:00:07.192]',0.26
'[16:00:07.196]',0.285
'[16:00:07.200]',0.27
'[16:00:07.204]',0.27
'[16:00:07.208]',0.24
'[16:00:07.212]',0.275
'[16:00:07.216]',0.265
'[16:00:07.220]',0.26
'[16:00:07.224]',0.235
'[16:00:07.228]',0.225
'[16:00:07.232]',0.205
'[16:00:07.236]',0.195
'[16:00:07.240]',0.145
'[16:00:07.244]',0.145
'[16:00:07.248]',0.115
'[16:00:07.252]',0.095
'[16:00:07.256]',0.1
'[16:00:07.260]',0.06
'[16:00:07.264]',0.055
'[16:00:07.268]',0.05
'[16:00:07.272]',0.03
'[16:00:07.276]',0.015
'[16:00:07.280]',0.005
'[16:00:07.284]',0
'[16:00:07.288]',-0.005
'[16:00:07.292]',-0.01
'[16:00:07.296]',0
'[16:00:07.300]',0.005
'[16:00:07.304]',0
'[16:00:07.308]',0
'[16:00:07.312]',0.015
'[16:00:07.316]',-0.01
'[16:00:07.320]',0
'[16:00:07.324]',0.01
'[16:00:07.328]',0
'[16:00:07.332]',0
'[16:00:07.336]',0.03
'[16:00:07.340]',0.005
'[16:00:07.344]',0.005
'[16:00:07.348]',0.005
'[16:00:07.352]',0.025
'[16:00:07.356]',0.01
'[16:00:07.360]',0.015
'[16:00:07.364]',0.005
'[16:00:07.368]',0.005
'[16:00:07.372]',0.01
'[16:00:07.376]',0.01
'[16:00:07.380]',0.015
'[16:00:07.384]',0
'[16:00:07.388]',0
'[16:00:07.392]',0.005
'[16:00:07.396]',0.005
'[16:00:07.400]',0
'[16:00:07.404]',0
'[16:00:07.408]',0.005
'[16:00:07.412]',0.01
'[16:00:07.416]',0
'[16:00:07.420]',0.01
'[16:00:07.424]',0.005
'[16:00:07.428]',0.01
'[16:00:07.432]',0.01
'[16:00:07.436]',0.005
'[16:00:07.440]',0
'[16:00:07.444]',-0.005
'[16:00:07.448]',-0.005
'[16:00:07.452]',0.015
'[16:00:07.456]',0.01
'[16:00:07.460]',0.01
'[16:00:07.464]',0.005
'[16:00:07.468]',0
'[16:00:07.472]',0.01
'[16:00:07.476]',0.015
'[16:00:07.480]',-0.005
'[16:00:07.484]',0.02
'[16:00:07.488]',0.02
'[16:00:07.492]',0.025
'[16:00:07.496]',0.025
'[16:00:07.500]',0.04
'[16:00:07.504]',0.025
'[16:00:07.508]',0.035
'[16:00:07.512]',0.035
'[16:00:07.516]',0.035
'[16:00:07.520]',0.035
'[16:00:07.524]',0.025
'[16:00:07.528]',0.04
'[16:00:07.532]',0.03
'[16:00:07.536]',0.05
'[16:00:07.540]',0.03
'[16:00:07.544]',0.03
'[16:00:07.548]',0.01
'[16:00:07.552]',0.025
'[16:00:07.556]',0.01
'[16:00:07.560]',0.005
'[16:00:07.564]',0.03
'[16:00:07.568]',0.025
'[16:00:07.572]',0.015
'[16:00:07.576]',0.01
'[16:00:07.580]',0
'[16:00:07.584]',0.005
'[16:00:07.588]',0.005
'[16:00:07.592]',0
'[16:00:07.596]',0
'[16:00:07.600]',0.005
'[16:00:07.604]',0.015
'[16:00:07.608]',-0.015
'[16:00:07.612]',0.015
'[16:00:07.616]',0.02
'[16:00:07.620]',0.015
'[16:00:07.624]',0
'[16:00:07.628]',0.02
'[16:00:07.632]',0.045
'[16:00:07.636]',0.025
'[16:00:07.640]',0.035
'[16:00:07.644]',0.015
'[16:00:07.648]',0.02
'[16:00:07.652]',0.015
'[16:00:07.656]',0.015
'[16:00:07.660]',0.02
'[16:00:07.664]',0.015
'[16:00:07.668]',0.015
'[16:00:07.672]',0.02
'[16:00:07.676]',0.075
'[16:00:07.680]',0.125
'[16:00:07.684]',0.21
'[16:00:07.688]',0.355
'[16:00:07.692]',0.4
'[16:00:07.696]',0.375
'[16:00:07.700]',0.21
'[16:00:07.704]',-0.065
'[16:00:07.708]',-0.43
'[16:00:07.712]',-0.765
'[16:00:07.716]',-0.96
'[16:00:07.720]',-0.965
'[16:00:07.724]',-0.79
'[16:00:07.728]',-0.6
'[16:00:07.732]',-0.37
'[16:00:07.736]',-0.185
'[16:00:07.740]',-0.1
'[16:00:07.744]',-0.07
'[16:00:07.748]',-0.03
'[16:00:07.752]',0
'[16:00:07.756]',0.025
'[16:00:07.760]',0.05
'[16:00:07.764]',0.07
'[16:00:07.768]',0.08
'[16:00:07.772]',0.105
'[16:00:07.776]',0.085
'[16:00:07.780]',0.09
'[16:00:07.784]',0.125
'[16:00:07.788]',0.1
'[16:00:07.792]',0.105
'[16:00:07.796]',0.12
'[16:00:07.800]',0.115
'[16:00:07.804]',0.12
'[16:00:07.808]',0.115
'[16:00:07.812]',0.13
'[16:00:07.816]',0.13
'[16:00:07.820]',0.12
'[16:00:07.824]',0.135
'[16:00:07.828]',0.14
'[16:00:07.832]',0.15
'[16:00:07.836]',0.16
'[16:00:07.840]',0.185
'[16:00:07.844]',0.18
'[16:00:07.848]',0.185
'[16:00:07.852]',0.205
'[16:00:07.856]',0.21
'[16:00:07.860]',0.225
'[16:00:07.864]',0.23
'[16:00:07.868]',0.25
'[16:00:07.872]',0.255
'[16:00:07.876]',0.27
'[16:00:07.880]',0.285
'[16:00:07.884]',0.285
'[16:00:07.888]',0.295
'[16:00:07.892]',0.3
'[16:00:07.896]',0.32
'[16:00:07.900]',0.29
'[16:00:07.904]',0.32
'[16:00:07.908]',0.31
'[16:00:07.912]',0.31
'[16:00:07.916]',0.295
'[16:00:07.920]',0.33
'[16:00:07.924]',0.315
'[16:00:07.928]',0.3
'[16:00:07.932]',0.305
'[16:00:07.936]',0.28
'[16:00:07.940]',0.27
'[16:00:07.944]',0.265
'[16:00:07.948]',0.25
'[16:00:07.952]',0.22
'[16:00:07.956]',0.175
'[16:00:07.960]',0.17
'[16:00:07.964]',0.145
'[16:00:07.968]',0.135
'[16:00:07.972]',0.115
'[16:00:07.976]',0.095
'[16:00:07.980]',0.075
'[16:00:07.984]',0.055
'[16:00:07.988]',0.035
'[16:00:07.992]',0.045
'[16:00:07.996]',0.05
'[16:00:08.000]',0.035
'[16:00:08.004]',0.02
'[16:00:08.008]',0.025
'[16:00:08.012]',0.05
'[16:00:08.016]',0.03
'[16:00:08.020]',0
'[16:00:08.024]',0.015
'[16:00:08.028]',0.02
'[16:00:08.032]',0.025
'[16:00:08.036]',0.015
'[16:00:08.040]',0.03
'[16:00:08.044]',0.01
'[16:00:08.048]',0.015
'[16:00:08.052]',0.015
'[16:00:08.056]',0.025
'[16:00:08.060]',0.04
'[16:00:08.064]',0.02
'[16:00:08.068]',0.025
'[16:00:08.072]',0.025
'[16:00:08.076]',0.035
'[16:00:08.080]',0.04
'[16:00:08.084]',0.015
'[16:00:08.088]',0.035
'[16:00:08.092]',0.035
'[16:00:08.096]',0.035
'[16:00:08.100]',0.015
'[16:00:08.104]',0.015
'[16:00:08.108]',0.02
'[16:00:08.112]',0.015
'[16:00:08.116]',0.015
'[16:00:08.120]',0.03
'[16:00:08.124]',0.02
'[16:00:08.128]',0.02
'[16:00:08.132]',0.01
'[16:00:08.136]',0.02
'[16:00:08.140]',0.005
'[16:00:08.144]',0.025
'[16:00:08.148]',0.02
'[16:00:08.152]',0
'[16:00:08.156]',0
'[16:00:08.160]',0.025
'[16:00:08.164]',0.01
'[16:00:08.168]',0.01
'[16:00:08.172]',0
'[16:00:08.176]',0
'[16:00:08.180]',0
'[16:00:08.184]',0.01
'[16:00:08.188]',0
'[16:00:08.192]',0
'[16:00:08.196]',0.01
'[16:00:08.200]',0.01
'[16:00:08.204]',0.01
'[16:00:08.208]',0.005
'[16:00:08.212]',0.01
'[16:00:08.216]',0.025
'[16:00:08.220]',0
'[16:00:08.224]',0.015
'[16:00:08.228]',0.04
'[16:00:08.232]',0.035
'[16:00:08.236]',0.03
'[16:00:08.240]',0.035
'[16:00:08.244]',0.04
'[16:00:08.248]',0.03
'[16:00:08.252]',0.02
'[16:00:08.256]',0.01
'[16:00:08.260]',0.02
'[16:00:08.264]',0.005
'[16:00:08.268]',0
'[16:00:08.272]',0.005
'[16:00:08.276]',0.01
'[16:00:08.280]',0.015
'[16:00:08.284]',0.01
'[16:00:08.288]',0.015
'[16:00:08.292]',0
'[16:00:08.296]',-0.02
'[16:00:08.300]',-0.005
'[16:00:08.304]',0
'[16:00:08.308]',-0.015
'[16:00:08.312]',-0.015
'[16:00:08.316]',-0.02
'[16:00:08.320]',-0.015
'[16:00:08.324]',-0.015
'[16:00:08.328]',-0.01
'[16:00:08.332]',0
'[16:00:08.336]',-0.005
'[16:00:08.340]',-0.005
'[16:00:08.344]',-0.015
'[16:00:08.348]',-0.02
'[16:00:08.352]',-0.02
'[16:00:08.356]',-0.005
'[16:00:08.360]',-0.025
'[16:00:08.364]',-0.015
'[16:00:08.368]',0
'[16:00:08.372]',-0.005
'[16:00:08.376]',-0.03
'[16:00:08.380]',-0.01
'[16:00:08.384]',-0.02
'[16:00:08.388]',-0.005
'[16:00:08.392]',0.005
'[16:00:08.396]',0.05
'[16:00:08.400]',0.115
'[16:00:08.404]',0.235
'[16:00:08.408]',0.32
'[16:00:08.412]',0.37
'[16:00:08.416]',0.31
'[16:00:08.420]',0.15
'[16:00:08.424]',-0.125
'[16:00:08.428]',-0.515
'[16:00:08.432]',-0.87
'[16:00:08.436]',-1005
'[16:00:08.440]',-0.93
'[16:00:08.444]',-0.75
'[16:00:08.448]',-0.525
'[16:00:08.452]',-0.335
'[16:00:08.456]',-0.18
'[16:00:08.460]',-0.1
'[16:00:08.464]',-0.055
'[16:00:08.468]',-0.025
'[16:00:08.472]',-0.02
'[16:00:08.476]',0.015
'[16:00:08.480]',0.04
'[16:00:08.484]',0.055
'[16:00:08.488]',0.08
'[16:00:08.492]',0.09
'[16:00:08.496]',0.075
'[16:00:08.500]',0.085
'[16:00:08.504]',0.095
'[16:00:08.508]',0.075
'[16:00:08.512]',0.095
'[16:00:08.516]',0.11
'[16:00:08.520]',0.1
'[16:00:08.524]',0.11
'[16:00:08.528]',0.13
'[16:00:08.532]',0.115
'[16:00:08.536]',0.1
'[16:00:08.540]',0.11
'[16:00:08.544]',0.13
'[16:00:08.548]',0.145
'[16:00:08.552]',0.13
'[16:00:08.556]',0.175
'[16:00:08.560]',0.16
'[16:00:08.564]',0.17
'[16:00:08.568]',0.17
'[16:00:08.572]',0.2
'[16:00:08.576]',0.205
'[16:00:08.580]',0.23
'[16:00:08.584]',0.245
'[16:00:08.588]',0.245
'[16:00:08.592]',0.27
'[16:00:08.596]',0.27
'[16:00:08.600]',0.285
'[16:00:08.604]',0.3
'[16:00:08.608]',0.275
'[16:00:08.612]',0.29
'[16:00:08.616]',0.31
'[16:00:08.620]',0.305
'[16:00:08.624]',0.33
'[16:00:08.628]',0.315
'[16:00:08.632]',0.32
'[16:00:08.636]',0.33
'[16:00:08.640]',0.335
'[16:00:08.644]',0.325
'[16:00:08.648]',0.33
'[16:00:08.652]',0.29
'[16:00:08.656]',0.28
'[16:00:08.660]',0.28
'[16:00:08.664]',0.255
'[16:00:08.668]',0.23
'[16:00:08.672]',0.215
'[16:00:08.676]',0.185
'[16:00:08.680]',0.165
'[16:00:08.684]',0.135
'[16:00:08.688]',0.135
'[16:00:08.692]',0.115
'[16:00:08.696]',0.1
'[16:00:08.700]',0.075
'[16:00:08.704]',0.07
'[16:00:08.708]',0.055
'[16:00:08.712]',0.06
'[16:00:08.716]',0.04
'[16:00:08.720]',0.045
'[16:00:08.724]',0.04
'[16:00:08.728]',0.035
'[16:00:08.732]',0.015
'[16:00:08.736]',0.045
'[16:00:08.740]',0.035
'[16:00:08.744]',0.025
'[16:00:08.748]',0.025
'[16:00:08.752]',0.015
'[16:00:08.756]',0.025
'[16:00:08.760]',0.025
'[16:00:08.764]',0.015
'[16:00:08.768]',0.025
'[16:00:08.772]',0.02
'[16:00:08.776]',0.025
'[16:00:08.780]',0.035
'[16:00:08.784]',0.03
'[16:00:08.788]',0.035
'[16:00:08.792]',0.045
'[16:00:08.796]',0.025
'[16:00:08.800]',0.035
'[16:00:08.804]',0.045
'[16:00:08.808]',0.035
'[16:00:08.812]',0.04
'[16:00:08.816]',0.045
'[16:00:08.820]',0.04
'[16:00:08.824]',0.03
'[16:00:08.828]',0.035
'[16:00:08.832]',0.035
'[16:00:08.836]',0.03
'[16:00:08.840]',0.03
'[16:00:08.844]',0.045
'[16:00:08.848]',0.035
'[16:00:08.852]',0.035
'[16:00:08.856]',0.025
'[16:00:08.860]',0.025
'[16:00:08.864]',0.03
'[16:00:08.868]',0.03
'[16:00:08.872]',0.025
'[16:00:08.876]',0.025
'[16:00:08.880]',0.03
'[16:00:08.884]',0.025
'[16:00:08.888]',0.03
'[16:00:08.892]',0.025
'[16:00:08.896]',0.03
'[16:00:08.900]',0.025
'[16:00:08.904]',0.01
'[16:00:08.908]',0
'[16:00:08.912]',0.005
'[16:00:08.916]',0
'[16:00:08.920]',0.01
'[16:00:08.924]',0.035
'[16:00:08.928]',0.01
'[16:00:08.932]',0.015
'[16:00:08.936]',0.015
'[16:00:08.940]',0.02
'[16:00:08.944]',0.01
'[16:00:08.948]',0.025
'[16:00:08.952]',0.035
'[16:00:08.956]',0.035
'[16:00:08.960]',0.04
'[16:00:08.964]',0.045
'[16:00:08.968]',0.055
'[16:00:08.972]',0.04
'[16:00:08.976]',0.035
'[16:00:08.980]',0.02
'[16:00:08.984]',0.015
'[16:00:08.988]',0.015
'[16:00:08.992]',0.005
'[16:00:08.996]',0.02
'[16:00:09.000]',0.01
'[16:00:09.004]',0.025
'[16:00:09.008]',0.01
'[16:00:09.012]',0.02
'[16:00:09.016]',0
'[16:00:09.020]',0
'[16:00:09.024]',-0.02
'[16:00:09.028]',0.005
'[16:00:09.032]',0
'[16:00:09.036]',0
'[16:00:09.040]',-0.015
'[16:00:09.044]',0
'[16:00:09.048]',0
'[16:00:09.052]',-0.01
'[16:00:09.056]',-0.015
'[16:00:09.060]',0
'[16:00:09.064]',0.005
'[16:00:09.068]',0
'[16:00:09.072]',-0.005
'[16:00:09.076]',-0.005
'[16:00:09.080]',-0.015
'[16:00:09.084]',0
'[16:00:09.088]',0.005
'[16:00:09.092]',0
'[16:00:09.096]',-0.015
'[16:00:09.100]',0
'[16:00:09.104]',0
'[16:00:09.108]',0
'[16:00:09.112]',0
'[16:00:09.116]',0
'[16:00:09.120]',0
'[16:00:09.124]',0.035
'[16:00:09.128]',0.12
'[16:00:09.132]',0.21
'[16:00:09.136]',0.315
'[16:00:09.140]',0.39
'[16:00:09.144]',0.335
'[16:00:09.148]',0.18
'[16:00:09.152]',-0.135
'[16:00:09.156]',-0.48
'[16:00:09.160]',-0.83
'[16:00:09.164]',-1015
'[16:00:09.168]',-0.965
'[16:00:09.172]',-0.775
'[16:00:09.176]',-0.575
'[16:00:09.180]',-0.36
'[16:00:09.184]',-0.19
'[16:00:09.188]',-0.1
'[16:00:09.192]',-0.08
'[16:00:09.196]',-0.04
'[16:00:09.200]',-0.025
'[16:00:09.204]',0.01
'[16:00:09.208]',0.035
'[16:00:09.212]',0.045
'[16:00:09.216]',0.055
'[16:00:09.220]',0.07
'[16:00:09.224]',0.06
'[16:00:09.228]',0.07
'[16:00:09.232]',0.065
'[16:00:09.236]',0.085
'[16:00:09.240]',0.085
'[16:00:09.244]',0.09
'[16:00:09.248]',0.08
'[16:00:09.252]',0.105
'[16:00:09.256]',0.095
'[16:00:09.260]',0.105
'[16:00:09.264]',0.11
'[16:00:09.268]',0.12
'[16:00:09.272]',0.115
'[16:00:09.276]',0.105
'[16:00:09.280]',0.12
'[16:00:09.284]',0.14
'[16:00:09.288]',0.145
'[16:00:09.292]',0.18
'[16:00:09.296]',0.165
'[16:00:09.300]',0.175
'[16:00:09.304]',0.175
'[16:00:09.308]',0.19
'[16:00:09.312]',0.205
'[16:00:09.316]',0.205
'[16:00:09.320]',0.225
'[16:00:09.324]',0.245
'[16:00:09.328]',0.255
'[16:00:09.332]',0.255
'[16:00:09.336]',0.27
'[16:00:09.340]',0.265
'[16:00:09.344]',0.27
'[16:00:09.348]',0.29
'[16:00:09.352]',0.285
'[16:00:09.356]',0.285
'[16:00:09.360]',0.305
'[16:00:09.364]',0.28
'[16:00:09.368]',0.29
'[16:00:09.372]',0.29
'[16:00:09.376]',0.27
'[16:00:09.380]',0.28
'[16:00:09.384]',0.275
'[16:00:09.388]',0.26
'[16:00:09.392]',0.265
'[16:00:09.396]',0.23
'[16:00:09.400]',0.215
'[16:00:09.404]',0.185
'[16:00:09.408]',0.17
'[16:00:09.412]',0.135
'[16:00:09.416]',0.11
'[16:00:09.420]',0.09
'[16:00:09.424]',0.08
'[16:00:09.428]',0.075
'[16:00:09.432]',0.05
'[16:00:09.436]',0.055
'[16:00:09.440]',0.05
'[16:00:09.444]',0.03
'[16:00:09.448]',0.02
'[16:00:09.452]',0.005
'[16:00:09.456]',0.025
'[16:00:09.460]',0.02
'[16:00:09.464]',0.01
'[16:00:09.468]',0.025
'[16:00:09.472]',0.02
'[16:00:09.476]',0.015
'[16:00:09.480]',0.01
'[16:00:09.484]',0
'[16:00:09.488]',0
'[16:00:09.492]',0
'[16:00:09.496]',0.01
'[16:00:09.500]',0.015
'[16:00:09.504]',0.015
'[16:00:09.508]',0.01
'[16:00:09.512]',0.02
'[16:00:09.516]',0.015
'[16:00:09.520]',0.035
'[16:00:09.524]',0.02
'[16:00:09.528]',0.03
'[16:00:09.532]',0.04
'[16:00:09.536]',0.04
'[16:00:09.540]',0.035
'[16:00:09.544]',0.035
'[16:00:09.548]',0.05
'[16:00:09.552]',0.045
'[16:00:09.556]',0.035
'[16:00:09.560]',0.03
'[16:00:09.564]',0.035
'[16:00:09.568]',0.04
'[16:00:09.572]',0.055
'[16:00:09.576]',0.03
'[16:00:09.580]',0.045
'[16:00:09.584]',0.06
'[16:00:09.588]',0.05
'[16:00:09.592]',0.05
'[16:00:09.596]',0.045
'[16:00:09.600]',0.065
'[16:00:09.604]',0.065
'[16:00:09.608]',0.035
'[16:00:09.612]',0.04
'[16:00:09.616]',0.055
'[16:00:09.620]',0.05
'[16:00:09.624]',0.055
'[16:00:09.628]',0.055
'[16:00:09.632]',0.04
'[16:00:09.636]',0.045
'[16:00:09.640]',0.03
'[16:00:09.644]',0.055
'[16:00:09.648]',0.04
'[16:00:09.652]',0.04
'[16:00:09.656]',0.04
'[16:00:09.660]',0.06
'[16:00:09.664]',0.05
'[16:00:09.668]',0.055
'[16:00:09.672]',0.05
'[16:00:09.676]',0.065
'[16:00:09.680]',0.045
'[16:00:09.684]',0.065
'[16:00:09.688]',0.07
'[16:00:09.692]',0.075
'[16:00:09.696]',0.085
'[16:00:09.700]',0.08
'[16:00:09.704]',0.055
'[16:00:09.708]',0.085
'[16:00:09.712]',0.065
'[16:00:09.716]',0.06
'[16:00:09.720]',0.045
'[16:00:09.724]',0.035
'[16:00:09.728]',0.045
'[16:00:09.732]',0.035
'[16:00:09.736]',0.04
'[16:00:09.740]',0.05
'[16:00:09.744]',0.045
'[16:00:09.748]',0.055
'[16:00:09.752]',0.03
'[16:00:09.756]',0.025
'[16:00:09.760]',0.015
'[16:00:09.764]',0
'[16:00:09.768]',0.03
'[16:00:09.772]',0.015
'[16:00:09.776]',0
'[16:00:09.780]',0.025
'[16:00:09.784]',0.02
'[16:00:09.788]',0.015
'[16:00:09.792]',0.01
'[16:00:09.796]',0.025
'[16:00:09.800]',0.015
'[16:00:09.804]',0.015
'[16:00:09.808]',0.01
'[16:00:09.812]',0.03
'[16:00:09.816]',0.015
'[16:00:09.820]',0.035
'[16:00:09.824]',0.03
'[16:00:09.828]',0.03
'[16:00:09.832]',0.015
'[16:00:09.836]',0.035
'[16:00:09.840]',0.03
'[16:00:09.844]',0.03
'[16:00:09.848]',0.03
'[16:00:09.852]',0.055
'[16:00:09.856]',0.05
'[16:00:09.860]',0.12
'[16:00:09.864]',0.225
'[16:00:09.868]',0.315
'[16:00:09.872]',0.39
'[16:00:09.876]',0.375
'[16:00:09.880]',0.205
'[16:00:09.884]',-0.09
'[16:00:09.888]',-0.43
'[16:00:09.892]',-0.74
'[16:00:09.896]',-0.995
'[16:00:09.900]',-0.955
'[16:00:09.904]',-0.82
'[16:00:09.908]',-0.595
'[16:00:09.912]',-0.4
'[16:00:09.916]',-0.21
'[16:00:09.920]',-0.095
'[16:00:09.924]',-0.08
'[16:00:09.928]',-0.04
'[16:00:09.932]',-0.01
'[16:00:09.936]',0.035
'[16:00:09.940]',0.06
'[16:00:09.944]',0.1
'[16:00:09.948]',0.11
'[16:00:09.952]',0.105
'[16:00:09.956]',0.12
'[16:00:09.960]',0.125
'[16:00:09.964]',0.12
'[16:00:09.968]',0.11
'[16:00:09.972]',0.13
'[16:00:09.976]',0.115
'[16:00:09.980]',0.12
'[16:00:09.984]',0.135
'[16:00:09.988]',0.125
'[16:00:09.992]',0.135
'[16:00:09.996]',0.15
'[16:00:10.000]',0.145
'[16:00:10.004]',0.145
'[16:00:10.008]',0.155
'[16:00:10.012]',0.165
'[16:00:10.016]',0.16
'[16:00:10.020]',0.18
'[16:00:10.024]',0.195
'[16:00:10.028]',0.2
'[16:00:10.032]',0.2
'[16:00:10.036]',0.22
'[16:00:10.040]',0.23
'[16:00:10.044]',0.245
'[16:00:10.048]',0.245
'[16:00:10.052]',0.265
'[16:00:10.056]',0.285
'[16:00:10.060]',0.275
'[16:00:10.064]',0.3
'[16:00:10.068]',0.305
'[16:00:10.072]',0.305
'[16:00:10.076]',0.32
'[16:00:10.080]',0.33
'[16:00:10.084]',0.32
'[16:00:10.088]',0.33
'[16:00:10.092]',0.33
'[16:00:10.096]',0.33
'[16:00:10.100]',0.335
'[16:00:10.104]',0.345
'[16:00:10.108]',0.345
'[16:00:10.112]',0.34
'[16:00:10.116]',0.33
'[16:00:10.120]',0.325
'[16:00:10.124]',0.31
'[16:00:10.128]',0.28
'[16:00:10.132]',0.24
'[16:00:10.136]',0.225
'[16:00:10.140]',0.18
'[16:00:10.144]',0.15
'[16:00:10.148]',0.13
'[16:00:10.152]',0.095
'[16:00:10.156]',0.075
'[16:00:10.160]',0.075
'[16:00:10.164]',0.055
'[16:00:10.168]',0.06
'[16:00:10.172]',0.035
'[16:00:10.176]',0.03
'[16:00:10.180]',0.01
'[16:00:10.184]',0.01
'[16:00:10.188]',0.005
'[16:00:10.192]',0.02
'[16:00:10.196]',0
'[16:00:10.200]',0.02
'[16:00:10.204]',0.01
'[16:00:10.208]',0.01
'[16:00:10.212]',0
'[16:00:10.216]',0.01
'[16:00:10.220]',0
'[16:00:10.224]',0
'[16:00:10.228]',0.015
'[16:00:10.232]',0.02
'[16:00:10.236]',0.03
'[16:00:10.240]',0.03
'[16:00:10.244]',0.015
'[16:00:10.248]',0.025
'[16:00:10.252]',0.035
'[16:00:10.256]',0.02
'[16:00:10.260]',0.03
'[16:00:10.264]',0.025
'[16:00:10.268]',0.025
'[16:00:10.272]',0.015
'[16:00:10.276]',0.015
'[16:00:10.280]',0.03
'[16:00:10.284]',0.03
'[16:00:10.288]',0.03
'[16:00:10.292]',0.035
'[16:00:10.296]',0.03
'[16:00:10.300]',0.035
'[16:00:10.304]',0.035
'[16:00:10.308]',0.055
'[16:00:10.312]',0.035
'[16:00:10.316]',0.03
'[16:00:10.320]',0.025
'[16:00:10.324]',0.045
'[16:00:10.328]',0.04
'[16:00:10.332]',0.04
'[16:00:10.336]',0.045
'[16:00:10.340]',0.035
'[16:00:10.344]',0.065
'[16:00:10.348]',0.12
'[16:00:10.352]',0.235
'[16:00:10.356]',0.36
'[16:00:10.360]',0.445
'[16:00:10.364]',0.415
'[16:00:10.368]',0.22
'[16:00:10.372]',-0.11
'[16:00:10.376]',-0.515
'[16:00:10.380]',-0.9
'[16:00:10.384]',-1.11
'[16:00:10.388]',-1.06
'[16:00:10.392]',-0.84
'[16:00:10.396]',-0.6
'[16:00:10.400]',-0.36
'[16:00:10.404]',-0.185
'[16:00:10.408]',-0.08
'[16:00:10.412]',-0.055
'[16:00:10.416]',-0.015
'[16:00:10.420]',0.02
'[16:00:10.424]',0.035
'[16:00:10.428]',0.06
'[16:00:10.432]',0.08
'[16:00:10.436]',0.08
'[16:00:10.440]',0.075
'[16:00:10.444]',0.095
'[16:00:10.448]',0.085
'[16:00:10.452]',0.09
'[16:00:10.456]',0.085
'[16:00:10.460]',0.115
'[16:00:10.464]',0.115
'[16:00:10.468]',0.12
'[16:00:10.472]',0.125
'[16:00:10.476]',0.12
'[16:00:10.480]',0.125
'[16:00:10.484]',0.125
'[16:00:10.488]',0.13
'[16:00:10.492]',0.125
'[16:00:10.496]',0.135
'[16:00:10.500]',0.155
'[16:00:10.504]',0.165
'[16:00:10.508]',0.16
'[16:00:10.512]',0.165
'[16:00:10.516]',0.185
'[16:00:10.520]',0.19
'[16:00:10.524]',0.19
'[16:00:10.528]',0.215
'[16:00:10.532]',0.23
'[16:00:10.536]',0.24
'[16:00:10.540]',0.255
'[16:00:10.544]',0.265
'[16:00:10.548]',0.28
'[16:00:10.552]',0.295
'[16:00:10.556]',0.29
'[16:00:10.560]',0.3
'[16:00:10.564]',0.29
'[16:00:10.568]',0.29
'[16:00:10.572]',0.285
'[16:00:10.576]',0.295
'[16:00:10.580]',0.29
'[16:00:10.584]',0.29
'[16:00:10.588]',0.27
'[16:00:10.592]',0.265
'[16:00:10.596]',0.26
'[16:00:10.600]',0.255
'[16:00:10.604]',0.225
'[16:00:10.608]',0.22
'[16:00:10.612]',0.195
'[16:00:10.616]',0.165
'[16:00:10.620]',0.165
'[16:00:10.624]',0.125
'[16:00:10.628]',0.095
'[16:00:10.632]',0.095
'[16:00:10.636]',0.08
'[16:00:10.640]',0.065
'[16:00:10.644]',0.08
'[16:00:10.648]',0.06
'[16:00:10.652]',0.06
'[16:00:10.656]',0.045
'[16:00:10.660]',0.055
'[16:00:10.664]',0.055
'[16:00:10.668]',0.055
'[16:00:10.672]',0.05
'[16:00:10.676]',0.065
'[16:00:10.680]',0.075
'[16:00:10.684]',0.055
'[16:00:10.688]',0.06
'[16:00:10.692]',0.05
'[16:00:10.696]',0.065
'[16:00:10.700]',0.06
'[16:00:10.704]',0.065
'[16:00:10.708]',0.055
'[16:00:10.712]',0.055
'[16:00:10.716]',0.065
'[16:00:10.720]',0.065
'[16:00:10.724]',0.055
'[16:00:10.728]',0.05
'[16:00:10.732]',0.05
'[16:00:10.736]',0.05
'[16:00:10.740]',0.04
'[16:00:10.744]',0.06
'[16:00:10.748]',0.05
'[16:00:10.752]',0.05
'[16:00:10.756]',0.04
'[16:00:10.760]',0.055
'[16:00:10.764]',0.05
'[16:00:10.768]',0.045
'[16:00:10.772]',0.05
'[16:00:10.776]',0.055
'[16:00:10.780]',0.035
'[16:00:10.784]',0.045
'[16:00:10.788]',0.04
'[16:00:10.792]',0.04
'[16:00:10.796]',0.025
'[16:00:10.800]',0.05
'[16:00:10.804]',0.045
'[16:00:10.808]',0.04
'[16:00:10.812]',0.03
'[16:00:10.816]',0.045
'[16:00:10.820]',0.035
'[16:00:10.824]',0.04
'[16:00:10.828]',0.025
'[16:00:10.832]',0.035
'[16:00:10.836]',0.03
'[16:00:10.840]',0.045
'[16:00:10.844]',0.055
'[16:00:10.848]',0.05
'[16:00:10.852]',0.035
'[16:00:10.856]',0.055
'[16:00:10.860]',0.05
'[16:00:10.864]',0.04
'[16:00:10.868]',0.04
'[16:00:10.872]',0.04
'[16:00:10.876]',0.035
'[16:00:10.880]',0.035
'[16:00:10.884]',0.03
'[16:00:10.888]',0.015
'[16:00:10.892]',0.025
'[16:00:10.896]',0.045
'[16:00:10.900]',0.015
'[16:00:10.904]',0.03
'[16:00:10.908]',0.035
'[16:00:10.912]',0.03
'[16:00:10.916]',0.035
'[16:00:10.920]',0.035
'[16:00:10.924]',0.04
'[16:00:10.928]',0.015
'[16:00:10.932]',0.03
'[16:00:10.936]',0.04
'[16:00:10.940]',0.04
'[16:00:10.944]',0.035
'[16:00:10.948]',0.045
'[16:00:10.952]',0.035
'[16:00:10.956]',0.035
'[16:00:10.960]',0.025
'[16:00:10.964]',0.035
'[16:00:10.968]',0
'[16:00:10.972]',0.035
'[16:00:10.976]',0.04
'[16:00:10.980]',0.03
'[16:00:10.984]',0.02
'[16:00:10.988]',0.03
'[16:00:10.992]',0.04
'[16:00:10.996]',0.04
'[16:00:11.000]',0.03
'[16:00:11.004]',0.035
'[16:00:11.008]',0.03
'[16:00:11.012]',0.025
'[16:00:11.016]',0.015
'[16:00:11.020]',0.035
'[16:00:11.024]',0.03
'[16:00:11.028]',0.04
'[16:00:11.032]',0.04
'[16:00:11.036]',0.035
'[16:00:11.040]',0.035
'[16:00:11.044]',0.055
'[16:00:11.048]',0.055
'[16:00:11.052]',0.065
'[16:00:11.056]',0.075
'[16:00:11.060]',0.035
'[16:00:11.064]',0.035
'[16:00:11.068]',0.035
'[16:00:11.072]',0.035
'[16:00:11.076]',0.015
'[16:00:11.080]',0.01
'[16:00:11.084]',0.025
'[16:00:11.088]',0.005
'[16:00:11.092]',0.005
'[16:00:11.096]',0
'[16:00:11.100]',-0.005
'[16:00:11.104]',-0.015
'[16:00:11.108]',0
'[16:00:11.112]',0
'[16:00:11.116]',0
'[16:00:11.120]',0
'[16:00:11.124]',0.01
'[16:00:11.128]',0
'[16:00:11.132]',0.015
'[16:00:11.136]',0.01
'[16:00:11.140]',-0.005
'[16:00:11.144]',0
'[16:00:11.148]',0
'[16:00:11.152]',0
'[16:00:11.156]',0
'[16:00:11.160]',0.02
'[16:00:11.164]',0.015
'[16:00:11.168]',0.01
'[16:00:11.172]',0.01
'[16:00:11.176]',0.025
'[16:00:11.180]',0
'[16:00:11.184]',0
'[16:00:11.188]',0.01
'[16:00:11.192]',0.015
'[16:00:11.196]',0.025
'[16:00:11.200]',0.055
'[16:00:11.204]',0.105
'[16:00:11.208]',0.2
'[16:00:11.212]',0.3
'[16:00:11.216]',0.365
'[16:00:11.220]',0.35
'[16:00:11.224]',0.195
'[16:00:11.228]',-0.1
'[16:00:11.232]',-0.465
'[16:00:11.236]',-0.8
'[16:00:11.240]',-1.02
'[16:00:11.244]',-1
'[16:00:11.248]',-0.815
'[16:00:11.252]',-0.615
'[16:00:11.256]',-0.415
'[16:00:11.260]',-0.24
'[16:00:11.264]',-0.12
'[16:00:11.268]',-0.075
'[16:00:11.272]',-0.045
'[16:00:11.276]',-0.005
'[16:00:11.280]',0.015
'[16:00:11.284]',0.045
'[16:00:11.288]',0.06
'[16:00:11.292]',0.08
'[16:00:11.296]',0.09
'[16:00:11.300]',0.1
'[16:00:11.304]',0.115
'[16:00:11.308]',0.105
'[16:00:11.312]',0.1
'[16:00:11.316]',0.125
'[16:00:11.320]',0.115
'[16:00:11.324]',0.13
'[16:00:11.328]',0.12
'[16:00:11.332]',0.115
'[16:00:11.336]',0.125
'[16:00:11.340]',0.13
'[16:00:11.344]',0.13
'[16:00:11.348]',0.15
'[16:00:11.352]',0.14
'[16:00:11.356]',0.15
'[16:00:11.360]',0.16
'[16:00:11.364]',0.17
'[16:00:11.368]',0.19
'[16:00:11.372]',0.195
'[16:00:11.376]',0.205
'[16:00:11.380]',0.2
'[16:00:11.384]',0.235
'[16:00:11.388]',0.235
'[16:00:11.392]',0.24
'[16:00:11.396]',0.26
'[16:00:11.400]',0.275
'[16:00:11.404]',0.28
'[16:00:11.408]',0.285
'[16:00:11.412]',0.305
'[16:00:11.416]',0.315
'[16:00:11.420]',0.32
'[16:00:11.424]',0.32
'[16:00:11.428]',0.335
'[16:00:11.432]',0.34
'[16:00:11.436]',0.345
'[16:00:11.440]',0.345
'[16:00:11.444]',0.315
'[16:00:11.448]',0.325
'[16:00:11.452]',0.35
'[16:00:11.456]',0.325
'[16:00:11.460]',0.345
'[16:00:11.464]',0.335
'[16:00:11.468]',0.315
'[16:00:11.472]',0.285
'[16:00:11.476]',0.285
'[16:00:11.480]',0.26
'[16:00:11.484]',0.235
'[16:00:11.488]',0.195
'[16:00:11.492]',0.18
'[16:00:11.496]',0.155
'[16:00:11.500]',0.15
'[16:00:11.504]',0.13
'[16:00:11.508]',0.11
'[16:00:11.512]',0.095
'[16:00:11.516]',0.07
'[16:00:11.520]',0.075
'[16:00:11.524]',0.06
'[16:00:11.528]',0.06
'[16:00:11.532]',0.045
'[16:00:11.536]',0.035
'[16:00:11.540]',0.025
'[16:00:11.544]',0.04
'[16:00:11.548]',0.035
'[16:00:11.552]',0.025
'[16:00:11.556]',0.01
'[16:00:11.560]',0.03
'[16:00:11.564]',0.03
'[16:00:11.568]',0.025
'[16:00:11.572]',0.025
'[16:00:11.576]',0.03
'[16:00:11.580]',0.035
'[16:00:11.584]',0.035
'[16:00:11.588]',0.025
'[16:00:11.592]',0.04
'[16:00:11.596]',0.06
'[16:00:11.600]',0.065
'[16:00:11.604]',0.06
'[16:00:11.608]',0.065
'[16:00:11.612]',0.06
'[16:00:11.616]',0.055
'[16:00:11.620]',0.055
'[16:00:11.624]',0.05
'[16:00:11.628]',0.04
'[16:00:11.632]',0.05
'[16:00:11.636]',0.04
'[16:00:11.640]',0.045
'[16:00:11.644]',0.05
'[16:00:11.648]',0.07
'[16:00:11.652]',0.07
'[16:00:11.656]',0.065
'[16:00:11.660]',0.04
'[16:00:11.664]',0.06
'[16:00:11.668]',0.065
'[16:00:11.672]',0.07
'[16:00:11.676]',0.06
'[16:00:11.680]',0.07
'[16:00:11.684]',0.065
'[16:00:11.688]',0.045
'[16:00:11.692]',0.05
'[16:00:11.696]',0.06
'[16:00:11.700]',0.045
'[16:00:11.704]',0.065
'[16:00:11.708]',0.055
'[16:00:11.712]',0.045
'[16:00:11.716]',0.04
'[16:00:11.720]',0.055
'[16:00:11.724]',0.065
'[16:00:11.728]',0.055
'[16:00:11.732]',0.06
'[16:00:11.736]',0.05
'[16:00:11.740]',0.035
'[16:00:11.744]',0.04
'[16:00:11.748]',0.04
'[16:00:11.752]',0.06
'[16:00:11.756]',0.05
'[16:00:11.760]',0.065
'[16:00:11.764]',0.07
'[16:00:11.768]',0.06
'[16:00:11.772]',0.07
'[16:00:11.776]',0.06
'[16:00:11.780]',0.07
'[16:00:11.784]',0.065
'[16:00:11.788]',0.045
'[16:00:11.792]',0.06
'[16:00:11.796]',0.045
'[16:00:11.800]',0.025
'[16:00:11.804]',0.035
'[16:00:11.808]',0.025
'[16:00:11.812]',0.01
'[16:00:11.816]',0.03
'[16:00:11.820]',0.025
'[16:00:11.824]',0.015
'[16:00:11.828]',0.03
'[16:00:11.832]',0.015
'[16:00:11.836]',0.005
'[16:00:11.840]',0.025
'[16:00:11.844]',0.02
'[16:00:11.848]',0.035
'[16:00:11.852]',0.005
'[16:00:11.856]',0.005
'[16:00:11.860]',0.03
'[16:00:11.864]',0.025
'[16:00:11.868]',0.01
'[16:00:11.872]',0.01
'[16:00:11.876]',0.02
'[16:00:11.880]',0.025
'[16:00:11.884]',0
'[16:00:11.888]',0.02
'[16:00:11.892]',0.035
'[16:00:11.896]',0.03
'[16:00:11.900]',0.03
'[16:00:11.904]',0.025
'[16:00:11.908]',0.015
'[16:00:11.912]',0.025
'[16:00:11.916]',0.02
'[16:00:11.920]',0.02
'[16:00:11.924]',0.02
'[16:00:11.928]',0.02
'[16:00:11.932]',0.04
'[16:00:11.936]',0.065
'[16:00:11.940]',0.14
'[16:00:11.944]',0.24
'[16:00:11.948]',0.345
'[16:00:11.952]',0.405
'[16:00:11.956]',0.4
'[16:00:11.960]',0.24
'[16:00:11.964]',-0.04
'[16:00:11.968]',-0.38
'[16:00:11.972]',-0.76
'[16:00:11.976]',-1005
'[16:00:11.980]',-1
'[16:00:11.984]',-0.815
'[16:00:11.988]',-0.605
'[16:00:11.992]',-0.395
'[16:00:11.996]',-0.2
'[16:00:12.000]',-0.095
'[16:00:12.004]',-0.065
'[16:00:12.008]',-0.025
'[16:00:12.012]',0
'[16:00:12.016]',0.025
'[16:00:12.020]',0.05
'[16:00:12.024]',0.085
'[16:00:12.028]',0.08
'[16:00:12.032]',0.115
'[16:00:12.036]',0.105
'[16:00:12.040]',0.12
'[16:00:12.044]',0.115
'[16:00:12.048]',0.125
'[16:00:12.052]',0.125
'[16:00:12.056]',0.125
'[16:00:12.060]',0.13
'[16:00:12.064]',0.13
'[16:00:12.068]',0.12
'[16:00:12.072]',0.13
'[16:00:12.076]',0.14
'[16:00:12.080]',0.125
'[16:00:12.084]',0.13
'[16:00:12.088]',0.155
'[16:00:12.092]',0.15
'[16:00:12.096]',0.165
'[16:00:12.100]',0.185
'[16:00:12.104]',0.18
'[16:00:12.108]',0.185
'[16:00:12.112]',0.195
'[16:00:12.116]',0.22
'[16:00:12.120]',0.22
'[16:00:12.124]',0.235
'[16:00:12.128]',0.265
'[16:00:12.132]',0.255
'[16:00:12.136]',0.27
'[16:00:12.140]',0.27
'[16:00:12.144]',0.29
'[16:00:12.148]',0.265
'[16:00:12.152]',0.32
'[16:00:12.156]',0.31
'[16:00:12.160]',0.305
'[16:00:12.164]',0.315
'[16:00:12.168]',0.31
'[16:00:12.172]',0.305
'[16:00:12.176]',0.315
'[16:00:12.180]',0.31
'[16:00:12.184]',0.305
'[16:00:12.188]',0.29
'[16:00:12.192]',0.295
'[16:00:12.196]',0.275
'[16:00:12.200]',0.285
'[16:00:12.204]',0.265
'[16:00:12.208]',0.225
'[16:00:12.212]',0.2
'[16:00:12.216]',0.18
'[16:00:12.220]',0.145
'[16:00:12.224]',0.14
'[16:00:12.228]',0.115
'[16:00:12.232]',0.095
'[16:00:12.236]',0.07
'[16:00:12.240]',0.065
'[16:00:12.244]',0.045
'[16:00:12.248]',0.035
'[16:00:12.252]',0.025
'[16:00:12.256]',0.05
'[16:00:12.260]',0.02
'[16:00:12.264]',0.04
'[16:00:12.268]',0.04
'[16:00:12.272]',0.02
'[16:00:12.276]',0.005
'[16:00:12.280]',0.02
'[16:00:12.284]',0.02
'[16:00:12.288]',0.02
'[16:00:12.292]',0.005
'[16:00:12.296]',0.02
'[16:00:12.300]',0.01
'[16:00:12.304]',0.035
'[16:00:12.308]',0.04
'[16:00:12.312]',0.035
'[16:00:12.316]',0.025
'[16:00:12.320]',0.025
'[16:00:12.324]',0.02
'[16:00:12.328]',0.035
'[16:00:12.332]',0.04
'[16:00:12.336]',0.04
'[16:00:12.340]',0.04
'[16:00:12.344]',0.03
'[16:00:12.348]',0.02
'[16:00:12.352]',0.045
'[16:00:12.356]',0.04
'[16:00:12.360]',0.045
'[16:00:12.364]',0.05
'[16:00:12.368]',0.035
'[16:00:12.372]',0.035
'[16:00:12.376]',0.045
'[16:00:12.380]',0.035
'[16:00:12.384]',0.05
'[16:00:12.388]',0.03
'[16:00:12.392]',0.04
'[16:00:12.396]',0.035
'[16:00:12.400]',0.03
'[16:00:12.404]',0.04
'[16:00:12.408]',0.035
'[16:00:12.412]',0.04
'[16:00:12.416]',0.015
'[16:00:12.420]',0.025
'[16:00:12.424]',0
'[16:00:12.428]',0.02
'[16:00:12.432]',0.035
'[16:00:12.436]',0.02
'[16:00:12.440]',0.005
'[16:00:12.444]',0.015
'[16:00:12.448]',0.025
'[16:00:12.452]',0.005
'[16:00:12.456]',0.005
'[16:00:12.460]',0.005
'[16:00:12.464]',0.01
'[16:00:12.468]',0.01
'[16:00:12.472]',0.005
'[16:00:12.476]',0.035
'[16:00:12.480]',0.03
'[16:00:12.484]',0.025
'[16:00:12.488]',0.03
'[16:00:12.492]',0.02
'[16:00:12.496]',0.04
'[16:00:12.500]',0.03
'[16:00:12.504]',0.025
'[16:00:12.508]',0.025
'[16:00:12.512]',0.045
'[16:00:12.516]',0.035
'[16:00:12.520]',0.03
'[16:00:12.524]',0.045
'[16:00:12.528]',0.025
'[16:00:12.532]',0.03
'[16:00:12.536]',0.015
'[16:00:12.540]',0.01
'[16:00:12.544]',0.005
'[16:00:12.548]',0
'[16:00:12.552]',0.01
'[16:00:12.556]',0
'[16:00:12.560]',0
'[16:00:12.564]',0
'[16:00:12.568]',0
'[16:00:12.572]',0
'[16:00:12.576]',0
'[16:00:12.580]',0
'[16:00:12.584]',-0.005
'[16:00:12.588]',-0.005
'[16:00:12.592]',0
'[16:00:12.596]',0
'[16:00:12.600]',-0.005
'[16:00:12.604]',-0.005
'[16:00:12.608]',0.005
'[16:00:12.612]',0
'[16:00:12.616]',0
'[16:00:12.620]',0
'[16:00:12.624]',0.01
'[16:00:12.628]',0.015
'[16:00:12.632]',0.01
'[16:00:12.636]',0
'[16:00:12.640]',0.005
'[16:00:12.644]',0.02
'[16:00:12.648]',0.01
'[16:00:12.652]',-0.005
'[16:00:12.656]',-0.005
'[16:00:12.660]',0.015
'[16:00:12.664]',0.025
'[16:00:12.668]',0.035
'[16:00:12.672]',0.085
'[16:00:12.676]',0.195
'[16:00:12.680]',0.3
'[16:00:12.684]',0.385
'[16:00:12.688]',0.41
'[16:00:12.692]',0.33
'[16:00:12.696]',0.135
'[16:00:12.700]',-0.195
'[16:00:12.704]',-0.565
'[16:00:12.708]',-0.88
'[16:00:12.712]',-1005
'[16:00:12.716]',-0.895
'[16:00:12.720]',-0.685
'[16:00:12.724]',-0.475
'[16:00:12.728]',-0.275
'[16:00:12.732]',-0.11
'[16:00:12.736]',-0.045
'[16:00:12.740]',-0.045
'[16:00:12.744]',-0.005
'[16:00:12.748]',0.02
'[16:00:12.752]',0.06
'[16:00:12.756]',0.085
'[16:00:12.760]',0.1
'[16:00:12.764]',0.11
'[16:00:12.768]',0.115
'[16:00:12.772]',0.1
'[16:00:12.776]',0.105
'[16:00:12.780]',0.11
'[16:00:12.784]',0.135
'[16:00:12.788]',0.105
'[16:00:12.792]',0.125
'[16:00:12.796]',0.12
'[16:00:12.800]',0.13
'[16:00:12.804]',0.125
'[16:00:12.808]',0.14
'[16:00:12.812]',0.125
'[16:00:12.816]',0.145
'[16:00:12.820]',0.14
'[16:00:12.824]',0.15
'[16:00:12.828]',0.15
'[16:00:12.832]',0.16
'[16:00:12.836]',0.155
'[16:00:12.840]',0.175
'[16:00:12.844]',0.19
'[16:00:12.848]',0.205
'[16:00:12.852]',0.215
'[16:00:12.856]',0.23
'[16:00:12.860]',0.235
'[16:00:12.864]',0.25
'[16:00:12.868]',0.25
'[16:00:12.872]',0.26
'[16:00:12.876]',0.265
'[16:00:12.880]',0.28
'[16:00:12.884]',0.275
'[16:00:12.888]',0.3
'[16:00:12.892]',0.315
'[16:00:12.896]',0.305
'[16:00:12.900]',0.3
'[16:00:12.904]',0.31
'[16:00:12.908]',0.305
'[16:00:12.912]',0.31
'[16:00:12.916]',0.29
'[16:00:12.920]',0.3
'[16:00:12.924]',0.285
'[16:00:12.928]',0.3
'[16:00:12.932]',0.275
'[16:00:12.936]',0.255
'[16:00:12.940]',0.24
'[16:00:12.944]',0.215
'[16:00:12.948]',0.195
'[16:00:12.952]',0.18
'[16:00:12.956]',0.14
'[16:00:12.960]',0.115
'[16:00:12.964]',0.1
'[16:00:12.968]',0.07
'[16:00:12.972]',0.06
'[16:00:12.976]',0.065
'[16:00:12.980]',0.05
'[16:00:12.984]',0.025
'[16:00:12.988]',0.035
'[16:00:12.992]',0.045
'[16:00:12.996]',0.03
'[16:00:13.000]',0.025
'[16:00:13.004]',0.025
'[16:00:13.008]',0.02
'[16:00:13.012]',0.01
'[16:00:13.016]',0.02
'[16:00:13.020]',0.005
'[16:00:13.024]',0.035
'[16:00:13.028]',0.035
'[16:00:13.032]',0.01
'[16:00:13.036]',0
'[16:00:13.040]',0.02
'[16:00:13.044]',0
'[16:00:13.048]',0.005
'[16:00:13.052]',0.035
'[16:00:13.056]',0.015
'[16:00:13.060]',0.02
'[16:00:13.064]',0.03
'[16:00:13.068]',0.02
'[16:00:13.072]',0.005
'[16:00:13.076]',0.015
'[16:00:13.080]',0.035
'[16:00:13.084]',0.03
'[16:00:13.088]',0.02
'[16:00:13.092]',0.03
'[16:00:13.096]',0.015
'[16:00:13.100]',0.015
'[16:00:13.104]',0.015
'[16:00:13.108]',0.015
'[16:00:13.112]',0.025
'[16:00:13.116]',0.03
'[16:00:13.120]',0.015
'[16:00:13.124]',0.03
'[16:00:13.128]',0.01
'[16:00:13.132]',0.02
'[16:00:13.136]',0.025
'[16:00:13.140]',0.005
'[16:00:13.144]',0.01
'[16:00:13.148]',0.015
'[16:00:13.152]',0.005
'[16:00:13.156]',0.02
'[16:00:13.160]',0.005
'[16:00:13.164]',0.025
'[16:00:13.168]',0
'[16:00:13.172]',-0.005
'[16:00:13.176]',0
'[16:00:13.180]',0.005
'[16:00:13.184]',0
'[16:00:13.188]',0
'[16:00:13.192]',0.01
'[16:00:13.196]',0
'[16:00:13.200]',-0.02
'[16:00:13.204]',0
'[16:00:13.208]',-0.005
'[16:00:13.212]',0
'[16:00:13.216]',0
'[16:00:13.220]',0.01
'[16:00:13.224]',0.01
'[16:00:13.228]',0.01
'[16:00:13.232]',0.035
'[16:00:13.236]',0.015
'[16:00:13.240]',0.015
'[16:00:13.244]',0.05
'[16:00:13.248]',0.03
'[16:00:13.252]',0.03
'[16:00:13.256]',0.02
'[16:00:13.260]',0.015
'[16:00:13.264]',0.005
'[16:00:13.268]',0
'[16:00:13.272]',0.005
'[16:00:13.276]',0.01
'[16:00:13.280]',0
'[16:00:13.284]',-0.01
'[16:00:13.288]',0.005
'[16:00:13.292]',-0.01
'[16:00:13.296]',0
'[16:00:13.300]',-0.015
'[16:00:13.304]',-0.02
'[16:00:13.308]',-0.025
'[16:00:13.312]',-0.015
'[16:00:13.316]',0
'[16:00:13.320]',-0.03
'[16:00:13.324]',0
'[16:00:13.328]',0
'[16:00:13.332]',-0.01
'[16:00:13.336]',-0.015
'[16:00:13.340]',-0.005
'[16:00:13.344]',-0.015
'[16:00:13.348]',0
'[16:00:13.352]',0
'[16:00:13.356]',0
'[16:00:13.360]',-0.01
'[16:00:13.364]',-0.015
'[16:00:13.368]',-0.005
'[16:00:13.372]',0.005
'[16:00:13.376]',0
'[16:00:13.380]',0.005
'[16:00:13.384]',0.005
'[16:00:13.388]',0.005
'[16:00:13.392]',-0.015
'[16:00:13.396]',0.025
'[16:00:13.400]',0.045
'[16:00:13.404]',0.12
'[16:00:13.408]',0.24
'[16:00:13.412]',0.33
'[16:00:13.416]',0.385
'[16:00:13.420]',0.33
'[16:00:13.424]',0.175
'[16:00:13.428]',-0.11
'[16:00:13.432]',-0.48
'[16:00:13.436]',-0.785
'[16:00:13.440]',-0.96
'[16:00:13.444]',-0.855
'[16:00:13.448]',-0.665
'[16:00:13.452]',-0.46
'[16:00:13.456]',-0.255
'[16:00:13.460]',-0.115
'[16:00:13.464]',-0.05
'[16:00:13.468]',-0.02
'[16:00:13.472]',-0.015
'[16:00:13.476]',0.01
'[16:00:13.480]',0.025
'[16:00:13.484]',0.035
'[16:00:13.488]',0.07
'[16:00:13.492]',0.085
'[16:00:13.496]',0.07
'[16:00:13.500]',0.065
'[16:00:13.504]',0.075
'[16:00:13.508]',0.095
'[16:00:13.512]',0.09
'[16:00:13.516]',0.1
'[16:00:13.520]',0.095
'[16:00:13.524]',0.11
'[16:00:13.528]',0.11
'[16:00:13.532]',0.115
'[16:00:13.536]',0.095
'[16:00:13.540]',0.12
'[16:00:13.544]',0.12
'[16:00:13.548]',0.125
'[16:00:13.552]',0.11
'[16:00:13.556]',0.115
'[16:00:13.560]',0.13
'[16:00:13.564]',0.135
'[16:00:13.568]',0.145
'[16:00:13.572]',0.15
'[16:00:13.576]',0.175
'[16:00:13.580]',0.185
'[16:00:13.584]',0.195
'[16:00:13.588]',0.21
'[16:00:13.592]',0.24
'[16:00:13.596]',0.25
'[16:00:13.600]',0.25
'[16:00:13.604]',0.24
'[16:00:13.608]',0.265
'[16:00:13.612]',0.285
'[16:00:13.616]',0.265
'[16:00:13.620]',0.285
'[16:00:13.624]',0.275
'[16:00:13.628]',0.275
'[16:00:13.632]',0.28
'[16:00:13.636]',0.285
'[16:00:13.640]',0.29
'[16:00:13.644]',0.28
'[16:00:13.648]',0.265
'[16:00:13.652]',0.275
'[16:00:13.656]',0.275
'[16:00:13.660]',0.28
'[16:00:13.664]',0.235
'[16:00:13.668]',0.225
'[16:00:13.672]',0.205
'[16:00:13.676]',0.19
'[16:00:13.680]',0.175
'[16:00:13.684]',0.13
'[16:00:13.688]',0.13
'[16:00:13.692]',0.115
'[16:00:13.696]',0.085
'[16:00:13.700]',0.09
'[16:00:13.704]',0.075
'[16:00:13.708]',0.075
'[16:00:13.712]',0.045
'[16:00:13.716]',0.04
'[16:00:13.720]',0.04
'[16:00:13.724]',0.045
'[16:00:13.728]',0.025
'[16:00:13.732]',0.035
'[16:00:13.736]',0.04
'[16:00:13.740]',0.04
'[16:00:13.744]',0.03
'[16:00:13.748]',0.05
'[16:00:13.752]',0.035
'[16:00:13.756]',0.04
'[16:00:13.760]',0.03
'[16:00:13.764]',0.035
'[16:00:13.768]',0.03
'[16:00:13.772]',0.035
'[16:00:13.776]',0.03
'[16:00:13.780]',0.05
'[16:00:13.784]',0.025
'[16:00:13.788]',0.06
'[16:00:13.792]',0.055
'[16:00:13.796]',0.06
'[16:00:13.800]',0.045
'[16:00:13.804]',0.05
'[16:00:13.808]',0.045
'[16:00:13.812]',0.05
'[16:00:13.816]',0.065
'[16:00:13.820]',0.06
'[16:00:13.824]',0.04
'[16:00:13.828]',0.05
'[16:00:13.832]',0.065
'[16:00:13.836]',0.05
'[16:00:13.840]',0.035
'[16:00:13.844]',0.045
'[16:00:13.848]',0.055
'[16:00:13.852]',0.055
'[16:00:13.856]',0.05
'[16:00:13.860]',0.05
'[16:00:13.864]',0.04
'[16:00:13.868]',0.05
'[16:00:13.872]',0.06
'[16:00:13.876]',0.04
'[16:00:13.880]',0.045
'[16:00:13.884]',0.05
'[16:00:13.888]',0.025
'[16:00:13.892]',0.045
'[16:00:13.896]',0.04
'[16:00:13.900]',0.05
'[16:00:13.904]',0.04
'[16:00:13.908]',0.055
'[16:00:13.912]',0.03
'[16:00:13.916]',0.03
'[16:00:13.920]',0.03
'[16:00:13.924]',0.02
'[16:00:13.928]',0.035
'[16:00:13.932]',0.035
'[16:00:13.936]',0.035
'[16:00:13.940]',0.04
'[16:00:13.944]',0.045
'[16:00:13.948]',0.055
'[16:00:13.952]',0.06
'[16:00:13.956]',0.045
'[16:00:13.960]',0.065
'[16:00:13.964]',0.09
'[16:00:13.968]',0.075
'[16:00:13.972]',0.08
'[16:00:13.976]',0.065
'[16:00:13.980]',0.085
'[16:00:13.984]',0.07
'[16:00:13.988]',0.035
'[16:00:13.992]',0.045
'[16:00:13.996]',0.035
'[16:00:14.000]',0.035
'[16:00:14.004]',0.045
'[16:00:14.008]',0.03
'[16:00:14.012]',0.04
'[16:00:14.016]',0.02
'[16:00:14.020]',0.025
'[16:00:14.024]',0.025
'[16:00:14.028]',0.01
'[16:00:14.032]',0.015
'[16:00:14.036]',0.02
'[16:00:14.040]',0.015
'[16:00:14.044]',0.015
'[16:00:14.048]',0.02
'[16:00:14.052]',0.025
'[16:00:14.056]',0.01
'[16:00:14.060]',0.015
'[16:00:14.064]',0.03
'[16:00:14.068]',0
'[16:00:14.072]',0.015
'[16:00:14.076]',0.005
'[16:00:14.080]',0.01
'[16:00:14.084]',0.03
'[16:00:14.088]',0.015
'[16:00:14.092]',0
'[16:00:14.096]',0.01
'[16:00:14.100]',0.015
'[16:00:14.104]',0.025
'[16:00:14.108]',0.03
'[16:00:14.112]',0.035
'[16:00:14.116]',0.025
'[16:00:14.120]',0.025
'[16:00:14.124]',0.015
'[16:00:14.128]',0.035
'[16:00:14.132]',0.07
'[16:00:14.136]',0.17
'[16:00:14.140]',0.27
'[16:00:14.144]',0.33
'[16:00:14.148]',0.34
'[16:00:14.152]',0.25
'[16:00:14.156]',0.01
'[16:00:14.160]',-0.3
'[16:00:14.164]',-0.645
'[16:00:14.168]',-0.91
'[16:00:14.172]',-0.98
'[16:00:14.176]',-0.865
'[16:00:14.180]',-0.655
'[16:00:14.184]',-0.475
'[16:00:14.188]',-0.27
'[16:00:14.192]',-0.135
'[16:00:14.196]',-0.06
'[16:00:14.200]',-0.05
'[16:00:14.204]',-0.01
'[16:00:14.208]',0.01
'[16:00:14.212]',0.03
'[16:00:14.216]',0.05
'[16:00:14.220]',0.065
'[16:00:14.224]',0.085
'[16:00:14.228]',0.1
'[16:00:14.232]',0.07
'[16:00:14.236]',0.095
'[16:00:14.240]',0.09
'[16:00:14.244]',0.095
'[16:00:14.248]',0.105
'[16:00:14.252]',0.105
'[16:00:14.256]',0.11
'[16:00:14.260]',0.12
'[16:00:14.264]',0.14
'[16:00:14.268]',0.115
'[16:00:14.272]',0.135
'[16:00:14.276]',0.15
'[16:00:14.280]',0.15
'[16:00:14.284]',0.135
'[16:00:14.288]',0.145
'[16:00:14.292]',0.155
'[16:00:14.296]',0.18
'[16:00:14.300]',0.175
'[16:00:14.304]',0.185
'[16:00:14.308]',0.195
'[16:00:14.312]',0.21
'[16:00:14.316]',0.21
'[16:00:14.320]',0.215
'[16:00:14.324]',0.23
'[16:00:14.328]',0.25
'[16:00:14.332]',0.275
'[16:00:14.336]',0.29
'[16:00:14.340]',0.27
'[16:00:14.344]',0.29
'[16:00:14.348]',0.285
'[16:00:14.352]',0.305
'[16:00:14.356]',0.31
'[16:00:14.360]',0.335
'[16:00:14.364]',0.305
'[16:00:14.368]',0.305
'[16:00:14.372]',0.295
'[16:00:14.376]',0.31
'[16:00:14.380]',0.295
'[16:00:14.384]',0.29
'[16:00:14.388]',0.29
'[16:00:14.392]',0.29
'[16:00:14.396]',0.255
'[16:00:14.400]',0.26
'[16:00:14.404]',0.235
'[16:00:14.408]',0.225
'[16:00:14.412]',0.195
'[16:00:14.416]',0.165
'[16:00:14.420]',0.135
'[16:00:14.424]',0.145
'[16:00:14.428]',0.105
'[16:00:14.432]',0.09
'[16:00:14.436]',0.07
'[16:00:14.440]',0.06
'[16:00:14.444]',0.045
'[16:00:14.448]',0.035
'[16:00:14.452]',0.035
'[16:00:14.456]',0.025
'[16:00:14.460]',0.03
'[16:00:14.464]',0.04
'[16:00:14.468]',0.025
'[16:00:14.472]',0.025
'[16:00:14.476]',0.015
'[16:00:14.480]',0.02
'[16:00:14.484]',0.03
'[16:00:14.488]',0.025
'[16:00:14.492]',0.035
'[16:00:14.496]',0.025
'[16:00:14.500]',0.035
'[16:00:14.504]',0.03
'[16:00:14.508]',0.035
'[16:00:14.512]',0.035
'[16:00:14.516]',0.04
'[16:00:14.520]',0.05
'[16:00:14.524]',0.03
'[16:00:14.528]',0.04
'[16:00:14.532]',0.035
'[16:00:14.536]',0.04
'[16:00:14.540]',0.05
'[16:00:14.544]',0.045
'[16:00:14.548]',0.06
'[16:00:14.552]',0.04
'[16:00:14.556]',0.05
'[16:00:14.560]',0.05
'[16:00:14.564]',0.04
'[16:00:14.568]',0.05
'[16:00:14.572]',0.06
'[16:00:14.576]',0.05
'[16:00:14.580]',0.05
'[16:00:14.584]',0.04
'[16:00:14.588]',0.05
'[16:00:14.592]',0.065
'[16:00:14.596]',0.05
'[16:00:14.600]',0.055
'[16:00:14.604]',0.055
'[16:00:14.608]',0.045
'[16:00:14.612]',0.05
'[16:00:14.616]',0.05
'[16:00:14.620]',0.06
'[16:00:14.624]',0.05
'[16:00:14.628]',0.06
'[16:00:14.632]',0.05
'[16:00:14.636]',0.045
'[16:00:14.640]',0.035
'[16:00:14.644]',0.045
'[16:00:14.648]',0.025
'[16:00:14.652]',0.035
'[16:00:14.656]',0.055
'[16:00:14.660]',0.06
'[16:00:14.664]',0.04
'[16:00:14.668]',0.06
'[16:00:14.672]',0.06
'[16:00:14.676]',0.065
'[16:00:14.680]',0.055
'[16:00:14.684]',0.08
'[16:00:14.688]',0.08
'[16:00:14.692]',0.08
'[16:00:14.696]',0.07
'[16:00:14.700]',0.08
'[16:00:14.704]',0.08
'[16:00:14.708]',0.07
'[16:00:14.712]',0.06
'[16:00:14.716]',0.05
'[16:00:14.720]',0.06
'[16:00:14.724]',0.055
'[16:00:14.728]',0.045
'[16:00:14.732]',0.03
'[16:00:14.736]',0.035
'[16:00:14.740]',0.035
'[16:00:14.744]',0.035
'[16:00:14.748]',0.045
'[16:00:14.752]',0.045
'[16:00:14.756]',0.03
'[16:00:14.760]',0.035
'[16:00:14.764]',0.04
'[16:00:14.768]',0.04
'[16:00:14.772]',0.03
'[16:00:14.776]',0.025
'[16:00:14.780]',0.05
'[16:00:14.784]',0.035
'[16:00:14.788]',0.03
'[16:00:14.792]',0.02
'[16:00:14.796]',0.025
'[16:00:14.800]',0.045
'[16:00:14.804]',0.03
'[16:00:14.808]',0.03
'[16:00:14.812]',0.025
'[16:00:14.816]',0.035
'[16:00:14.820]',0.035
'[16:00:14.824]',0.045
'[16:00:14.828]',0.025
'[16:00:14.832]',0.04
'[16:00:14.836]',0.055
'[16:00:14.840]',0.05
'[16:00:14.844]',0.04
'[16:00:14.848]',0.035
'[16:00:14.852]',0.075
'[16:00:14.856]',0.13
'[16:00:14.860]',0.225
'[16:00:14.864]',0.315
'[16:00:14.868]',0.365
'[16:00:14.872]',0.37
'[16:00:14.876]',0.235
'[16:00:14.880]',-0.04
'[16:00:14.884]',-0.385
'[16:00:14.888]',-0.72
'[16:00:14.892]',-0.935
'[16:00:14.896]',-0.95
'[16:00:14.900]',-0.8
'[16:00:14.904]',-0.585
'[16:00:14.908]',-0.375
'[16:00:14.912]',-0.185
'[16:00:14.916]',-0.08
'[16:00:14.920]',-0.005
'[16:00:14.924]',-0.01
'[16:00:14.928]',0.005
'[16:00:14.932]',0.075
'[16:00:14.936]',0.085
'[16:00:14.940]',0.1
'[16:00:14.944]',0.115
'[16:00:14.948]',0.125
'[16:00:14.952]',0.12
'[16:00:14.956]',0.14
'[16:00:14.960]',0.14
'[16:00:14.964]',0.125
'[16:00:14.968]',0.15
'[16:00:14.972]',0.14
'[16:00:14.976]',0.15
'[16:00:14.980]',0.155
'[16:00:14.984]',0.16
'[16:00:14.988]',0.16
'[16:00:14.992]',0.175
'[16:00:14.996]',0.145
'[16:00:15.000]',0.185
'[16:00:15.004]',0.18
'[16:00:15.008]',0.185
'[16:00:15.012]',0.19
'[16:00:15.016]',0.19
'[16:00:15.020]',0.19
'[16:00:15.024]',0.21
'[16:00:15.028]',0.215
'[16:00:15.032]',0.225
'[16:00:15.036]',0.24
'[16:00:15.040]',0.26
'[16:00:15.044]',0.275
'[16:00:15.048]',0.295
'[16:00:15.052]',0.3
'[16:00:15.056]',0.3
'[16:00:15.060]',0.3
'[16:00:15.064]',0.335
'[16:00:15.068]',0.32
'[16:00:15.072]',0.33
'[16:00:15.076]',0.32
'[16:00:15.080]',0.34
'[16:00:15.084]',0.32
'[16:00:15.088]',0.34
'[16:00:15.092]',0.33
'[16:00:15.096]',0.33
'[16:00:15.100]',0.34
'[16:00:15.104]',0.325
'[16:00:15.108]',0.315
'[16:00:15.112]',0.315
'[16:00:15.116]',0.285
'[16:00:15.120]',0.28
'[16:00:15.124]',0.255
'[16:00:15.128]',0.245
'[16:00:15.132]',0.23
'[16:00:15.136]',0.19
'[16:00:15.140]',0.165
'[16:00:15.144]',0.15
'[16:00:15.148]',0.12
'[16:00:15.152]',0.1
'[16:00:15.156]',0.085
'[16:00:15.160]',0.09
'[16:00:15.164]',0.07
'[16:00:15.168]',0.055
'[16:00:15.172]',0.06
'[16:00:15.176]',0.055
'[16:00:15.180]',0.04
'[16:00:15.184]',0.04
'[16:00:15.188]',0.04
'[16:00:15.192]',0.025
'[16:00:15.196]',0.025
'[16:00:15.200]',0.05
'[16:00:15.204]',0.035
'[16:00:15.208]',0.04
'[16:00:15.212]',0.07
'[16:00:15.216]',0.05
'[16:00:15.220]',0.035
'[16:00:15.224]',0.04
'[16:00:15.228]',0.04
'[16:00:15.232]',0.04
'[16:00:15.236]',0.03
'[16:00:15.240]',0.03
'[16:00:15.244]',0.045
'[16:00:15.248]',0.04
'[16:00:15.252]',0.05
'[16:00:15.256]',0.065
'[16:00:15.260]',0.055
'[16:00:15.264]',0.045
'[16:00:15.268]',0.055
'[16:00:15.272]',0.055
'[16:00:15.276]',0.07
'[16:00:15.280]',0.045
'[16:00:15.284]',0.06
'[16:00:15.288]',0.025
'[16:00:15.292]',0.055
'[16:00:15.296]',0.055
'[16:00:15.300]',0.05
'[16:00:15.304]',0.035
'[16:00:15.308]',0.04
'[16:00:15.312]',0.055
'[16:00:15.316]',0.055
'[16:00:15.320]',0.045
'[16:00:15.324]',0.055
'[16:00:15.328]',0.06
'[16:00:15.332]',0.07
'[16:00:15.336]',0.04
'[16:00:15.340]',0.065
'[16:00:15.344]',0.06
'[16:00:15.348]',0.06
'[16:00:15.352]',0.055
'[16:00:15.356]',0.05
'[16:00:15.360]',0.04
'[16:00:15.364]',0.055
'[16:00:15.368]',0.04
'[16:00:15.372]',0.04
'[16:00:15.376]',0.035
'[16:00:15.380]',0.06
'[16:00:15.384]',0.04
'[16:00:15.388]',0.04
'[16:00:15.392]',0.05
'[16:00:15.396]',0.06
'[16:00:15.400]',0.045
'[16:00:15.404]',0.06
'[16:00:15.408]',0.07
'[16:00:15.412]',0.07
'[16:00:15.416]',0.06
'[16:00:15.420]',0.075
'[16:00:15.424]',0.07
'[16:00:15.428]',0.06
'[16:00:15.432]',0.06
'[16:00:15.436]',0.05
'[16:00:15.440]',0.05
'[16:00:15.444]',0.03
'[16:00:15.448]',0.025
'[16:00:15.452]',0.045
'[16:00:15.456]',0.03
'[16:00:15.460]',0.035
'[16:00:15.464]',0.035
'[16:00:15.468]',0.03
'[16:00:15.472]',0.03
'[16:00:15.476]',0.03
'[16:00:15.480]',0.04
'[16:00:15.484]',0.03
'[16:00:15.488]',0.02
'[16:00:15.492]',0.04
'[16:00:15.496]',0.03
'[16:00:15.500]',0.035
'[16:00:15.504]',0.02
'[16:00:15.508]',0
'[16:00:15.512]',0.02
'[16:00:15.516]',0.02
'[16:00:15.520]',0.01
'[16:00:15.524]',0.005
'[16:00:15.528]',0.02
'[16:00:15.532]',0.03
'[16:00:15.536]',0.005
'[16:00:15.540]',0.03
'[16:00:15.544]',0.04
'[16:00:15.548]',0.02
'[16:00:15.552]',0.025
'[16:00:15.556]',0.03
'[16:00:15.560]',0.01
'[16:00:15.564]',0.025
'[16:00:15.568]',0.035
'[16:00:15.572]',0.04
'[16:00:15.576]',0.055
'[16:00:15.580]',0.115
'[16:00:15.584]',0.21
'[16:00:15.588]',0.3
'[16:00:15.592]',0.38
'[16:00:15.596]',0.37
'[16:00:15.600]',0.245
'[16:00:15.604]',-0.015
'[16:00:15.608]',-0.335
'[16:00:15.612]',-0.69
'[16:00:15.616]',-0.935
'[16:00:15.620]',-0.975
'[16:00:15.624]',-0.835
'[16:00:15.628]',-0.635
'[16:00:15.632]',-0.43
'[16:00:15.636]',-0.24
'[16:00:15.640]',-0.095
'[16:00:15.644]',-0.045
'[16:00:15.648]',-0.005
'[16:00:15.652]',0.02
'[16:00:15.656]',0.035
'[16:00:15.660]',0.06
'[16:00:15.664]',0.09
'[16:00:15.668]',0.105
'[16:00:15.672]',0.11
'[16:00:15.676]',0.12
'[16:00:15.680]',0.125
'[16:00:15.684]',0.135
'[16:00:15.688]',0.165
'[16:00:15.692]',0.145
'[16:00:15.696]',0.15
'[16:00:15.700]',0.155
'[16:00:15.704]',0.145
'[16:00:15.708]',0.14
'[16:00:15.712]',0.14
'[16:00:15.716]',0.17
'[16:00:15.720]',0.165
'[16:00:15.724]',0.15
'[16:00:15.728]',0.155
'[16:00:15.732]',0.18
'[16:00:15.736]',0.18
'[16:00:15.740]',0.2
'[16:00:15.744]',0.21
'[16:00:15.748]',0.215
'[16:00:15.752]',0.215
'[16:00:15.756]',0.24
'[16:00:15.760]',0.265
'[16:00:15.764]',0.27
'[16:00:15.768]',0.275
'[16:00:15.772]',0.295
'[16:00:15.776]',0.305
'[16:00:15.780]',0.315
'[16:00:15.784]',0.315
'[16:00:15.788]',0.335
'[16:00:15.792]',0.325
'[16:00:15.796]',0.32
'[16:00:15.800]',0.345
'[16:00:15.804]',0.345
'[16:00:15.808]',0.335
'[16:00:15.812]',0.33
'[16:00:15.816]',0.335
'[16:00:15.820]',0.32
'[16:00:15.824]',0.335
'[16:00:15.828]',0.34
'[16:00:15.832]',0.345
'[16:00:15.836]',0.315
'[16:00:15.840]',0.29
'[16:00:15.844]',0.29
'[16:00:15.848]',0.25
'[16:00:15.852]',0.245
'[16:00:15.856]',0.245
'[16:00:15.860]',0.2
'[16:00:15.864]',0.17
'[16:00:15.868]',0.15
'[16:00:15.872]',0.12
'[16:00:15.876]',0.11
'[16:00:15.880]',0.095
'[16:00:15.884]',0.095
'[16:00:15.888]',0.08
'[16:00:15.892]',0.09
'[16:00:15.896]',0.09
'[16:00:15.900]',0.075
'[16:00:15.904]',0.05
'[16:00:15.908]',0.07
'[16:00:15.912]',0.065
'[16:00:15.916]',0.065
'[16:00:15.920]',0.05
'[16:00:15.924]',0.065
'[16:00:15.928]',0.045
'[16:00:15.932]',0.035
'[16:00:15.936]',0.05
'[16:00:15.940]',0.04
'[16:00:15.944]',0.035
'[16:00:15.948]',0.05
'[16:00:15.952]',0.055
'[16:00:15.956]',0.06
'[16:00:15.960]',0.06
'[16:00:15.964]',0.065
'[16:00:15.968]',0.06
'[16:00:15.972]',0.06
'[16:00:15.976]',0.07
'[16:00:15.980]',0.065
'[16:00:15.984]',0.065
'[16:00:15.988]',0.05
'[16:00:15.992]',0.07
'[16:00:15.996]',0.06
'[16:00:16.000]',0.075
'[16:00:16.004]',0.085
'[16:00:16.008]',0.05
'[16:00:16.012]',0.065
'[16:00:16.016]',0.06
'[16:00:16.020]',0.055
'[16:00:16.024]',0.05
'[16:00:16.028]',0.055
'[16:00:16.032]',0.05
'[16:00:16.036]',0.045
'[16:00:16.040]',0.055
'[16:00:16.044]',0.045
'[16:00:16.048]',0.04
'[16:00:16.052]',0.065
'[16:00:16.056]',0.06
'[16:00:16.060]',0.07
'[16:00:16.064]',0.06
'[16:00:16.068]',0.05
'[16:00:16.072]',0.04
'[16:00:16.076]',0.035
'[16:00:16.080]',0.045
'[16:00:16.084]',0.04
'[16:00:16.088]',0.03
'[16:00:16.092]',0.02
'[16:00:16.096]',0.03
'[16:00:16.100]',0.05
'[16:00:16.104]',0.03
'[16:00:16.108]',0.03
'[16:00:16.112]',0.015
'[16:00:16.116]',0.04
'[16:00:16.120]',0.035
'[16:00:16.124]',0.055
'[16:00:16.128]',0.055
'[16:00:16.132]',0.035
'[16:00:16.136]',0.045
'[16:00:16.140]',0.035
'[16:00:16.144]',0.04
'[16:00:16.148]',0.055
'[16:00:16.152]',0.05
'[16:00:16.156]',0.045
'[16:00:16.160]',0.045
'[16:00:16.164]',0.035
'[16:00:16.168]',0.01
'[16:00:16.172]',0.02
'[16:00:16.176]',0.02
'[16:00:16.180]',0.01
'[16:00:16.184]',0.01
'[16:00:16.188]',0.005
'[16:00:16.192]',0.02
'[16:00:16.196]',0.01
'[16:00:16.200]',0.015
'[16:00:16.204]',0.015
'[16:00:16.208]',0.01
'[16:00:16.212]',0
'[16:00:16.216]',0.005
'[16:00:16.220]',0.01
'[16:00:16.224]',0.005
'[16:00:16.228]',-0.005
'[16:00:16.232]',0.005
'[16:00:16.236]',-0.01
'[16:00:16.240]',-0.005
'[16:00:16.244]',-0.005
'[16:00:16.248]',-0.005
'[16:00:16.252]',0
'[16:00:16.256]',-0.005
'[16:00:16.260]',0.01
'[16:00:16.264]',0
'[16:00:16.268]',-0.01
'[16:00:16.272]',0.005
'[16:00:16.276]',0
'[16:00:16.280]',0.015
'[16:00:16.284]',0.015
'[16:00:16.288]',0.02
'[16:00:16.292]',0
'[16:00:16.296]',0.005
'[16:00:16.300]',0
'[16:00:16.304]',0.03
'[16:00:16.308]',0.05
'[16:00:16.312]',0.12
'[16:00:16.316]',0.23
'[16:00:16.320]',0.325
'[16:00:16.324]',0.37
'[16:00:16.328]',0.325
'[16:00:16.332]',0.14
'[16:00:16.336]',-0.155
'[16:00:16.340]',-0.525
'[16:00:16.344]',-0.825
'[16:00:16.348]',-1005
'[16:00:16.352]',-0.96
'[16:00:16.356]',-0.76
'[16:00:16.360]',-0.575
'[16:00:16.364]',-0.37
'[16:00:16.368]',-0.19
'[16:00:16.372]',-0.095
'[16:00:16.376]',-0.065
'[16:00:16.380]',-0.05
'[16:00:16.384]',0
'[16:00:16.388]',0.025
'[16:00:16.392]',0.045
'[16:00:16.396]',0.07
'[16:00:16.400]',0.08
'[16:00:16.404]',0.085
'[16:00:16.408]',0.12
'[16:00:16.412]',0.11
'[16:00:16.416]',0.09
'[16:00:16.420]',0.1
'[16:00:16.424]',0.12
'[16:00:16.428]',0.09
'[16:00:16.432]',0.105
'[16:00:16.436]',0.105
'[16:00:16.440]',0.135
'[16:00:16.444]',0.125
'[16:00:16.448]',0.135
'[16:00:16.452]',0.145
'[16:00:16.456]',0.135
'[16:00:16.460]',0.145
'[16:00:16.464]',0.165
'[16:00:16.468]',0.18
'[16:00:16.472]',0.185
'[16:00:16.476]',0.205
'[16:00:16.480]',0.18
'[16:00:16.484]',0.205
'[16:00:16.488]',0.215
'[16:00:16.492]',0.245
'[16:00:16.496]',0.245
'[16:00:16.500]',0.245
'[16:00:16.504]',0.25
'[16:00:16.508]',0.26
'[16:00:16.512]',0.29
'[16:00:16.516]',0.285
'[16:00:16.520]',0.295
'[16:00:16.524]',0.295
'[16:00:16.528]',0.295
'[16:00:16.532]',0.31
'[16:00:16.536]',0.315
'[16:00:16.540]',0.305
'[16:00:16.544]',0.32
'[16:00:16.548]',0.325
'[16:00:16.552]',0.3
'[16:00:16.556]',0.295
'[16:00:16.560]',0.3
'[16:00:16.564]',0.29
'[16:00:16.568]',0.29
'[16:00:16.572]',0.285
'[16:00:16.576]',0.29
'[16:00:16.580]',0.255
'[16:00:16.584]',0.225
'[16:00:16.588]',0.2
'[16:00:16.592]',0.165
'[16:00:16.596]',0.15
'[16:00:16.600]',0.13
'[16:00:16.604]',0.12
'[16:00:16.608]',0.095
'[16:00:16.612]',0.085
'[16:00:16.616]',0.08
'[16:00:16.620]',0.065
'[16:00:16.624]',0.055
'[16:00:16.628]',0.065
'[16:00:16.632]',0.06
'[16:00:16.636]',0.035
'[16:00:16.640]',0.06
'[16:00:16.644]',0.035
'[16:00:16.648]',0.045
'[16:00:16.652]',0.045
'[16:00:16.656]',0.055
'[16:00:16.660]',0.045
'[16:00:16.664]',0.05
'[16:00:16.668]',0.06
'[16:00:16.672]',0.045
'[16:00:16.676]',0.05
'[16:00:16.680]',0.04
'[16:00:16.684]',0.05
'[16:00:16.688]',0.055
'[16:00:16.692]',0.06
'[16:00:16.696]',0.065
'[16:00:16.700]',0.07
'[16:00:16.704]',0.065
'[16:00:16.708]',0.08
'[16:00:16.712]',0.08
'[16:00:16.716]',0.08
'[16:00:16.720]',0.085
'[16:00:16.724]',0.085
'[16:00:16.728]',0.08
'[16:00:16.732]',0.075
'[16:00:16.736]',0.08
'[16:00:16.740]',0.09
'[16:00:16.744]',0.09
'[16:00:16.748]',0.095
'[16:00:16.752]',0.09
'[16:00:16.756]',0.065
'[16:00:16.760]',0.08
'[16:00:16.764]',0.08
'[16:00:16.768]',0.07
'[16:00:16.772]',0.065
'[16:00:16.776]',0.055
'[16:00:16.780]',0.08
'[16:00:16.784]',0.065
'[16:00:16.788]',0.065
'[16:00:16.792]',0.09
'[16:00:16.796]',0.065
'[16:00:16.800]',0.06
'[16:00:16.804]',0.065
'[16:00:16.808]',0.045
'[16:00:16.812]',0.065
'[16:00:16.816]',0.055
'[16:00:16.820]',0.06
'[16:00:16.824]',0.055
'[16:00:16.828]',0.05
'[16:00:16.832]',0.055
'[16:00:16.836]',0.055
'[16:00:16.840]',0.055
'[16:00:16.844]',0.045
'[16:00:16.848]',0.055
'[16:00:16.852]',0.055
'[16:00:16.856]',0.06
'[16:00:16.860]',0.085
'[16:00:16.864]',0.08
'[16:00:16.868]',0.075
'[16:00:16.872]',0.07
'[16:00:16.876]',0.085
'[16:00:16.880]',0.08
'[16:00:16.884]',0.095
'[16:00:16.888]',0.095
'[16:00:16.892]',0.065
'[16:00:16.896]',0.08
'[16:00:16.900]',0.075
'[16:00:16.904]',0.08
'[16:00:16.908]',0.06
'[16:00:16.912]',0.06
'[16:00:16.916]',0.07
'[16:00:16.920]',0.05
'[16:00:16.924]',0.055
'[16:00:16.928]',0.075
'[16:00:16.932]',0.055
'[16:00:16.936]',0.055
'[16:00:16.940]',0.055
'[16:00:16.944]',0.055
'[16:00:16.948]',0.055
'[16:00:16.952]',0.045
'[16:00:16.956]',0.045
'[16:00:16.960]',0.06
'[16:00:16.964]',0.05
'[16:00:16.968]',0.05
'[16:00:16.972]',0.05
'[16:00:16.976]',0.045
'[16:00:16.980]',0.04
'[16:00:16.984]',0.05
'[16:00:16.988]',0.035
'[16:00:16.992]',0.05
'[16:00:16.996]',0.05
'[16:00:17.000]',0.035
'[16:00:17.004]',0.025
'[16:00:17.008]',0.065
'[16:00:17.012]',0.05
'[16:00:17.016]',0.04
'[16:00:17.020]',0.03
'[16:00:17.024]',0.065
'[16:00:17.028]',0.04
'[16:00:17.032]',0.06
'[16:00:17.036]',0.05
'[16:00:17.040]',0.055
'[16:00:17.044]',0.075
'[16:00:17.048]',0.125
'[16:00:17.052]',0.22
'[16:00:17.056]',0.35
'[16:00:17.060]',0.4
'[16:00:17.064]',0.39
'[16:00:17.068]',0.255
'[16:00:17.072]',0
'[16:00:17.076]',-0.33
'[16:00:17.080]',-0.71
'[16:00:17.084]',-0.945
'[16:00:17.088]',-0.955
'[16:00:17.092]',-0.81
'[16:00:17.096]',-0.62
'[16:00:17.100]',-0.405
'[16:00:17.104]',-0.205
'[16:00:17.108]',-0.09
'[16:00:17.112]',-0.05
'[16:00:17.116]',-0.005
'[16:00:17.120]',0.015
'[16:00:17.124]',0.035
'[16:00:17.128]',0.05
'[16:00:17.132]',0.1
'[16:00:17.136]',0.095
'[16:00:17.140]',0.105
'[16:00:17.144]',0.11
'[16:00:17.148]',0.11
'[16:00:17.152]',0.12
'[16:00:17.156]',0.135
'[16:00:17.160]',0.125
'[16:00:17.164]',0.125
'[16:00:17.168]',0.12
'[16:00:17.172]',0.15
'[16:00:17.176]',0.14
'[16:00:17.180]',0.145
'[16:00:17.184]',0.15
'[16:00:17.188]',0.135
'[16:00:17.192]',0.14
'[16:00:17.196]',0.16
'[16:00:17.200]',0.155
'[16:00:17.204]',0.16
'[16:00:17.208]',0.165
'[16:00:17.212]',0.175
'[16:00:17.216]',0.195
'[16:00:17.220]',0.2
'[16:00:17.224]',0.215
'[16:00:17.228]',0.235
'[16:00:17.232]',0.215
'[16:00:17.236]',0.245
'[16:00:17.240]',0.27
'[16:00:17.244]',0.265
'[16:00:17.248]',0.27
'[16:00:17.252]',0.285
'[16:00:17.256]',0.3
'[16:00:17.260]',0.29
'[16:00:17.264]',0.31
'[16:00:17.268]',0.31
'[16:00:17.272]',0.3
'[16:00:17.276]',0.315
'[16:00:17.280]',0.315
'[16:00:17.284]',0.31
'[16:00:17.288]',0.315
'[16:00:17.292]',0.31
'[16:00:17.296]',0.295
'[16:00:17.300]',0.305
'[16:00:17.304]',0.29
'[16:00:17.308]',0.28
'[16:00:17.312]',0.275
'[16:00:17.316]',0.24
'[16:00:17.320]',0.22
'[16:00:17.324]',0.215
'[16:00:17.328]',0.18
'[16:00:17.332]',0.155
'[16:00:17.336]',0.135
'[16:00:17.340]',0.11
'[16:00:17.344]',0.09
'[16:00:17.348]',0.085
'[16:00:17.352]',0.06
'[16:00:17.356]',0.065
'[16:00:17.360]',0.04
'[16:00:17.364]',0.055
'[16:00:17.368]',0.045
'[16:00:17.372]',0.05
'[16:00:17.376]',0.04
'[16:00:17.380]',0.035
'[16:00:17.384]',0.03
'[16:00:17.388]',0.035
'[16:00:17.392]',0.035
'[16:00:17.396]',0.045
'[16:00:17.400]',0.03
'[16:00:17.404]',0.02
'[16:00:17.408]',0.035
'[16:00:17.412]',0.025
'[16:00:17.416]',0.015
'[16:00:17.420]',0.035
'[16:00:17.424]',0.035
'[16:00:17.428]',0.035
'[16:00:17.432]',0.045
'[16:00:17.436]',0.04
'[16:00:17.440]',0.045
'[16:00:17.444]',0.045
'[16:00:17.448]',0.06
'[16:00:17.452]',0.05
'[16:00:17.456]',0.05
'[16:00:17.460]',0.06
'[16:00:17.464]',0.05
'[16:00:17.468]',0.055
'[16:00:17.472]',0.045
'[16:00:17.476]',0.055
'[16:00:17.480]',0.055
'[16:00:17.484]',0.065
'[16:00:17.488]',0.05
'[16:00:17.492]',0.045
'[16:00:17.496]',0.04
'[16:00:17.500]',0.06
'[16:00:17.504]',0.03
'[16:00:17.508]',0.04
'[16:00:17.512]',0.05
'[16:00:17.516]',0.045
'[16:00:17.520]',0.055
'[16:00:17.524]',0.07
'[16:00:17.528]',0.05
'[16:00:17.532]',0.05
'[16:00:17.536]',0.045
'[16:00:17.540]',0.04
'[16:00:17.544]',0.035
'[16:00:17.548]',0.035
'[16:00:17.552]',0.05
'[16:00:17.556]',0.03
'[16:00:17.560]',0.035
'[16:00:17.564]',0.04
'[16:00:17.568]',0.035
'[16:00:17.572]',0.04
'[16:00:17.576]',0.035
'[16:00:17.580]',0.04
'[16:00:17.584]',0.035
'[16:00:17.588]',0.045
'[16:00:17.592]',0.055
'[16:00:17.596]',0.04
'[16:00:17.600]',0.045
'[16:00:17.604]',0.06
'[16:00:17.608]',0.075
'[16:00:17.612]',0.065
'[16:00:17.616]',0.055
'[16:00:17.620]',0.085
'[16:00:17.624]',0.065
'[16:00:17.628]',0.085
'[16:00:17.632]',0.065
'[16:00:17.636]',0.075
'[16:00:17.640]',0.06
'[16:00:17.644]',0.045
'[16:00:17.648]',0.05
'[16:00:17.652]',0.045
'[16:00:17.656]',0.05
'[16:00:17.660]',0.05
'[16:00:17.664]',0.05
'[16:00:17.668]',0.045
'[16:00:17.672]',0.03
'[16:00:17.676]',0.035
'[16:00:17.680]',0.035
'[16:00:17.684]',0.03
'[16:00:17.688]',0.04
'[16:00:17.692]',0.035
'[16:00:17.696]',0.025
'[16:00:17.700]',0.035
'[16:00:17.704]',0.03
'[16:00:17.708]',0.03
'[16:00:17.712]',0.04
'[16:00:17.716]',0.035
'[16:00:17.720]',0.03
'[16:00:17.724]',0.04
'[16:00:17.728]',0.035
'[16:00:17.732]',0.05
'[16:00:17.736]',0.055
'[16:00:17.740]',0.06
'[16:00:17.744]',0.04
'[16:00:17.748]',0.025
'[16:00:17.752]',0.045
'[16:00:17.756]',0.06
'[16:00:17.760]',0.045
'[16:00:17.764]',0.045
'[16:00:17.768]',0.07
'[16:00:17.772]',0.06
'[16:00:17.776]',0.055
'[16:00:17.780]',0.06
'[16:00:17.784]',0.125
'[16:00:17.788]',0.225
'[16:00:17.792]',0.315
'[16:00:17.796]',0.415
'[16:00:17.800]',0.45
'[16:00:17.804]',0.365
'[16:00:17.808]',0.16
'[16:00:17.812]',-0.13
'[16:00:17.816]',-0.5
'[16:00:17.820]',-0.805
'[16:00:17.824]',-0.905
'[16:00:17.828]',-0.795
'[16:00:17.832]',-0.6
'[16:00:17.836]',-0.38
'[16:00:17.840]',-0.185
'[16:00:17.844]',-0.06
'[16:00:17.848]',-0.02
'[16:00:17.852]',0.005
'[16:00:17.856]',0.02
'[16:00:17.860]',0.05
'[16:00:17.864]',0.075
'[16:00:17.868]',0.1
'[16:00:17.872]',0.115
'[16:00:17.876]',0.11
'[16:00:17.880]',0.125
'[16:00:17.884]',0.12
'[16:00:17.888]',0.12
'[16:00:17.892]',0.135
'[16:00:17.896]',0.125
'[16:00:17.900]',0.135
'[16:00:17.904]',0.135
'[16:00:17.908]',0.15
'[16:00:17.912]',0.155
'[16:00:17.916]',0.16
'[16:00:17.920]',0.145
'[16:00:17.924]',0.17
'[16:00:17.928]',0.145
'[16:00:17.932]',0.16
'[16:00:17.936]',0.16
'[16:00:17.940]',0.175
'[16:00:17.944]',0.18
'[16:00:17.948]',0.2
'[16:00:17.952]',0.2
'[16:00:17.956]',0.205
'[16:00:17.960]',0.24
'[16:00:17.964]',0.255
'[16:00:17.968]',0.255
'[16:00:17.972]',0.26
'[16:00:17.976]',0.27
'[16:00:17.980]',0.275
'[16:00:17.984]',0.27
'[16:00:17.988]',0.3
'[16:00:17.992]',0.31
'[16:00:17.996]',0.315
'[16:00:18.000]',0.31
'[16:00:18.004]',0.31
'[16:00:18.008]',0.285
'[16:00:18.012]',0.315
'[16:00:18.016]',0.31
'[16:00:18.020]',0.305
'[16:00:18.024]',0.295
'[16:00:18.028]',0.315
'[16:00:18.032]',0.3
'[16:00:18.036]',0.29
'[16:00:18.040]',0.285
'[16:00:18.044]',0.28
'[16:00:18.048]',0.27
'[16:00:18.052]',0.245
'[16:00:18.056]',0.215
'[16:00:18.060]',0.195
'[16:00:18.064]',0.17
'[16:00:18.068]',0.16
'[16:00:18.072]',0.135
'[16:00:18.076]',0.105
'[16:00:18.080]',0.12
'[16:00:18.084]',0.1
'[16:00:18.088]',0.08
'[16:00:18.092]',0.075
'[16:00:18.096]',0.04
'[16:00:18.100]',0.06
'[16:00:18.104]',0.05
'[16:00:18.108]',0.06
'[16:00:18.112]',0.045
'[16:00:18.116]',0.045
'[16:00:18.120]',0.045
'[16:00:18.124]',0.05
'[16:00:18.128]',0.035
'[16:00:18.132]',0.035
'[16:00:18.136]',0.04
'[16:00:18.140]',0.045
'[16:00:18.144]',0.035
'[16:00:18.148]',0.035
'[16:00:18.152]',0.035
'[16:00:18.156]',0.04
'[16:00:18.160]',0.03
'[16:00:18.164]',0.04
'[16:00:18.168]',0.045
'[16:00:18.172]',0.04
'[16:00:18.176]',0.05
'[16:00:18.180]',0.05
'[16:00:18.184]',0.06
'[16:00:18.188]',0.06
'[16:00:18.192]',0.065
'[16:00:18.196]',0.05
'[16:00:18.200]',0.04
'[16:00:18.204]',0.055
'[16:00:18.208]',0.055
'[16:00:18.212]',0.05
'[16:00:18.216]',0.05
'[16:00:18.220]',0.04
'[16:00:18.224]',0.035
'[16:00:18.228]',0.055
'[16:00:18.232]',0.045
'[16:00:18.236]',0.035
'[16:00:18.240]',0.04
'[16:00:18.244]',0.045
'[16:00:18.248]',0.04
'[16:00:18.252]',0.03
'[16:00:18.256]',0.045
'[16:00:18.260]',0.04
'[16:00:18.264]',0.03
'[16:00:18.268]',0.01
'[16:00:18.272]',0.04
'[16:00:18.276]',0.02
'[16:00:18.280]',0.035
'[16:00:18.284]',0.02
'[16:00:18.288]',0.015
'[16:00:18.292]',0.005
'[16:00:18.296]',0.025
'[16:00:18.300]',0.025
'[16:00:18.304]',0.03
'[16:00:18.308]',0.015
'[16:00:18.312]',0.035
'[16:00:18.316]',0.02
'[16:00:18.320]',0.035
'[16:00:18.324]',0.035
'[16:00:18.328]',0.035
'[16:00:18.332]',0.015
'[16:00:18.336]',0.05
'[16:00:18.340]',0.045
'[16:00:18.344]',0.04
'[16:00:18.348]',0.025
'[16:00:18.352]',0.025
'[16:00:18.356]',0.05
'[16:00:18.360]',0.05
'[16:00:18.364]',0.05
'[16:00:18.368]',0.07
'[16:00:18.372]',0.07
'[16:00:18.376]',0.055
'[16:00:18.380]',0.04
'[16:00:18.384]',0.04
'[16:00:18.388]',0.04
'[16:00:18.392]',0.025
'[16:00:18.396]',0.035
'[16:00:18.400]',0.035
'[16:00:18.404]',0.035
'[16:00:18.408]',0.035
'[16:00:18.412]',0.015
'[16:00:18.416]',0.02
'[16:00:18.420]',0.02
'[16:00:18.424]',0.02
'[16:00:18.428]',0.01
'[16:00:18.432]',0.01
'[16:00:18.436]',0.015
'[16:00:18.440]',0.015
'[16:00:18.444]',0.015
'[16:00:18.448]',0.035
'[16:00:18.452]',0.01
'[16:00:18.456]',0.02
'[16:00:18.460]',0.02
'[16:00:18.464]',0.015
'[16:00:18.468]',0.01
'[16:00:18.472]',0.015
'[16:00:18.476]',0.035
'[16:00:18.480]',0.045
'[16:00:18.484]',0.025
'[16:00:18.488]',0.025
'[16:00:18.492]',0.02
'[16:00:18.496]',0.025
'[16:00:18.500]',0.02
'[16:00:18.504]',0.04
'[16:00:18.508]',0.04
'[16:00:18.512]',0.02
'[16:00:18.516]',0.045
'[16:00:18.520]',0.06
'[16:00:18.524]',0.13
'[16:00:18.528]',0.225
'[16:00:18.532]',0.335
'[16:00:18.536]',0.405
'[16:00:18.540]',0.37
'[16:00:18.544]',0.285
'[16:00:18.548]',0.02
'[16:00:18.552]',-0.28
'[16:00:18.556]',-0.6
'[16:00:18.560]',-0.83
'[16:00:18.564]',-0.87
'[16:00:18.568]',-0.7
'[16:00:18.572]',-0.51
'[16:00:18.576]',-0.33
'[16:00:18.580]',-0.15
'[16:00:18.584]',-0.04
'[16:00:18.588]',-0.015
'[16:00:18.592]',0.005
'[16:00:18.596]',0.03
'[16:00:18.600]',0.06
'[16:00:18.604]',0.07
'[16:00:18.608]',0.095
'[16:00:18.612]',0.105
'[16:00:18.616]',0.105
'[16:00:18.620]',0.11
'[16:00:18.624]',0.12
'[16:00:18.628]',0.12
'[16:00:18.632]',0.12
'[16:00:18.636]',0.12
'[16:00:18.640]',0.13
'[16:00:18.644]',0.12
'[16:00:18.648]',0.125
'[16:00:18.652]',0.135
'[16:00:18.656]',0.145
'[16:00:18.660]',0.16
'[16:00:18.664]',0.15
'[16:00:18.668]',0.145
'[16:00:18.672]',0.155
'[16:00:18.676]',0.165
'[16:00:18.680]',0.185
'[16:00:18.684]',0.185
'[16:00:18.688]',0.205
'[16:00:18.692]',0.22
'[16:00:18.696]',0.215
'[16:00:18.700]',0.235
'[16:00:18.704]',0.245
'[16:00:18.708]',0.235
'[16:00:18.712]',0.26
'[16:00:18.716]',0.27
'[16:00:18.720]',0.265
'[16:00:18.724]',0.275
'[16:00:18.728]',0.275
'[16:00:18.732]',0.295
'[16:00:18.736]',0.315
'[16:00:18.740]',0.33
'[16:00:18.744]',0.335
'[16:00:18.748]',0.33
'[16:00:18.752]',0.325
'[16:00:18.756]',0.33
'[16:00:18.760]',0.34
'[16:00:18.764]',0.325
'[16:00:18.768]',0.315
'[16:00:18.772]',0.325
'[16:00:18.776]',0.32
'[16:00:18.780]',0.32
'[16:00:18.784]',0.28
'[16:00:18.788]',0.305
'[16:00:18.792]',0.265
'[16:00:18.796]',0.245
'[16:00:18.800]',0.235
'[16:00:18.804]',0.22
'[16:00:18.808]',0.175
'[16:00:18.812]',0.165
'[16:00:18.816]',0.15
'[16:00:18.820]',0.125
'[16:00:18.824]',0.125
'[16:00:18.828]',0.135
'[16:00:18.832]',0.115
'[16:00:18.836]',0.105
'[16:00:18.840]',0.095
'[16:00:18.844]',0.09
'[16:00:18.848]',0.065
'[16:00:18.852]',0.08
'[16:00:18.856]',0.08
'[16:00:18.860]',0.06
'[16:00:18.864]',0.06
'[16:00:18.868]',0.08
'[16:00:18.872]',0.07
'[16:00:18.876]',0.06
'[16:00:18.880]',0.065
'[16:00:18.884]',0.08
'[16:00:18.888]',0.07
'[16:00:18.892]',0.08
'[16:00:18.896]',0.085
'[16:00:18.900]',0.07
'[16:00:18.904]',0.08
'[16:00:18.908]',0.085
'[16:00:18.912]',0.075
'[16:00:18.916]',0.09
'[16:00:18.920]',0.085
'[16:00:18.924]',0.08
'[16:00:18.928]',0.09
'[16:00:18.932]',0.085
'[16:00:18.936]',0.08
'[16:00:18.940]',0.1
'[16:00:18.944]',0.09
'[16:00:18.948]',0.11
'[16:00:18.952]',0.09
'[16:00:18.956]',0.085
'[16:00:18.960]',0.08
'[16:00:18.964]',0.095
'[16:00:18.968]',0.1
'[16:00:18.972]',0.07
'[16:00:18.976]',0.09
'[16:00:18.980]',0.095
'[16:00:18.984]',0.105
'[16:00:18.988]',0.085
'[16:00:18.992]',0.095
'[16:00:18.996]',0.085
'[16:00:19.000]',0.085
'[16:00:19.004]',0.09
'[16:00:19.008]',0.075
'[16:00:19.012]',0.07
'[16:00:19.016]',0.065
'[16:00:19.020]',0.07
'[16:00:19.024]',0.065
'[16:00:19.028]',0.065
'[16:00:19.032]',0.09
'[16:00:19.036]',0.06
'[16:00:19.040]',0.07
'[16:00:19.044]',0.075
'[16:00:19.048]',0.065
'[16:00:19.052]',0.07
'[16:00:19.056]',0.09
'[16:00:19.060]',0.075
'[16:00:19.064]',0.09
'[16:00:19.068]',0.07
'[16:00:19.072]',0.095
'[16:00:19.076]',0.075
'[16:00:19.080]',0.09
'[16:00:19.084]',0.08
'[16:00:19.088]',0.075
'[16:00:19.092]',0.085
'[16:00:19.096]',0.09
'[16:00:19.100]',0.085
'[16:00:19.104]',0.095
'[16:00:19.108]',0.09
'[16:00:19.112]',0.11
'[16:00:19.116]',0.09
'[16:00:19.120]',0.07
'[16:00:19.124]',0.075
'[16:00:19.128]',0.085
'[16:00:19.132]',0.075
'[16:00:19.136]',0.07
'[16:00:19.140]',0.05
'[16:00:19.144]',0.05
'[16:00:19.148]',0.06
'[16:00:19.152]',0.07
'[16:00:19.156]',0.035
'[16:00:19.160]',0.03
'[16:00:19.164]',0.05
'[16:00:19.168]',0.05
'[16:00:19.172]',0.04
'[16:00:19.176]',0.035
'[16:00:19.180]',0.03
'[16:00:19.184]',0.015
'[16:00:19.188]',0.03
'[16:00:19.192]',0.055
'[16:00:19.196]',0.045
'[16:00:19.200]',0.04
'[16:00:19.204]',0.045
'[16:00:19.208]',0.035
'[16:00:19.212]',0.045
'[16:00:19.216]',0.035
'[16:00:19.220]',0.03
'[16:00:19.224]',0.05
'[16:00:19.228]',0.035
'[16:00:19.232]',0.035
'[16:00:19.236]',0.025
'[16:00:19.240]',0.02
'[16:00:19.244]',0.03
'[16:00:19.248]',0.045
'[16:00:19.252]',0.035
'[16:00:19.256]',0.045
'[16:00:19.260]',0.1
'[16:00:19.264]',0.165
'[16:00:19.268]',0.255
'[16:00:19.272]',0.33
'[16:00:19.276]',0.365
'[16:00:19.280]',0.305
'[16:00:19.284]',0.095
'[16:00:19.288]',-0.19
'[16:00:19.292]',-0.545
'[16:00:19.296]',-0.85
'[16:00:19.300]',-0.945
'[16:00:19.304]',-0.865
'[16:00:19.308]',-0.69
'[16:00:19.312]',-0.49
'[16:00:19.316]',-0.285
'[16:00:19.320]',-0.12
'[16:00:19.324]',-0.04
'[16:00:19.328]',-0.01
'[16:00:19.332]',0
'[16:00:19.336]',0.03
'[16:00:19.340]',0.05
'[16:00:19.344]',0.07
'[16:00:19.348]',0.11
'[16:00:19.352]',0.115
'[16:00:19.356]',0.115
'[16:00:19.360]',0.12
'[16:00:19.364]',0.11
'[16:00:19.368]',0.11
'[16:00:19.372]',0.13
'[16:00:19.376]',0.125
'[16:00:19.380]',0.12
'[16:00:19.384]',0.125
'[16:00:19.388]',0.135
'[16:00:19.392]',0.15
'[16:00:19.396]',0.145
'[16:00:19.400]',0.15
'[16:00:19.404]',0.165
'[16:00:19.408]',0.155
'[16:00:19.412]',0.165
'[16:00:19.416]',0.17
'[16:00:19.420]',0.195
'[16:00:19.424]',0.205
'[16:00:19.428]',0.235
'[16:00:19.432]',0.22
'[16:00:19.436]',0.225
'[16:00:19.440]',0.25
'[16:00:19.444]',0.245
'[16:00:19.448]',0.255
'[16:00:19.452]',0.26
'[16:00:19.456]',0.275
'[16:00:19.460]',0.295
'[16:00:19.464]',0.305
'[16:00:19.468]',0.315
'[16:00:19.472]',0.315
'[16:00:19.476]',0.33
'[16:00:19.480]',0.33
'[16:00:19.484]',0.345
'[16:00:19.488]',0.34
'[16:00:19.492]',0.36
'[16:00:19.496]',0.345
'[16:00:19.500]',0.365
'[16:00:19.504]',0.345
'[16:00:19.508]',0.355
'[16:00:19.512]',0.305
'[16:00:19.516]',0.32
'[16:00:19.520]',0.31
'[16:00:19.524]',0.29
'[16:00:19.528]',0.275
'[16:00:19.532]',0.26
'[16:00:19.536]',0.235
'[16:00:19.540]',0.205
'[16:00:19.544]',0.185
'[16:00:19.548]',0.165
'[16:00:19.552]',0.15
'[16:00:19.556]',0.13
'[16:00:19.560]',0.11
'[16:00:19.564]',0.1
'[16:00:19.568]',0.08
'[16:00:19.572]',0.09
'[16:00:19.576]',0.065
'[16:00:19.580]',0.08
'[16:00:19.584]',0.065
'[16:00:19.588]',0.065
'[16:00:19.592]',0.055
'[16:00:19.596]',0.05
'[16:00:19.600]',0.055
'[16:00:19.604]',0.035
'[16:00:19.608]',0.045
'[16:00:19.612]',0.055
'[16:00:19.616]',0.055
'[16:00:19.620]',0.05
'[16:00:19.624]',0.065
'[16:00:19.628]',0.065
'[16:00:19.632]',0.05
'[16:00:19.636]',0.07
'[16:00:19.640]',0.07
'[16:00:19.644]',0.085
'[16:00:19.648]',0.065
'[16:00:19.652]',0.08
'[16:00:19.656]',0.08
'[16:00:19.660]',0.08
'[16:00:19.664]',0.08
'[16:00:19.668]',0.08
'[16:00:19.672]',0.07
'[16:00:19.676]',0.085
'[16:00:19.680]',0.07
'[16:00:19.684]',0.08
'[16:00:19.688]',0.085
'[16:00:19.692]',0.09
'[16:00:19.696]',0.085
'[16:00:19.700]',0.095
'[16:00:19.704]',0.085
'[16:00:19.708]',0.09
'[16:00:19.712]',0.08
'[16:00:19.716]',0.075
'[16:00:19.720]',0.09
'[16:00:19.724]',0.1
'[16:00:19.728]',0.085
'[16:00:19.732]',0.08
'[16:00:19.736]',0.1
'[16:00:19.740]',0.09
'[16:00:19.744]',0.085
'[16:00:19.748]',0.095
'[16:00:19.752]',0.09
'[16:00:19.756]',0.075
'[16:00:19.760]',0.08
'[16:00:19.764]',0.09
'[16:00:19.768]',0.08
'[16:00:19.772]',0.085
'[16:00:19.776]',0.075
'[16:00:19.780]',0.09
'[16:00:19.784]',0.09
'[16:00:19.788]',0.065
'[16:00:19.792]',0.075
'[16:00:19.796]',0.08
'[16:00:19.800]',0.095
'[16:00:19.804]',0.095
'[16:00:19.808]',0.09
'[16:00:19.812]',0.095
'[16:00:19.816]',0.085
'[16:00:19.820]',0.09
'[16:00:19.824]',0.085
'[16:00:19.828]',0.09
'[16:00:19.832]',0.115
'[16:00:19.836]',0.1
'[16:00:19.840]',0.1
'[16:00:19.844]',0.09
'[16:00:19.848]',0.105
'[16:00:19.852]',0.09
'[16:00:19.856]',0.07
'[16:00:19.860]',0.075
'[16:00:19.864]',0.06
'[16:00:19.868]',0.07
'[16:00:19.872]',0.06
'[16:00:19.876]',0.06
'[16:00:19.880]',0.06
'[16:00:19.884]',0.07
'[16:00:19.888]',0.06
'[16:00:19.892]',0.04
'[16:00:19.896]',0.055
'[16:00:19.900]',0.06
'[16:00:19.904]',0.045
'[16:00:19.908]',0.035
'[16:00:19.912]',0.06
'[16:00:19.916]',0.05
'[16:00:19.920]',0.055
'[16:00:19.924]',0.035
'[16:00:19.928]',0.065
'[16:00:19.932]',0.045
'[16:00:19.936]',0.045
'[16:00:19.940]',0.05
'[16:00:19.944]',0.06
'[16:00:19.948]',0.055
'[16:00:19.952]',0.055
'[16:00:19.956]',0.065
'[16:00:19.960]',0.065
'[16:00:19.964]',0.07
'[16:00:19.968]',0.065
'[16:00:19.972]',0.065
'[16:00:19.976]',0.06
'[16:00:19.980]',0.06
'[16:00:19.984]',0.085
'[16:00:19.988]',0.115
'[16:00:19.992]',0.175
'[16:00:19.996]',0.275
'[16:00:20.000]',0.36
'[16:00:20.004]',0.41
'[16:00:20.008]',0.36
'[16:00:20.012]',0.185
'[16:00:20.016]',-0.115
'[16:00:20.020]',-0.47
'[16:00:20.024]',-0.775
'[16:00:20.028]',-0.93
'[16:00:20.032]',-0.89
'[16:00:20.036]',-0.705
'[16:00:20.040]',-0.515
'[16:00:20.044]',-0.32
'[16:00:20.048]',-0.145
'[16:00:20.052]',-0.035
'[16:00:20.056]',-0.01
'[16:00:20.060]',0.01
'[16:00:20.064]',0.035
'[16:00:20.068]',0.055
'[16:00:20.072]',0.085
'[16:00:20.076]',0.115
'[16:00:20.080]',0.135
'[16:00:20.084]',0.115
'[16:00:20.088]',0.135
'[16:00:20.092]',0.14
'[16:00:20.096]',0.135
'[16:00:20.100]',0.135
'[16:00:20.104]',0.135
'[16:00:20.108]',0.14
'[16:00:20.112]',0.16
'[16:00:20.116]',0.145
'[16:00:20.120]',0.145
'[16:00:20.124]',0.14
'[16:00:20.128]',0.17
'[16:00:20.132]',0.16
'[16:00:20.136]',0.165
'[16:00:20.140]',0.17
'[16:00:20.144]',0.175
'[16:00:20.148]',0.185
'[16:00:20.152]',0.185
'[16:00:20.156]',0.2
'[16:00:20.160]',0.21
'[16:00:20.164]',0.22
'[16:00:20.168]',0.235
'[16:00:20.172]',0.245
'[16:00:20.176]',0.235
'[16:00:20.180]',0.235
'[16:00:20.184]',0.27
'[16:00:20.188]',0.285
'[16:00:20.192]',0.315
'[16:00:20.196]',0.31
'[16:00:20.200]',0.3
'[16:00:20.204]',0.31
'[16:00:20.208]',0.32
'[16:00:20.212]',0.315
'[16:00:20.216]',0.31
'[16:00:20.220]',0.305
'[16:00:20.224]',0.315
'[16:00:20.228]',0.31
'[16:00:20.232]',0.31
'[16:00:20.236]',0.31
'[16:00:20.240]',0.305
'[16:00:20.244]',0.3
'[16:00:20.248]',0.285
'[16:00:20.252]',0.28
'[16:00:20.256]',0.255
'[16:00:20.260]',0.24
'[16:00:20.264]',0.22
'[16:00:20.268]',0.195
'[16:00:20.272]',0.15
'[16:00:20.276]',0.145
'[16:00:20.280]',0.125
'[16:00:20.284]',0.09
'[16:00:20.288]',0.09
'[16:00:20.292]',0.09
'[16:00:20.296]',0.06
'[16:00:20.300]',0.05
'[16:00:20.304]',0.045
'[16:00:20.308]',0.04
'[16:00:20.312]',0.035
'[16:00:20.316]',0.03
'[16:00:20.320]',0.035
'[16:00:20.324]',0.03
'[16:00:20.328]',0.025
'[16:00:20.332]',0.035
'[16:00:20.336]',0.06
'[16:00:20.340]',0.045
'[16:00:20.344]',0.035
'[16:00:20.348]',0.05
'[16:00:20.352]',0.055
'[16:00:20.356]',0.045
'[16:00:20.360]',0.05
'[16:00:20.364]',0.055
'[16:00:20.368]',0.045
'[16:00:20.372]',0.045
'[16:00:20.376]',0.055
'[16:00:20.380]',0.05
'[16:00:20.384]',0.045
'[16:00:20.388]',0.065
'[16:00:20.392]',0.065
'[16:00:20.396]',0.06
'[16:00:20.400]',0.06
'[16:00:20.404]',0.075
'[16:00:20.408]',0.065
'[16:00:20.412]',0.06
'[16:00:20.416]',0.07
'[16:00:20.420]',0.06
'[16:00:20.424]',0.055
'[16:00:20.428]',0.055
'[16:00:20.432]',0.05
'[16:00:20.436]',0.04
'[16:00:20.440]',0.05
'[16:00:20.444]',0.04
'[16:00:20.448]',0.055
'[16:00:20.452]',0.055
'[16:00:20.456]',0.055
'[16:00:20.460]',0.065
'[16:00:20.464]',0.045
'[16:00:20.468]',0.025
'[16:00:20.472]',0.065
'[16:00:20.476]',0.045
'[16:00:20.480]',0.06
'[16:00:20.484]',0.06
'[16:00:20.488]',0.05
'[16:00:20.492]',0.035
'[16:00:20.496]',0.06
'[16:00:20.500]',0.045
'[16:00:20.504]',0.05
'[16:00:20.508]',0.04
'[16:00:20.512]',0.04
'[16:00:20.516]',0.025
'[16:00:20.520]',0.065
'[16:00:20.524]',0.04
'[16:00:20.528]',0.045
'[16:00:20.532]',0.035
'[16:00:20.536]',0.045
'[16:00:20.540]',0.05
'[16:00:20.544]',0.05
'[16:00:20.548]',0.05
'[16:00:20.552]',0.08
'[16:00:20.556]',0.06
'[16:00:20.560]',0.075
'[16:00:20.564]',0.065
'[16:00:20.568]',0.085
'[16:00:20.572]',0.055
'[16:00:20.576]',0.06
'[16:00:20.580]',0.05
'[16:00:20.584]',0.04
'[16:00:20.588]',0.04
'[16:00:20.592]',0.035
'[16:00:20.596]',0.025
'[16:00:20.600]',0.025
'[16:00:20.604]',0.03
'[16:00:20.608]',0.04
'[16:00:20.612]',0.02
'[16:00:20.616]',0.035
'[16:00:20.620]',0.035
'[16:00:20.624]',0.03
'[16:00:20.628]',0.035
'[16:00:20.632]',0.04
'[16:00:20.636]',0.035
'[16:00:20.640]',0.03
'[16:00:20.644]',0.04
'[16:00:20.648]',0.03
'[16:00:20.652]',0.04
'[16:00:20.656]',0.025
'[16:00:20.660]',0.03
'[16:00:20.664]',0.02
'[16:00:20.668]',0.015
'[16:00:20.672]',0.03
'[16:00:20.676]',0.025
'[16:00:20.680]',0.045
'[16:00:20.684]',0.05
'[16:00:20.688]',0.05
'[16:00:20.692]',0.04
'[16:00:20.696]',0.045
'[16:00:20.700]',0.06
'[16:00:20.704]',0.05
'[16:00:20.708]',0.035
'[16:00:20.712]',0.06
'[16:00:20.716]',0.08
'[16:00:20.720]',0.12
'[16:00:20.724]',0.17
'[16:00:20.728]',0.3
'[16:00:20.732]',0.365
'[16:00:20.736]',0.405
'[16:00:20.740]',0.35
'[16:00:20.744]',0.145
'[16:00:20.748]',-0.135
'[16:00:20.752]',-0.47
'[16:00:20.756]',-0.785
'[16:00:20.760]',-0.945
'[16:00:20.764]',-0.885
'[16:00:20.768]',-0.72
'[16:00:20.772]',-0.55
'[16:00:20.776]',-0.31
'[16:00:20.780]',-0.14
'[16:00:20.784]',-0.05
'[16:00:20.788]',-0.02
'[16:00:20.792]',0.005
'[16:00:20.796]',0.045
'[16:00:20.800]',0.055
'[16:00:20.804]',0.09
'[16:00:20.808]',0.12
'[16:00:20.812]',0.125
'[16:00:20.816]',0.125
'[16:00:20.820]',0.13
'[16:00:20.824]',0.125
'[16:00:20.828]',0.14
'[16:00:20.832]',0.135
'[16:00:20.836]',0.125
'[16:00:20.840]',0.14
'[16:00:20.844]',0.15
'[16:00:20.848]',0.145
'[16:00:20.852]',0.14
'[16:00:20.856]',0.155
'[16:00:20.860]',0.165
'[16:00:20.864]',0.17
'[16:00:20.868]',0.17
'[16:00:20.872]',0.185
'[16:00:20.876]',0.18
'[16:00:20.880]',0.2
'[16:00:20.884]',0.205
'[16:00:20.888]',0.21
'[16:00:20.892]',0.22
'[16:00:20.896]',0.22
'[16:00:20.900]',0.215
'[16:00:20.904]',0.23
'[16:00:20.908]',0.255
'[16:00:20.912]',0.285
'[16:00:20.916]',0.285
'[16:00:20.920]',0.29
'[16:00:20.924]',0.295
'[16:00:20.928]',0.315
'[16:00:20.932]',0.34
'[16:00:20.936]',0.335
'[16:00:20.940]',0.335
'[16:00:20.944]',0.35
'[16:00:20.948]',0.35
'[16:00:20.952]',0.33
'[16:00:20.956]',0.33
'[16:00:20.960]',0.34
'[16:00:20.964]',0.35
'[16:00:20.968]',0.33
'[16:00:20.972]',0.325
'[16:00:20.976]',0.305
'[16:00:20.980]',0.295
'[16:00:20.984]',0.285
'[16:00:20.988]',0.285
'[16:00:20.992]',0.265
'[16:00:20.996]',0.255
'[16:00:21.000]',0.23
'[16:00:21.004]',0.205
'[16:00:21.008]',0.19
'[16:00:21.012]',0.185
'[16:00:21.016]',0.145
'[16:00:21.020]',0.125
'[16:00:21.024]',0.125
'[16:00:21.028]',0.11
'[16:00:21.032]',0.11
'[16:00:21.036]',0.08
'[16:00:21.040]',0.085
'[16:00:21.044]',0.08
'[16:00:21.048]',0.075
'[16:00:21.052]',0.08
'[16:00:21.056]',0.09
'[16:00:21.060]',0.065
'[16:00:21.064]',0.06
'[16:00:21.068]',0.075
'[16:00:21.072]',0.075
'[16:00:21.076]',0.08
'[16:00:21.080]',0.085
'[16:00:21.084]',0.075
'[16:00:21.088]',0.085
'[16:00:21.092]',0.105
'[16:00:21.096]',0.075
'[16:00:21.100]',0.065
'[16:00:21.104]',0.085
'[16:00:21.108]',0.09
'[16:00:21.112]',0.085
'[16:00:21.116]',0.075
'[16:00:21.120]',0.08
'[16:00:21.124]',0.075
'[16:00:21.128]',0.08
'[16:00:21.132]',0.095
'[16:00:21.136]',0.11
'[16:00:21.140]',0.075
'[16:00:21.144]',0.095
'[16:00:21.148]',0.095
'[16:00:21.152]',0.08
'[16:00:21.156]',0.105
'[16:00:21.160]',0.1
'[16:00:21.164]',0.1
'[16:00:21.168]',0.09
'[16:00:21.172]',0.1
'[16:00:21.176]',0.09
'[16:00:21.180]',0.1
'[16:00:21.184]',0.09
'[16:00:21.188]',0.08
'[16:00:21.192]',0.08
'[16:00:21.196]',0.06
'[16:00:21.200]',0.07
'[16:00:21.204]',0.075
'[16:00:21.208]',0.065
'[16:00:21.212]',0.07
'[16:00:21.216]',0.07
'[16:00:21.220]',0.07
'[16:00:21.224]',0.055
'[16:00:21.228]',0.075
'[16:00:21.232]',0.07
'[16:00:21.236]',0.075
'[16:00:21.240]',0.08
'[16:00:21.244]',0.07
'[16:00:21.248]',0.065
'[16:00:21.252]',0.06
'[16:00:21.256]',0.065
'[16:00:21.260]',0.045
'[16:00:21.264]',0.06
'[16:00:21.268]',0.065
'[16:00:21.272]',0.07
'[16:00:21.276]',0.06
'[16:00:21.280]',0.08
'[16:00:21.284]',0.07
'[16:00:21.288]',0.07
'[16:00:21.292]',0.08
'[16:00:21.296]',0.075
'[16:00:21.300]',0.08
'[16:00:21.304]',0.085
'[16:00:21.308]',0.075
'[16:00:21.312]',0.07
'[16:00:21.316]',0.055
'[16:00:21.320]',0.045
'[16:00:21.324]',0.045
'[16:00:21.328]',0.055
'[16:00:21.332]',0.04
'[16:00:21.336]',0.05
'[16:00:21.340]',0.045
'[16:00:21.344]',0.03
'[16:00:21.348]',0.025
'[16:00:21.352]',0.04
'[16:00:21.356]',0.035
'[16:00:21.360]',0.035
'[16:00:21.364]',0.035
'[16:00:21.368]',0.045
'[16:00:21.372]',0.025
'[16:00:21.376]',0.045
'[16:00:21.380]',0.035
