'Time','ECG1'
'[11:15:00.000]',0.125
'[11:15:00.008]',0.005
'[11:15:00.016]',0.025
'[11:15:00.023]',0.065
'[11:15:00.031]',-0.085
'[11:15:00.039]',0.005
'[11:15:00.047]',-0.065
'[11:15:00.055]',-0.015
'[11:15:00.063]',-0.035
'[11:15:00.070]',-0.035
'[11:15:00.078]',0.015
'[11:15:00.086]',0.155
'[11:15:00.094]',0.435
'[11:15:00.102]',0.655
'[11:15:00.109]',0.865
'[11:15:00.117]',0.125
'[11:15:00.125]',-0.925
'[11:15:00.133]',-0.935
'[11:15:00.141]',-0.615
'[11:15:00.148]',-0.235
'[11:15:00.156]',0.005
'[11:15:00.164]',0.035
'[11:15:00.172]',0.035
'[11:15:00.180]',0.015
'[11:15:00.188]',0.005
'[11:15:00.195]',0.045
'[11:15:00.203]',0.045
'[11:15:00.211]',0.045
'[11:15:00.219]',0.105
'[11:15:00.227]',0.105
'[11:15:00.234]',0.095
'[11:15:00.242]',0.125
'[11:15:00.250]',0.115
'[11:15:00.258]',0.105
'[11:15:00.266]',0.165
'[11:15:00.273]',0.155
'[11:15:00.281]',0.235
'[11:15:00.289]',0.185
'[11:15:00.297]',0.205
'[11:15:00.305]',0.315
'[11:15:00.313]',0.295
'[11:15:00.320]',0.305
'[11:15:00.328]',0.325
'[11:15:00.336]',0.415
'[11:15:00.344]',0.425
'[11:15:00.352]',0.495
'[11:15:00.359]',0.475
'[11:15:00.367]',0.525
'[11:15:00.375]',0.475
'[11:15:00.383]',0.505
'[11:15:00.391]',0.415
'[11:15:00.398]',0.355
'[11:15:00.406]',0.265
'[11:15:00.414]',0.175
'[11:15:00.422]',0.105
'[11:15:00.430]',0.085
'[11:15:00.438]',-0.015
'[11:15:00.445]',-0.015
'[11:15:00.453]',-0.045
'[11:15:00.461]',-0.095
'[11:15:00.469]',-0.035
'[11:15:00.477]',-0.085
'[11:15:00.484]',-0.085
'[11:15:00.492]',-0.135
'[11:15:00.500]',-0.065
'[11:15:00.508]',-0.085
'[11:15:00.516]',-0.105
'[11:15:00.523]',-0.075
'[11:15:00.531]',-0.095
'[11:15:00.539]',-0.095
'[11:15:00.547]',-0.065
'[11:15:00.555]',-0.085
'[11:15:00.563]',-0.075
'[11:15:00.570]',-0.085
'[11:15:00.578]',-0.075
'[11:15:00.586]',-0.085
'[11:15:00.594]',-0.075
'[11:15:00.602]',-0.045
'[11:15:00.609]',-0.065
'[11:15:00.617]',-0.055
'[11:15:00.625]',-0.075
'[11:15:00.633]',-0.075
'[11:15:00.641]',-0.105
'[11:15:00.648]',-0.055
'[11:15:00.656]',-0.095
'[11:15:00.664]',-0.085
'[11:15:00.672]',-0.095
'[11:15:00.680]',-0.055
'[11:15:00.688]',-0.095
'[11:15:00.695]',-0.105
'[11:15:00.703]',-0.085
'[11:15:00.711]',-0.105
'[11:15:00.719]',-0.065
'[11:15:00.727]',-0.065
'[11:15:00.734]',-0.025
'[11:15:00.742]',-0.075
'[11:15:00.750]',-0.125
'[11:15:00.758]',-0.065
'[11:15:00.766]',-0.095
'[11:15:00.773]',-0.105
'[11:15:00.781]',-0.045
'[11:15:00.789]',-0.045
'[11:15:00.797]',0.015
'[11:15:00.805]',0.015
'[11:15:00.813]',0.075
'[11:15:00.820]',0.055
'[11:15:00.828]',0.035
'[11:15:00.836]',-0.045
'[11:15:00.844]',-0.045
'[11:15:00.852]',-0.015
'[11:15:00.859]',-0.075
'[11:15:00.867]',-0.135
'[11:15:00.875]',-0.145
'[11:15:00.883]',-0.105
'[11:15:00.891]',-0.165
'[11:15:00.898]',-0.145
'[11:15:00.906]',-0.085
'[11:15:00.914]',-0.085
'[11:15:00.922]',0.005
'[11:15:00.930]',0.295
'[11:15:00.938]',0.585
'[11:15:00.945]',0.885
'[11:15:00.953]',0.055
'[11:15:00.961]',-0.955
'[11:15:00.969]',-1055
'[11:15:00.977]',-0.725
'[11:15:00.984]',-0.455
'[11:15:00.992]',-0.175
'[11:15:01.000]',-0.065
'[11:15:01.008]',-0.125
'[11:15:01.016]',-0.045
'[11:15:01.023]',-0.065
'[11:15:01.031]',-0.035
'[11:15:01.039]',-0.035
'[11:15:01.047]',-0.035
'[11:15:01.055]',-0.055
'[11:15:01.063]',0.015
'[11:15:01.070]',-0.025
'[11:15:01.078]',-0.015
'[11:15:01.086]',0.115
'[11:15:01.094]',0.005
'[11:15:01.102]',0.025
'[11:15:01.109]',0.125
'[11:15:01.117]',0.065
'[11:15:01.125]',0.155
'[11:15:01.133]',0.135
'[11:15:01.141]',0.155
'[11:15:01.148]',0.185
'[11:15:01.156]',0.225
'[11:15:01.164]',0.305
'[11:15:01.172]',0.265
'[11:15:01.180]',0.405
'[11:15:01.188]',0.375
'[11:15:01.195]',0.395
'[11:15:01.203]',0.435
'[11:15:01.211]',0.415
'[11:15:01.219]',0.415
'[11:15:01.227]',0.345
'[11:15:01.234]',0.235
'[11:15:01.242]',0.145
'[11:15:01.250]',0.025
'[11:15:01.258]',-0.055
'[11:15:01.266]',-0.065
'[11:15:01.273]',-0.155
'[11:15:01.281]',-0.175
'[11:15:01.289]',-0.155
'[11:15:01.297]',-0.215
'[11:15:01.305]',-0.245
'[11:15:01.313]',-0.135
'[11:15:01.320]',-0.235
'[11:15:01.328]',-0.255
'[11:15:01.336]',-0.215
'[11:15:01.344]',-0.225
'[11:15:01.352]',-0.285
'[11:15:01.359]',-0.155
'[11:15:01.367]',-0.225
'[11:15:01.375]',-0.245
'[11:15:01.383]',-0.205
'[11:15:01.391]',-0.265
'[11:15:01.398]',-0.225
'[11:15:01.406]',-0.185
'[11:15:01.414]',-0.245
'[11:15:01.422]',-0.195
'[11:15:01.430]',-0.225
'[11:15:01.438]',-0.225
'[11:15:01.445]',-0.175
'[11:15:01.453]',-0.255
'[11:15:01.461]',-0.235
'[11:15:01.469]',-0.275
'[11:15:01.477]',-0.135
'[11:15:01.484]',-0.225
'[11:15:01.492]',-0.225
'[11:15:01.500]',-0.215
'[11:15:01.508]',-0.235
'[11:15:01.516]',-0.225
'[11:15:01.523]',-0.245
'[11:15:01.531]',-0.255
'[11:15:01.539]',-0.245
'[11:15:01.547]',-0.185
'[11:15:01.555]',-0.235
'[11:15:01.563]',-0.225
'[11:15:01.570]',-0.285
'[11:15:01.578]',-0.185
'[11:15:01.586]',-0.205
'[11:15:01.594]',-0.245
'[11:15:01.602]',-0.205
'[11:15:01.609]',-0.235
'[11:15:01.617]',-0.235
'[11:15:01.625]',-0.195
'[11:15:01.633]',-0.205
'[11:15:01.641]',-0.235
'[11:15:01.648]',-0.135
'[11:15:01.656]',-0.165
'[11:15:01.664]',-0.105
'[11:15:01.672]',-0.105
'[11:15:01.680]',-0.095
'[11:15:01.688]',-0.045
'[11:15:01.695]',-0.015
'[11:15:01.703]',-0.135
'[11:15:01.711]',-0.105
'[11:15:01.719]',-0.235
'[11:15:01.727]',-0.135
'[11:15:01.734]',-0.205
'[11:15:01.742]',-0.225
'[11:15:01.750]',-0.255
'[11:15:01.758]',-0.285
'[11:15:01.766]',-0.225
'[11:15:01.773]',-0.225
'[11:15:01.781]',-0.235
'[11:15:01.789]',-0.235
'[11:15:01.797]',-0.025
'[11:15:01.805]',0.275
'[11:15:01.813]',0.585
'[11:15:01.820]',0.795
'[11:15:01.828]',-0.425
'[11:15:01.836]',-1375
'[11:15:01.844]',-1135
'[11:15:01.852]',-0.665
'[11:15:01.859]',-0.265
'[11:15:01.867]',-0.185
'[11:15:01.875]',-0.195
'[11:15:01.883]',-0.215
'[11:15:01.891]',-0.175
'[11:15:01.898]',-0.185
'[11:15:01.906]',-0.155
'[11:15:01.914]',-0.205
'[11:15:01.922]',-0.115
'[11:15:01.930]',-0.095
'[11:15:01.938]',-0.165
'[11:15:01.945]',-0.105
'[11:15:01.953]',-0.085
'[11:15:01.961]',-0.065
'[11:15:01.969]',-0.105
'[11:15:01.977]',-0.035
'[11:15:01.984]',-0.075
'[11:15:01.992]',0.015
'[11:15:02.000]',-0.005
'[11:15:02.008]',0.035
'[11:15:02.016]',0.075
'[11:15:02.023]',0.095
'[11:15:02.031]',0.135
'[11:15:02.039]',0.205
'[11:15:02.047]',0.215
'[11:15:02.055]',0.305
'[11:15:02.063]',0.305
'[11:15:02.070]',0.335
'[11:15:02.078]',0.325
'[11:15:02.086]',0.305
'[11:15:02.094]',0.305
'[11:15:02.102]',0.215
'[11:15:02.109]',0.115
'[11:15:02.117]',-0.035
'[11:15:02.125]',-0.085
'[11:15:02.133]',-0.155
'[11:15:02.141]',-0.185
'[11:15:02.148]',-0.225
'[11:15:02.156]',-0.235
'[11:15:02.164]',-0.225
'[11:15:02.172]',-0.225
'[11:15:02.180]',-0.265
'[11:15:02.188]',-0.275
'[11:15:02.195]',-0.295
'[11:15:02.203]',-0.285
'[11:15:02.211]',-0.265
'[11:15:02.219]',-0.275
'[11:15:02.227]',-0.275
'[11:15:02.234]',-0.225
'[11:15:02.242]',-0.235
'[11:15:02.250]',-0.265
'[11:15:02.258]',-0.215
'[11:15:02.266]',-0.265
'[11:15:02.273]',-0.245
'[11:15:02.281]',-0.235
'[11:15:02.289]',-0.225
'[11:15:02.297]',-0.165
'[11:15:02.305]',-0.235
'[11:15:02.313]',-0.215
'[11:15:02.320]',-0.215
'[11:15:02.328]',-0.235
'[11:15:02.336]',-0.195
'[11:15:02.344]',-0.225
'[11:15:02.352]',-0.215
'[11:15:02.359]',-0.245
'[11:15:02.367]',-0.175
'[11:15:02.375]',-0.245
'[11:15:02.383]',-0.215
'[11:15:02.391]',-0.225
'[11:15:02.398]',-0.235
'[11:15:02.406]',-0.195
'[11:15:02.414]',-0.205
'[11:15:02.422]',-0.205
'[11:15:02.430]',-0.225
'[11:15:02.438]',-0.165
'[11:15:02.445]',-0.215
'[11:15:02.453]',-0.225
'[11:15:02.461]',-0.215
'[11:15:02.469]',-0.245
'[11:15:02.477]',-0.185
'[11:15:02.484]',-0.215
'[11:15:02.492]',-0.185
'[11:15:02.500]',-0.195
'[11:15:02.508]',-0.225
'[11:15:02.516]',-0.185
'[11:15:02.523]',-0.245
'[11:15:02.531]',-0.145
'[11:15:02.539]',-0.195
'[11:15:02.547]',-0.165
'[11:15:02.555]',-0.125
'[11:15:02.563]',-0.055
'[11:15:02.570]',-0.115
'[11:15:02.578]',-0.075
'[11:15:02.586]',-0.025
'[11:15:02.594]',-0.085
'[11:15:02.602]',-0.165
'[11:15:02.609]',-0.185
'[11:15:02.617]',-0.155
'[11:15:02.625]',-0.215
'[11:15:02.633]',-0.195
'[11:15:02.641]',-0.315
'[11:15:02.648]',-0.245
'[11:15:02.656]',-0.245
'[11:15:02.664]',-0.225
'[11:15:02.672]',-0.255
'[11:15:02.680]',-0.175
'[11:15:02.688]',-0.065
'[11:15:02.695]',0.285
'[11:15:02.703]',0.535
'[11:15:02.711]',0.635
'[11:15:02.719]',-0.465
'[11:15:02.727]',-1225
'[11:15:02.734]',-1105
'[11:15:02.742]',-0.705
'[11:15:02.750]',-0.315
'[11:15:02.758]',-0.205
'[11:15:02.766]',-0.175
'[11:15:02.773]',-0.215
'[11:15:02.781]',-0.125
'[11:15:02.789]',-0.155
'[11:15:02.797]',-0.135
'[11:15:02.805]',-0.105
'[11:15:02.813]',-0.085
'[11:15:02.820]',-0.105
'[11:15:02.828]',-0.095
'[11:15:02.836]',-0.085
'[11:15:02.844]',-0.065
'[11:15:02.852]',-0.025
'[11:15:02.859]',-0.005
'[11:15:02.867]',0.005
'[11:15:02.875]',0.005
'[11:15:02.883]',0.015
'[11:15:02.891]',0.065
'[11:15:02.898]',0.095
'[11:15:02.906]',0.085
'[11:15:02.914]',0.145
'[11:15:02.922]',0.215
'[11:15:02.930]',0.175
'[11:15:02.938]',0.265
'[11:15:02.945]',0.285
'[11:15:02.953]',0.295
'[11:15:02.961]',0.385
'[11:15:02.969]',0.325
'[11:15:02.977]',0.395
'[11:15:02.984]',0.335
'[11:15:02.992]',0.265
'[11:15:03.000]',0.205
'[11:15:03.008]',0.085
'[11:15:03.016]',-0.045
'[11:15:03.023]',-0.055
'[11:15:03.031]',-0.165
'[11:15:03.039]',-0.115
'[11:15:03.047]',-0.195
'[11:15:03.055]',-0.195
'[11:15:03.063]',-0.245
'[11:15:03.070]',-0.205
'[11:15:03.078]',-0.235
'[11:15:03.086]',-0.215
'[11:15:03.094]',-0.235
'[11:15:03.102]',-0.205
'[11:15:03.109]',-0.175
'[11:15:03.117]',-0.245
'[11:15:03.125]',-0.185
'[11:15:03.133]',-0.205
'[11:15:03.141]',-0.205
'[11:15:03.148]',-0.155
'[11:15:03.156]',-0.215
'[11:15:03.164]',-0.215
'[11:15:03.172]',-0.175
'[11:15:03.180]',-0.165
'[11:15:03.188]',-0.165
'[11:15:03.195]',-0.195
'[11:15:03.203]',-0.175
'[11:15:03.211]',-0.185
'[11:15:03.219]',-0.175
'[11:15:03.227]',-0.175
'[11:15:03.234]',-0.195
'[11:15:03.242]',-0.175
'[11:15:03.250]',-0.215
'[11:15:03.258]',-0.145
'[11:15:03.266]',-0.175
'[11:15:03.273]',-0.225
'[11:15:03.281]',-0.175
'[11:15:03.289]',-0.135
'[11:15:03.297]',-0.215
'[11:15:03.305]',-0.155
'[11:15:03.313]',-0.195
'[11:15:03.320]',-0.245
'[11:15:03.328]',-0.195
'[11:15:03.336]',-0.145
'[11:15:03.344]',-0.175
'[11:15:03.352]',-0.165
'[11:15:03.359]',-0.195
'[11:15:03.367]',-0.185
'[11:15:03.375]',-0.185
'[11:15:03.383]',-0.205
'[11:15:03.391]',-0.165
'[11:15:03.398]',-0.215
'[11:15:03.406]',-0.175
'[11:15:03.414]',-0.135
'[11:15:03.422]',-0.215
'[11:15:03.430]',-0.135
'[11:15:03.438]',-0.215
'[11:15:03.445]',-0.125
'[11:15:03.453]',-0.205
'[11:15:03.461]',-0.215
'[11:15:03.469]',-0.175
'[11:15:03.477]',-0.155
'[11:15:03.484]',-0.155
'[11:15:03.492]',-0.185
'[11:15:03.500]',-0.145
'[11:15:03.508]',-0.135
'[11:15:03.516]',-0.155
'[11:15:03.523]',-0.065
'[11:15:03.531]',-0.035
'[11:15:03.539]',-0.065
'[11:15:03.547]',0.005
'[11:15:03.555]',-0.015
'[11:15:03.563]',-0.035
'[11:15:03.570]',-0.135
'[11:15:03.578]',-0.155
'[11:15:03.586]',-0.165
'[11:15:03.594]',-0.115
'[11:15:03.602]',-0.195
'[11:15:03.609]',-0.205
'[11:15:03.617]',-0.155
'[11:15:03.625]',-0.235
'[11:15:03.633]',-0.105
'[11:15:03.641]',-0.185
'[11:15:03.648]',-0.075
'[11:15:03.656]',0.135
'[11:15:03.664]',0.455
'[11:15:03.672]',0.895
'[11:15:03.680]',0.245
'[11:15:03.688]',-0.965
'[11:15:03.695]',-1285
'[11:15:03.703]',-0.905
'[11:15:03.711]',-0.395
'[11:15:03.719]',-0.175
'[11:15:03.727]',-0.125
'[11:15:03.734]',-0.125
'[11:15:03.742]',-0.135
'[11:15:03.750]',-0.095
'[11:15:03.758]',-0.085
'[11:15:03.766]',-0.135
'[11:15:03.773]',-0.025
'[11:15:03.781]',-0.085
'[11:15:03.789]',-0.105
'[11:15:03.797]',0.025
'[11:15:03.805]',-0.045
'[11:15:03.813]',-0.005
'[11:15:03.820]',-0.015
'[11:15:03.828]',-0.075
'[11:15:03.836]',0.135
'[11:15:03.844]',0.025
'[11:15:03.852]',0.045
'[11:15:03.859]',0.105
'[11:15:03.867]',0.155
'[11:15:03.875]',0.135
'[11:15:03.883]',0.185
'[11:15:03.891]',0.185
'[11:15:03.898]',0.245
'[11:15:03.906]',0.275
'[11:15:03.914]',0.275
'[11:15:03.922]',0.445
'[11:15:03.930]',0.335
'[11:15:03.938]',0.365
'[11:15:03.945]',0.405
'[11:15:03.953]',0.355
'[11:15:03.961]',0.245
'[11:15:03.969]',0.185
'[11:15:03.977]',0.105
'[11:15:03.984]',-0.005
'[11:15:03.992]',-0.075
'[11:15:04.000]',-0.095
'[11:15:04.008]',-0.135
'[11:15:04.016]',-0.185
'[11:15:04.023]',-0.185
'[11:15:04.031]',-0.225
'[11:15:04.039]',-0.215
'[11:15:04.047]',-0.215
'[11:15:04.055]',-0.245
'[11:15:04.063]',-0.175
'[11:15:04.070]',-0.225
'[11:15:04.078]',-0.235
'[11:15:04.086]',-0.255
'[11:15:04.094]',-0.145
'[11:15:04.102]',-0.215
'[11:15:04.109]',-0.185
'[11:15:04.117]',-0.225
'[11:15:04.125]',-0.145
'[11:15:04.133]',-0.205
'[11:15:04.141]',-0.185
'[11:15:04.148]',-0.155
'[11:15:04.156]',-0.205
'[11:15:04.164]',-0.105
'[11:15:04.172]',-0.145
'[11:15:04.180]',-0.155
'[11:15:04.188]',-0.135
'[11:15:04.195]',-0.195
'[11:15:04.203]',-0.185
'[11:15:04.211]',-0.135
'[11:15:04.219]',-0.155
'[11:15:04.227]',-0.105
'[11:15:04.234]',-0.225
'[11:15:04.242]',-0.085
'[11:15:04.250]',-0.175
'[11:15:04.258]',-0.145
'[11:15:04.266]',-0.175
'[11:15:04.273]',-0.135
'[11:15:04.281]',-0.155
'[11:15:04.289]',-0.155
'[11:15:04.297]',-0.105
'[11:15:04.305]',-0.155
'[11:15:04.313]',-0.105
'[11:15:04.320]',-0.095
'[11:15:04.328]',-0.145
'[11:15:04.336]',-0.165
'[11:15:04.344]',-0.105
'[11:15:04.352]',-0.125
'[11:15:04.359]',-0.115
'[11:15:04.367]',-0.075
'[11:15:04.375]',-0.095
'[11:15:04.383]',-0.185
'[11:15:04.391]',-0.075
'[11:15:04.398]',-0.145
'[11:15:04.406]',-0.105
'[11:15:04.414]',-0.135
'[11:15:04.422]',-0.105
'[11:15:04.430]',-0.095
'[11:15:04.438]',-0.125
'[11:15:04.445]',-0.035
'[11:15:04.453]',-0.085
'[11:15:04.461]',-0.135
'[11:15:04.469]',-0.015
'[11:15:04.477]',-0.015
'[11:15:04.484]',0.055
'[11:15:04.492]',0.025
'[11:15:04.500]',0.075
'[11:15:04.508]',-0.015
'[11:15:04.516]',-0.115
'[11:15:04.523]',-0.055
'[11:15:04.531]',-0.055
'[11:15:04.539]',-0.135
'[11:15:04.547]',-0.185
'[11:15:04.555]',-0.135
'[11:15:04.563]',-0.115
'[11:15:04.570]',-0.125
'[11:15:04.578]',-0.135
'[11:15:04.586]',-0.085
'[11:15:04.594]',-0.025
'[11:15:04.602]',0.295
'[11:15:04.609]',0.535
'[11:15:04.617]',0.825
'[11:15:04.625]',0.335
'[11:15:04.633]',-0.685
'[11:15:04.641]',-1115
'[11:15:04.648]',-0.785
'[11:15:04.656]',-0.385
'[11:15:04.664]',-0.175
'[11:15:04.672]',-0.055
'[11:15:04.680]',-0.075
'[11:15:04.688]',-0.055
'[11:15:04.695]',-0.035
'[11:15:04.703]',-0.085
'[11:15:04.711]',0.025
'[11:15:04.719]',-0.025
'[11:15:04.727]',0.005
'[11:15:04.734]',0.035
'[11:15:04.742]',0.015
'[11:15:04.750]',0.055
'[11:15:04.758]',0.055
'[11:15:04.766]',0.055
'[11:15:04.773]',0.045
'[11:15:04.781]',0.135
'[11:15:04.789]',0.155
'[11:15:04.797]',0.155
'[11:15:04.805]',0.165
'[11:15:04.813]',0.205
'[11:15:04.820]',0.195
'[11:15:04.828]',0.265
'[11:15:04.836]',0.275
'[11:15:04.844]',0.285
'[11:15:04.852]',0.415
'[11:15:04.859]',0.435
'[11:15:04.867]',0.405
'[11:15:04.875]',0.485
'[11:15:04.883]',0.435
'[11:15:04.891]',0.405
'[11:15:04.898]',0.435
'[11:15:04.906]',0.355
'[11:15:04.914]',0.215
'[11:15:04.922]',0.135
'[11:15:04.930]',0.065
'[11:15:04.938]',-0.005
'[11:15:04.945]',-0.065
'[11:15:04.953]',-0.065
'[11:15:04.961]',-0.125
'[11:15:04.969]',-0.105
'[11:15:04.977]',-0.185
'[11:15:04.984]',-0.115
'[11:15:04.992]',-0.185
'[11:15:05.000]',-0.155
'[11:15:05.008]',-0.155
'[11:15:05.016]',-0.195
'[11:15:05.023]',-0.135
'[11:15:05.031]',-0.165
'[11:15:05.039]',-0.105
'[11:15:05.047]',-0.215
'[11:15:05.055]',-0.125
'[11:15:05.063]',-0.165
'[11:15:05.070]',-0.125
'[11:15:05.078]',-0.155
'[11:15:05.086]',-0.205
'[11:15:05.094]',-0.125
'[11:15:05.102]',-0.115
'[11:15:05.109]',-0.145
'[11:15:05.117]',-0.135
'[11:15:05.125]',-0.165
'[11:15:05.133]',-0.095
'[11:15:05.141]',-0.165
'[11:15:05.148]',-0.145
'[11:15:05.156]',-0.145
'[11:15:05.164]',-0.165
'[11:15:05.172]',-0.135
'[11:15:05.180]',-0.165
'[11:15:05.188]',-0.175
'[11:15:05.195]',-0.165
'[11:15:05.203]',-0.185
'[11:15:05.211]',-0.175
'[11:15:05.219]',-0.125
'[11:15:05.227]',-0.175
'[11:15:05.234]',-0.165
'[11:15:05.242]',-0.185
'[11:15:05.250]',-0.135
'[11:15:05.258]',-0.135
'[11:15:05.266]',-0.205
'[11:15:05.273]',-0.135
'[11:15:05.281]',-0.175
'[11:15:05.289]',-0.175
'[11:15:05.297]',-0.045
'[11:15:05.305]',-0.195
'[11:15:05.313]',-0.165
'[11:15:05.320]',-0.145
'[11:15:05.328]',-0.175
'[11:15:05.336]',-0.155
'[11:15:05.344]',-0.135
'[11:15:05.352]',-0.185
'[11:15:05.359]',-0.105
'[11:15:05.367]',-0.125
'[11:15:05.375]',-0.085
'[11:15:05.383]',-0.105
'[11:15:05.391]',-0.015
'[11:15:05.398]',-0.075
'[11:15:05.406]',0.005
'[11:15:05.414]',-0.005
'[11:15:05.422]',-0.025
'[11:15:05.430]',-0.115
'[11:15:05.438]',-0.135
'[11:15:05.445]',-0.145
'[11:15:05.453]',-0.175
'[11:15:05.461]',-0.195
'[11:15:05.469]',-0.225
'[11:15:05.477]',-0.245
'[11:15:05.484]',-0.095
'[11:15:05.492]',-0.185
'[11:15:05.500]',-0.215
'[11:15:05.508]',-0.125
'[11:15:05.516]',0.075
'[11:15:05.523]',0.475
'[11:15:05.531]',0.775
'[11:15:05.539]',0.695
'[11:15:05.547]',-0.805
'[11:15:05.555]',-1365
'[11:15:05.563]',-1005
'[11:15:05.570]',-0.525
'[11:15:05.578]',-0.215
'[11:15:05.586]',-0.155
'[11:15:05.594]',-0.185
'[11:15:05.602]',-0.135
'[11:15:05.609]',-0.145
'[11:15:05.617]',-0.155
'[11:15:05.625]',-0.105
'[11:15:05.633]',-0.105
'[11:15:05.641]',-0.105
'[11:15:05.648]',-0.085
'[11:15:05.656]',-0.095
'[11:15:05.664]',-0.045
'[11:15:05.672]',-0.035
'[11:15:05.680]',-0.045
'[11:15:05.688]',-0.005
'[11:15:05.695]',-0.045
'[11:15:05.703]',0.085
'[11:15:05.711]',0.005
'[11:15:05.719]',0.025
'[11:15:05.727]',0.095
'[11:15:05.734]',0.105
'[11:15:05.742]',0.105
'[11:15:05.750]',0.215
'[11:15:05.758]',0.235
'[11:15:05.766]',0.215
'[11:15:05.773]',0.295
'[11:15:05.781]',0.385
'[11:15:05.789]',0.285
'[11:15:05.797]',0.325
'[11:15:05.805]',0.375
'[11:15:05.813]',0.325
'[11:15:05.820]',0.265
'[11:15:05.828]',0.155
'[11:15:05.836]',0.025
'[11:15:05.844]',-0.075
'[11:15:05.852]',0.015
'[11:15:05.859]',-0.185
'[11:15:05.867]',-0.205
'[11:15:05.875]',-0.235
'[11:15:05.883]',-0.225
'[11:15:05.891]',-0.345
'[11:15:05.898]',-0.185
'[11:15:05.906]',-0.355
'[11:15:05.914]',-0.225
'[11:15:05.922]',-0.295
'[11:15:05.930]',-0.335
'[11:15:05.938]',-0.295
'[11:15:05.945]',-0.245
'[11:15:05.953]',-0.355
'[11:15:05.961]',-0.345
'[11:15:05.969]',-0.265
'[11:15:05.977]',-0.265
'[11:15:05.984]',-0.245
'[11:15:05.992]',-0.285
'[11:15:06.000]',-0.285
'[11:15:06.008]',-0.205
'[11:15:06.016]',-0.265
'[11:15:06.023]',-0.305
'[11:15:06.031]',-0.235
'[11:15:06.039]',-0.255
'[11:15:06.047]',-0.235
'[11:15:06.055]',-0.245
'[11:15:06.063]',-0.265
'[11:15:06.070]',-0.225
'[11:15:06.078]',-0.275
'[11:15:06.086]',-0.265
'[11:15:06.094]',-0.265
'[11:15:06.102]',-0.225
'[11:15:06.109]',-0.225
'[11:15:06.117]',-0.265
'[11:15:06.125]',-0.315
'[11:15:06.133]',-0.205
'[11:15:06.141]',-0.275
'[11:15:06.148]',-0.265
'[11:15:06.156]',-0.235
'[11:15:06.164]',-0.245
'[11:15:06.172]',-0.215
'[11:15:06.180]',-0.265
'[11:15:06.188]',-0.235
'[11:15:06.195]',-0.205
'[11:15:06.203]',-0.325
'[11:15:06.211]',-0.185
'[11:15:06.219]',-0.215
'[11:15:06.227]',-0.285
'[11:15:06.234]',-0.185
'[11:15:06.242]',-0.275
'[11:15:06.250]',-0.145
'[11:15:06.258]',-0.245
'[11:15:06.266]',-0.235
'[11:15:06.273]',-0.245
'[11:15:06.281]',-0.175
'[11:15:06.289]',-0.245
'[11:15:06.297]',-0.225
'[11:15:06.305]',-0.185
'[11:15:06.313]',-0.215
'[11:15:06.320]',-0.165
'[11:15:06.328]',-0.205
'[11:15:06.336]',-0.205
'[11:15:06.344]',-0.155
'[11:15:06.352]',-0.145
'[11:15:06.359]',-0.125
'[11:15:06.367]',-0.065
'[11:15:06.375]',-0.055
'[11:15:06.383]',-0.065
'[11:15:06.391]',-0.055
'[11:15:06.398]',0.005
'[11:15:06.406]',-0.085
'[11:15:06.414]',-0.145
'[11:15:06.422]',-0.105
'[11:15:06.430]',-0.205
'[11:15:06.438]',-0.205
'[11:15:06.445]',-0.245
'[11:15:06.453]',-0.165
'[11:15:06.461]',-0.225
'[11:15:06.469]',-0.185
'[11:15:06.477]',-0.175
'[11:15:06.484]',-0.095
'[11:15:06.492]',-0.025
'[11:15:06.500]',0.335
'[11:15:06.508]',0.705
'[11:15:06.516]',0.695
'[11:15:06.523]',-0.505
'[11:15:06.531]',-1085
'[11:15:06.539]',-1035
'[11:15:06.547]',-0.635
'[11:15:06.555]',-0.185
'[11:15:06.563]',-0.105
'[11:15:06.570]',-0.155
'[11:15:06.578]',-0.055
'[11:15:06.586]',-0.095
'[11:15:06.594]',-0.155
'[11:15:06.602]',-0.035
'[11:15:06.609]',-0.075
'[11:15:06.617]',-0.035
'[11:15:06.625]',-0.005
'[11:15:06.633]',-0.025
'[11:15:06.641]',-0.025
'[11:15:06.648]',0.015
'[11:15:06.656]',0.025
'[11:15:06.664]',0.075
'[11:15:06.672]',0.045
'[11:15:06.680]',0.125
'[11:15:06.688]',0.035
'[11:15:06.695]',0.115
'[11:15:06.703]',0.145
'[11:15:06.711]',0.215
'[11:15:06.719]',0.205
'[11:15:06.727]',0.285
'[11:15:06.734]',0.305
'[11:15:06.742]',0.355
'[11:15:06.750]',0.365
'[11:15:06.758]',0.445
'[11:15:06.766]',0.435
'[11:15:06.773]',0.505
'[11:15:06.781]',0.405
'[11:15:06.789]',0.435
'[11:15:06.797]',0.265
'[11:15:06.805]',0.275
'[11:15:06.813]',0.125
'[11:15:06.820]',0.065
'[11:15:06.828]',-0.015
'[11:15:06.836]',-0.065
'[11:15:06.844]',-0.075
'[11:15:06.852]',-0.025
'[11:15:06.859]',-0.105
'[11:15:06.867]',-0.145
'[11:15:06.875]',-0.125
'[11:15:06.883]',-0.155
'[11:15:06.891]',-0.165
'[11:15:06.898]',-0.085
'[11:15:06.906]',-0.135
'[11:15:06.914]',-0.155
'[11:15:06.922]',-0.025
'[11:15:06.930]',-0.125
'[11:15:06.938]',-0.095
'[11:15:06.945]',-0.145
'[11:15:06.953]',-0.125
'[11:15:06.961]',-0.095
'[11:15:06.969]',-0.055
'[11:15:06.977]',-0.115
'[11:15:06.984]',-0.065
'[11:15:06.992]',-0.145
'[11:15:07.000]',-0.035
'[11:15:07.008]',-0.065
'[11:15:07.016]',-0.105
'[11:15:07.023]',-0.045
'[11:15:07.031]',-0.045
'[11:15:07.039]',-0.045
'[11:15:07.047]',-0.095
'[11:15:07.055]',-0.045
'[11:15:07.063]',-0.075
'[11:15:07.070]',-0.025
'[11:15:07.078]',-0.015
'[11:15:07.086]',-0.115
'[11:15:07.094]',-0.075
'[11:15:07.102]',-0.025
'[11:15:07.109]',-0.015
'[11:15:07.117]',-0.075
'[11:15:07.125]',-0.055
'[11:15:07.133]',-0.025
'[11:15:07.141]',-0.065
'[11:15:07.148]',-0.105
'[11:15:07.156]',0.045
'[11:15:07.164]',-0.055
'[11:15:07.172]',-0.055
'[11:15:07.180]',0.055
'[11:15:07.188]',-0.015
'[11:15:07.195]',0.005
'[11:15:07.203]',-0.065
'[11:15:07.211]',-0.015
'[11:15:07.219]',-0.015
'[11:15:07.227]',-0.025
'[11:15:07.234]',-0.005
'[11:15:07.242]',0.025
'[11:15:07.250]',-0.005
'[11:15:07.258]',-0.055
'[11:15:07.266]',0.015
'[11:15:07.273]',0.015
'[11:15:07.281]',-0.045
'[11:15:07.289]',-0.035
'[11:15:07.297]',-0.015
'[11:15:07.305]',-0.015
'[11:15:07.313]',-0.025
'[11:15:07.320]',0.095
'[11:15:07.328]',-0.045
'[11:15:07.336]',0.025
'[11:15:07.344]',0.095
'[11:15:07.352]',0.075
'[11:15:07.359]',0.125
'[11:15:07.367]',0.125
'[11:15:07.375]',0.175
'[11:15:07.383]',0.075
'[11:15:07.391]',0.015
'[11:15:07.398]',0.055
'[11:15:07.406]',-0.005
'[11:15:07.414]',-0.035
'[11:15:07.422]',-0.055
'[11:15:07.430]',-0.005
'[11:15:07.438]',-0.035
'[11:15:07.445]',-0.055
'[11:15:07.453]',-0.035
'[11:15:07.461]',0.015
'[11:15:07.469]',0.055
'[11:15:07.477]',0.485
'[11:15:07.484]',0.675
'[11:15:07.492]',0.885
'[11:15:07.500]',0.045
'[11:15:07.508]',-0.885
'[11:15:07.516]',-0.945
'[11:15:07.523]',-0.615
'[11:15:07.531]',-0.285
'[11:15:07.539]',-0.045
'[11:15:07.547]',0.085
'[11:15:07.555]',-0.005
'[11:15:07.563]',0.025
'[11:15:07.570]',0.005
'[11:15:07.578]',0.085
'[11:15:07.586]',0.055
'[11:15:07.594]',0.035
'[11:15:07.602]',0.135
'[11:15:07.609]',0.015
'[11:15:07.617]',0.135
'[11:15:07.625]',0.165
'[11:15:07.633]',0.135
'[11:15:07.641]',0.055
'[11:15:07.648]',0.175
'[11:15:07.656]',0.205
'[11:15:07.664]',0.225
'[11:15:07.672]',0.235
'[11:15:07.680]',0.195
'[11:15:07.688]',0.315
'[11:15:07.695]',0.295
'[11:15:07.703]',0.335
'[11:15:07.711]',0.355
'[11:15:07.719]',0.425
'[11:15:07.727]',0.455
'[11:15:07.734]',0.495
'[11:15:07.742]',0.515
'[11:15:07.750]',0.575
'[11:15:07.758]',0.445
'[11:15:07.766]',0.525
'[11:15:07.773]',0.385
'[11:15:07.781]',0.335
'[11:15:07.789]',0.245
'[11:15:07.797]',0.155
'[11:15:07.805]',0.075
'[11:15:07.813]',-0.025
'[11:15:07.820]',0.045
'[11:15:07.828]',-0.035
'[11:15:07.836]',-0.115
'[11:15:07.844]',-0.025
'[11:15:07.852]',-0.035
'[11:15:07.859]',-0.115
'[11:15:07.867]',-0.125
'[11:15:07.875]',-0.055
'[11:15:07.883]',-0.145
'[11:15:07.891]',-0.105
'[11:15:07.898]',-0.145
'[11:15:07.906]',-0.105
'[11:15:07.914]',-0.125
'[11:15:07.922]',-0.065
'[11:15:07.930]',-0.095
'[11:15:07.938]',-0.135
'[11:15:07.945]',-0.045
'[11:15:07.953]',-0.075
'[11:15:07.961]',-0.095
'[11:15:07.969]',-0.045
'[11:15:07.977]',-0.145
'[11:15:07.984]',-0.115
'[11:15:07.992]',-0.025
'[11:15:08.000]',-0.065
'[11:15:08.008]',-0.085
'[11:15:08.016]',-0.095
'[11:15:08.023]',-0.105
'[11:15:08.031]',-0.055
'[11:15:08.039]',-0.105
'[11:15:08.047]',-0.085
'[11:15:08.055]',-0.095
'[11:15:08.063]',-0.115
'[11:15:08.070]',-0.085
'[11:15:08.078]',-0.145
'[11:15:08.086]',-0.115
'[11:15:08.094]',-0.085
'[11:15:08.102]',-0.155
'[11:15:08.109]',-0.085
'[11:15:08.117]',-0.075
'[11:15:08.125]',-0.115
'[11:15:08.133]',-0.095
'[11:15:08.141]',-0.115
'[11:15:08.148]',-0.135
'[11:15:08.156]',-0.105
'[11:15:08.164]',-0.105
'[11:15:08.172]',-0.105
'[11:15:08.180]',-0.105
'[11:15:08.188]',-0.085
'[11:15:08.195]',-0.115
'[11:15:08.203]',-0.065
'[11:15:08.211]',-0.135
'[11:15:08.219]',-0.095
'[11:15:08.227]',-0.145
'[11:15:08.234]',-0.085
'[11:15:08.242]',-0.065
'[11:15:08.250]',-0.125
'[11:15:08.258]',-0.055
'[11:15:08.266]',-0.035
'[11:15:08.273]',0.015
'[11:15:08.281]',0.025
'[11:15:08.289]',-0.015
'[11:15:08.297]',0.115
'[11:15:08.305]',0.005
'[11:15:08.313]',-0.075
'[11:15:08.320]',-0.045
'[11:15:08.328]',-0.075
'[11:15:08.336]',-0.115
'[11:15:08.344]',-0.165
'[11:15:08.352]',-0.165
'[11:15:08.359]',-0.075
'[11:15:08.367]',-0.165
'[11:15:08.375]',-0.085
'[11:15:08.383]',-0.115
'[11:15:08.391]',-0.035
'[11:15:08.398]',0.145
'[11:15:08.406]',0.525
'[11:15:08.414]',0.805
'[11:15:08.422]',0.845
'[11:15:08.430]',-0.445
'[11:15:08.438]',-1245
'[11:15:08.445]',-0.965
'[11:15:08.453]',-0.575
'[11:15:08.461]',-0.175
'[11:15:08.469]',-0.075
'[11:15:08.477]',-0.045
'[11:15:08.484]',-0.085
'[11:15:08.492]',-0.055
'[11:15:08.500]',0.005
'[11:15:08.508]',-0.025
'[11:15:08.516]',-0.085
'[11:15:08.523]',-0.035
'[11:15:08.531]',0.015
'[11:15:08.539]',-0.035
'[11:15:08.547]',-0.015
'[11:15:08.555]',0.045
'[11:15:08.563]',0.055
'[11:15:08.570]',0.035
'[11:15:08.578]',0.065
'[11:15:08.586]',0.085
'[11:15:08.594]',0.195
'[11:15:08.602]',0.145
'[11:15:08.609]',0.175
'[11:15:08.617]',0.235
'[11:15:08.625]',0.235
'[11:15:08.633]',0.285
'[11:15:08.641]',0.305
'[11:15:08.648]',0.315
'[11:15:08.656]',0.505
'[11:15:08.664]',0.365
'[11:15:08.672]',0.515
'[11:15:08.680]',0.445
'[11:15:08.688]',0.495
'[11:15:08.695]',0.395
'[11:15:08.703]',0.275
'[11:15:08.711]',0.175
'[11:15:08.719]',0.055
'[11:15:08.727]',0.045
'[11:15:08.734]',-0.055
'[11:15:08.742]',-0.075
'[11:15:08.750]',-0.145
'[11:15:08.758]',-0.195
'[11:15:08.766]',-0.095
'[11:15:08.773]',-0.205
'[11:15:08.781]',-0.175
'[11:15:08.789]',-0.225
'[11:15:08.797]',-0.135
'[11:15:08.805]',-0.195
'[11:15:08.813]',-0.185
'[11:15:08.820]',-0.185
'[11:15:08.828]',-0.215
'[11:15:08.836]',-0.095
'[11:15:08.844]',-0.215
'[11:15:08.852]',-0.135
'[11:15:08.859]',-0.165
'[11:15:08.867]',-0.175
'[11:15:08.875]',-0.155
'[11:15:08.883]',-0.135
'[11:15:08.891]',-0.105
'[11:15:08.898]',-0.105
'[11:15:08.906]',-0.095
'[11:15:08.914]',-0.125
'[11:15:08.922]',-0.135
'[11:15:08.930]',-0.145
'[11:15:08.938]',-0.085
'[11:15:08.945]',-0.145
'[11:15:08.953]',-0.125
'[11:15:08.961]',-0.145
'[11:15:08.969]',-0.065
'[11:15:08.977]',-0.165
'[11:15:08.984]',-0.115
'[11:15:08.992]',-0.125
'[11:15:09.000]',-0.155
'[11:15:09.008]',-0.105
'[11:15:09.016]',-0.145
'[11:15:09.023]',-0.085
'[11:15:09.031]',-0.085
'[11:15:09.039]',-0.125
'[11:15:09.047]',-0.135
'[11:15:09.055]',-0.075
'[11:15:09.063]',-0.135
'[11:15:09.070]',-0.095
'[11:15:09.078]',-0.135
'[11:15:09.086]',-0.115
'[11:15:09.094]',-0.105
'[11:15:09.102]',-0.145
'[11:15:09.109]',-0.075
'[11:15:09.117]',-0.125
'[11:15:09.125]',-0.135
'[11:15:09.133]',-0.085
'[11:15:09.141]',-0.155
'[11:15:09.148]',-0.105
'[11:15:09.156]',-0.095
'[11:15:09.164]',-0.165
'[11:15:09.172]',-0.025
'[11:15:09.180]',-0.135
'[11:15:09.188]',-0.095
'[11:15:09.195]',-0.145
'[11:15:09.203]',-0.075
'[11:15:09.211]',-0.125
'[11:15:09.219]',-0.015
'[11:15:09.227]',-0.085
'[11:15:09.234]',-0.065
'[11:15:09.242]',-0.015
'[11:15:09.250]',0.035
'[11:15:09.258]',-0.025
'[11:15:09.266]',0.105
'[11:15:09.273]',0.115
'[11:15:09.281]',-0.035
'[11:15:09.289]',-0.025
'[11:15:09.297]',-0.065
'[11:15:09.305]',-0.065
'[11:15:09.313]',-0.135
'[11:15:09.320]',-0.145
'[11:15:09.328]',-0.175
'[11:15:09.336]',-0.105
'[11:15:09.344]',-0.135
'[11:15:09.352]',-0.135
'[11:15:09.359]',-0.065
'[11:15:09.367]',-0.025
'[11:15:09.375]',0.175
'[11:15:09.383]',0.465
'[11:15:09.391]',0.665
'[11:15:09.398]',0.575
'[11:15:09.406]',-0.435
'[11:15:09.414]',-0.945
'[11:15:09.422]',-0.785
'[11:15:09.430]',-0.425
'[11:15:09.438]',-0.145
'[11:15:09.445]',-0.075
'[11:15:09.453]',-0.045
'[11:15:09.461]',-0.025
'[11:15:09.469]',-0.045
'[11:15:09.477]',-0.005
'[11:15:09.484]',-0.055
'[11:15:09.492]',0.015
'[11:15:09.500]',-0.025
'[11:15:09.508]',0.025
'[11:15:09.516]',0.015
'[11:15:09.523]',0.045
'[11:15:09.531]',0.075
'[11:15:09.539]',0.035
'[11:15:09.547]',0.075
'[11:15:09.555]',0.115
'[11:15:09.563]',0.085
'[11:15:09.570]',0.115
'[11:15:09.578]',0.105
'[11:15:09.586]',0.125
'[11:15:09.594]',0.175
'[11:15:09.602]',0.185
'[11:15:09.609]',0.225
'[11:15:09.617]',0.245
'[11:15:09.625]',0.275
'[11:15:09.633]',0.345
'[11:15:09.641]',0.305
'[11:15:09.648]',0.325
'[11:15:09.656]',0.415
'[11:15:09.664]',0.365
'[11:15:09.672]',0.405
'[11:15:09.680]',0.305
'[11:15:09.688]',0.255
'[11:15:09.695]',0.175
'[11:15:09.703]',0.035
'[11:15:09.711]',0.045
'[11:15:09.719]',-0.045
'[11:15:09.727]',-0.115
'[11:15:09.734]',-0.095
'[11:15:09.742]',-0.095
'[11:15:09.750]',-0.105
'[11:15:09.758]',-0.135
'[11:15:09.766]',-0.155
'[11:15:09.773]',-0.085
'[11:15:09.781]',-0.165
'[11:15:09.789]',-0.135
'[11:15:09.797]',-0.135
'[11:15:09.805]',-0.095
'[11:15:09.813]',-0.145
'[11:15:09.820]',-0.115
'[11:15:09.828]',-0.105
'[11:15:09.836]',-0.095
'[11:15:09.844]',-0.105
'[11:15:09.852]',-0.095
'[11:15:09.859]',-0.075
'[11:15:09.867]',-0.055
'[11:15:09.875]',-0.105
'[11:15:09.883]',-0.075
'[11:15:09.891]',-0.075
'[11:15:09.898]',-0.065
'[11:15:09.906]',-0.085
'[11:15:09.914]',-0.055
'[11:15:09.922]',-0.045
'[11:15:09.930]',-0.065
'[11:15:09.938]',-0.035
'[11:15:09.945]',-0.025
'[11:15:09.953]',-0.055
'[11:15:09.961]',-0.035
'[11:15:09.969]',-0.035
'[11:15:09.977]',-0.045
'[11:15:09.984]',-0.035
'[11:15:09.992]',-0.045
'[11:15:10.000]',-0.035
'[11:15:10.008]',-0.035
'[11:15:10.016]',-0.075
'[11:15:10.023]',-0.005
'[11:15:10.031]',-0.055
'[11:15:10.039]',0.005
'[11:15:10.047]',0.015
'[11:15:10.055]',-0.035
'[11:15:10.063]',-0.055
'[11:15:10.070]',-0.025
'[11:15:10.078]',-0.015
'[11:15:10.086]',-0.035
'[11:15:10.094]',-0.035
'[11:15:10.102]',-0.015
'[11:15:10.109]',0.005
'[11:15:10.117]',-0.025
'[11:15:10.125]',-0.015
'[11:15:10.133]',-0.015
'[11:15:10.141]',-0.015
'[11:15:10.148]',-0.045
'[11:15:10.156]',0.005
'[11:15:10.164]',-0.055
'[11:15:10.172]',0.025
'[11:15:10.180]',-0.025
'[11:15:10.188]',0.005
'[11:15:10.195]',-0.035
'[11:15:10.203]',0.085
'[11:15:10.211]',0.045
'[11:15:10.219]',0.065
'[11:15:10.227]',0.175
'[11:15:10.234]',0.125
'[11:15:10.242]',0.205
'[11:15:10.250]',0.095
'[11:15:10.258]',0.025
'[11:15:10.266]',0.035
'[11:15:10.273]',0.075
'[11:15:10.281]',-0.035
'[11:15:10.289]',0.025
'[11:15:10.297]',-0.025
'[11:15:10.305]',-0.035
'[11:15:10.313]',0.045
'[11:15:10.320]',0.015
'[11:15:10.328]',-0.065
'[11:15:10.336]',0.085
'[11:15:10.344]',0.245
'[11:15:10.352]',0.495
'[11:15:10.359]',0.885
'[11:15:10.367]',0.795
'[11:15:10.375]',-0.195
'[11:15:10.383]',-0.965
'[11:15:10.391]',-0.895
'[11:15:10.398]',-0.515
'[11:15:10.406]',-0.225
'[11:15:10.414]',-0.035
'[11:15:10.422]',0.035
'[11:15:10.430]',0.085
'[11:15:10.438]',0.025
'[11:15:10.445]',0.095
'[11:15:10.453]',0.035
'[11:15:10.461]',0.085
'[11:15:10.469]',0.075
'[11:15:10.477]',0.095
'[11:15:10.484]',0.155
'[11:15:10.492]',0.065
'[11:15:10.500]',0.145
'[11:15:10.508]',0.155
'[11:15:10.516]',0.145
'[11:15:10.523]',0.165
'[11:15:10.531]',0.195
'[11:15:10.539]',0.205
'[11:15:10.547]',0.245
'[11:15:10.555]',0.325
'[11:15:10.563]',0.285
'[11:15:10.570]',0.285
'[11:15:10.578]',0.355
'[11:15:10.586]',0.315
'[11:15:10.594]',0.455
'[11:15:10.602]',0.475
'[11:15:10.609]',0.495
'[11:15:10.617]',0.475
'[11:15:10.625]',0.595
'[11:15:10.633]',0.565
'[11:15:10.641]',0.455
'[11:15:10.648]',0.515
'[11:15:10.656]',0.335
'[11:15:10.664]',0.265
'[11:15:10.672]',0.215
'[11:15:10.680]',0.115
'[11:15:10.688]',0.025
'[11:15:10.695]',0.035
'[11:15:10.703]',-0.085
'[11:15:10.711]',-0.065
'[11:15:10.719]',-0.065
'[11:15:10.727]',-0.085
'[11:15:10.734]',-0.045
'[11:15:10.742]',-0.105
'[11:15:10.750]',-0.065
'[11:15:10.758]',-0.135
'[11:15:10.766]',-0.035
'[11:15:10.773]',-0.075
'[11:15:10.781]',-0.115
'[11:15:10.789]',-0.115
'[11:15:10.797]',-0.095
'[11:15:10.805]',-0.065
'[11:15:10.813]',-0.115
'[11:15:10.820]',-0.075
'[11:15:10.828]',-0.105
'[11:15:10.836]',-0.115
'[11:15:10.844]',-0.005
'[11:15:10.852]',-0.135
'[11:15:10.859]',-0.115
'[11:15:10.867]',-0.025
'[11:15:10.875]',-0.055
'[11:15:10.883]',-0.095
'[11:15:10.891]',-0.135
'[11:15:10.898]',-0.065
'[11:15:10.906]',-0.105
'[11:15:10.914]',-0.125
'[11:15:10.922]',-0.075
'[11:15:10.930]',-0.125
'[11:15:10.938]',-0.085
'[11:15:10.945]',-0.055
'[11:15:10.953]',-0.165
'[11:15:10.961]',-0.095
'[11:15:10.969]',-0.085
'[11:15:10.977]',-0.095
'[11:15:10.984]',-0.125
'[11:15:10.992]',-0.135
'[11:15:11.000]',-0.095
'[11:15:11.008]',-0.025
'[11:15:11.016]',-0.165
'[11:15:11.023]',-0.095
'[11:15:11.031]',-0.045
'[11:15:11.039]',-0.135
'[11:15:11.047]',-0.095
'[11:15:11.055]',-0.085
'[11:15:11.063]',-0.075
'[11:15:11.070]',-0.015
'[11:15:11.078]',-0.055
'[11:15:11.086]',0.005
'[11:15:11.094]',0.035
'[11:15:11.102]',0.005
'[11:15:11.109]',0.125
'[11:15:11.117]',0.025
'[11:15:11.125]',-0.055
'[11:15:11.133]',-0.045
'[11:15:11.141]',-0.045
'[11:15:11.148]',-0.115
'[11:15:11.156]',-0.185
'[11:15:11.164]',-0.035
'[11:15:11.172]',-0.145
'[11:15:11.180]',-0.135
'[11:15:11.188]',-0.125
'[11:15:11.195]',-0.115
'[11:15:11.203]',-0.095
'[11:15:11.211]',-0.005
'[11:15:11.219]',0.435
'[11:15:11.227]',0.665
'[11:15:11.234]',0.985
'[11:15:11.242]',-0.005
'[11:15:11.250]',-1085
'[11:15:11.258]',-1135
'[11:15:11.266]',-0.745
'[11:15:11.273]',-0.305
'[11:15:11.281]',-0.165
'[11:15:11.289]',-0.075
'[11:15:11.297]',-0.035
'[11:15:11.305]',-0.095
'[11:15:11.313]',-0.095
'[11:15:11.320]',0.025
'[11:15:11.328]',-0.145
'[11:15:11.336]',0.055
'[11:15:11.344]',-0.045
'[11:15:11.352]',-0.035
'[11:15:11.359]',0.015
'[11:15:11.367]',0.035
'[11:15:11.375]',0.025
'[11:15:11.383]',0.055
'[11:15:11.391]',0.065
'[11:15:11.398]',0.075
'[11:15:11.406]',0.115
'[11:15:11.414]',0.145
'[11:15:11.422]',0.185
'[11:15:11.430]',0.205
'[11:15:11.438]',0.225
'[11:15:11.445]',0.245
'[11:15:11.453]',0.275
'[11:15:11.461]',0.395
'[11:15:11.469]',0.375
'[11:15:11.477]',0.395
'[11:15:11.484]',0.395
'[11:15:11.492]',0.505
'[11:15:11.500]',0.445
'[11:15:11.508]',0.355
'[11:15:11.516]',0.275
'[11:15:11.523]',0.165
'[11:15:11.531]',0.085
'[11:15:11.539]',-0.005
'[11:15:11.547]',-0.075
'[11:15:11.555]',-0.065
'[11:15:11.563]',-0.195
'[11:15:11.570]',-0.175
'[11:15:11.578]',-0.195
'[11:15:11.586]',-0.185
'[11:15:11.594]',-0.245
'[11:15:11.602]',-0.155
'[11:15:11.609]',-0.245
'[11:15:11.617]',-0.215
'[11:15:11.625]',-0.225
'[11:15:11.633]',-0.265
'[11:15:11.641]',-0.195
'[11:15:11.648]',-0.265
'[11:15:11.656]',-0.225
'[11:15:11.664]',-0.195
'[11:15:11.672]',-0.195
'[11:15:11.680]',-0.195
'[11:15:11.688]',-0.225
'[11:15:11.695]',-0.195
'[11:15:11.703]',-0.185
'[11:15:11.711]',-0.215
'[11:15:11.719]',-0.205
'[11:15:11.727]',-0.205
'[11:15:11.734]',-0.175
'[11:15:11.742]',-0.125
'[11:15:11.750]',-0.215
'[11:15:11.758]',-0.165
'[11:15:11.766]',-0.195
'[11:15:11.773]',-0.205
'[11:15:11.781]',-0.215
'[11:15:11.789]',-0.205
'[11:15:11.797]',-0.165
'[11:15:11.805]',-0.225
'[11:15:11.813]',-0.175
'[11:15:11.820]',-0.185
'[11:15:11.828]',-0.255
'[11:15:11.836]',-0.215
'[11:15:11.844]',-0.195
'[11:15:11.852]',-0.215
'[11:15:11.859]',-0.175
'[11:15:11.867]',-0.215
'[11:15:11.875]',-0.165
'[11:15:11.883]',-0.275
'[11:15:11.891]',-0.155
'[11:15:11.898]',-0.185
'[11:15:11.906]',-0.235
'[11:15:11.914]',-0.195
'[11:15:11.922]',-0.225
'[11:15:11.930]',-0.165
'[11:15:11.938]',-0.225
'[11:15:11.945]',-0.205
'[11:15:11.953]',-0.235
'[11:15:11.961]',-0.185
'[11:15:11.969]',-0.185
'[11:15:11.977]',-0.135
'[11:15:11.984]',-0.095
'[11:15:11.992]',-0.045
'[11:15:12.000]',-0.055
'[11:15:12.008]',-0.035
'[11:15:12.016]',-0.025
'[11:15:12.023]',-0.165
'[11:15:12.031]',-0.135
'[11:15:12.039]',-0.125
'[11:15:12.047]',-0.135
'[11:15:12.055]',-0.235
'[11:15:12.063]',-0.225
'[11:15:12.070]',-0.255
'[11:15:12.078]',-0.215
'[11:15:12.086]',-0.215
'[11:15:12.094]',-0.215
'[11:15:12.102]',-0.215
'[11:15:12.109]',0.035
'[11:15:12.117]',0.355
'[11:15:12.125]',0.555
'[11:15:12.133]',0.805
'[11:15:12.141]',-0.165
'[11:15:12.148]',-1275
'[11:15:12.156]',-1215
'[11:15:12.164]',-0.755
'[11:15:12.172]',-0.315
'[11:15:12.180]',-0.165
'[11:15:12.188]',-0.225
'[11:15:12.195]',-0.055
'[11:15:12.203]',-0.205
'[11:15:12.211]',-0.195
'[11:15:12.219]',-0.135
'[11:15:12.227]',-0.155
'[11:15:12.234]',-0.105
'[11:15:12.242]',-0.105
'[11:15:12.250]',-0.075
'[11:15:12.258]',-0.095
'[11:15:12.266]',-0.075
'[11:15:12.273]',-0.045
'[11:15:12.281]',-0.045
'[11:15:12.289]',-0.035
'[11:15:12.297]',0.025
'[11:15:12.305]',-0.005
'[11:15:12.313]',0.015
'[11:15:12.320]',0.095
'[11:15:12.328]',0.055
'[11:15:12.336]',0.115
'[11:15:12.344]',0.145
'[11:15:12.352]',0.205
'[11:15:12.359]',0.215
'[11:15:12.367]',0.305
'[11:15:12.375]',0.305
'[11:15:12.383]',0.305
'[11:15:12.391]',0.325
'[11:15:12.398]',0.335
'[11:15:12.406]',0.265
'[11:15:12.414]',0.285
'[11:15:12.422]',0.125
'[11:15:12.430]',0.045
'[11:15:12.438]',-0.015
'[11:15:12.445]',-0.085
'[11:15:12.453]',-0.215
'[11:15:12.461]',-0.205
'[11:15:12.469]',-0.225
'[11:15:12.477]',-0.245
'[11:15:12.484]',-0.255
'[11:15:12.492]',-0.205
'[11:15:12.500]',-0.265
'[11:15:12.508]',-0.305
'[11:15:12.516]',-0.275
'[11:15:12.523]',-0.295
'[11:15:12.531]',-0.235
'[11:15:12.539]',-0.295
'[11:15:12.547]',-0.265
'[11:15:12.555]',-0.245
'[11:15:12.563]',-0.295
'[11:15:12.570]',-0.235
'[11:15:12.578]',-0.235
'[11:15:12.586]',-0.305
'[11:15:12.594]',-0.205
'[11:15:12.602]',-0.265
'[11:15:12.609]',-0.205
'[11:15:12.617]',-0.215
'[11:15:12.625]',-0.245
'[11:15:12.633]',-0.195
'[11:15:12.641]',-0.295
'[11:15:12.648]',-0.195
'[11:15:12.656]',-0.205
'[11:15:12.664]',-0.285
'[11:15:12.672]',-0.215
'[11:15:12.680]',-0.225
'[11:15:12.688]',-0.225
'[11:15:12.695]',-0.235
'[11:15:12.703]',-0.235
'[11:15:12.711]',-0.235
'[11:15:12.719]',-0.225
'[11:15:12.727]',-0.195
'[11:15:12.734]',-0.255
'[11:15:12.742]',-0.205
'[11:15:12.750]',-0.175
'[11:15:12.758]',-0.225
'[11:15:12.766]',-0.245
'[11:15:12.773]',-0.215
'[11:15:12.781]',-0.185
'[11:15:12.789]',-0.185
'[11:15:12.797]',-0.225
'[11:15:12.805]',-0.175
'[11:15:12.813]',-0.175
'[11:15:12.820]',-0.195
'[11:15:12.828]',-0.195
'[11:15:12.836]',-0.195
'[11:15:12.844]',-0.185
'[11:15:12.852]',-0.245
'[11:15:12.859]',-0.135
'[11:15:12.867]',-0.135
'[11:15:12.875]',-0.195
'[11:15:12.883]',-0.185
'[11:15:12.891]',-0.175
'[11:15:12.898]',-0.165
'[11:15:12.906]',-0.195
'[11:15:12.914]',-0.195
'[11:15:12.922]',-0.175
'[11:15:12.930]',-0.135
'[11:15:12.938]',-0.155
'[11:15:12.945]',-0.085
'[11:15:12.953]',-0.075
'[11:15:12.961]',-0.045
'[11:15:12.969]',-0.045
'[11:15:12.977]',-0.025
'[11:15:12.984]',-0.075
'[11:15:12.992]',-0.145
'[11:15:13.000]',-0.165
'[11:15:13.008]',-0.135
'[11:15:13.016]',-0.235
'[11:15:13.023]',-0.205
'[11:15:13.031]',-0.205
'[11:15:13.039]',-0.235
'[11:15:13.047]',-0.165
'[11:15:13.055]',-0.215
'[11:15:13.063]',-0.135
'[11:15:13.070]',-0.025
'[11:15:13.078]',0.265
'[11:15:13.086]',0.495
'[11:15:13.094]',0.655
'[11:15:13.102]',-0.095
'[11:15:13.109]',-0.925
'[11:15:13.117]',-0.995
'[11:15:13.125]',-0.645
'[11:15:13.133]',-0.255
'[11:15:13.141]',-0.165
'[11:15:13.148]',-0.145
'[11:15:13.156]',-0.105
'[11:15:13.164]',-0.085
'[11:15:13.172]',-0.085
'[11:15:13.180]',-0.085
'[11:15:13.188]',-0.085
'[11:15:13.195]',-0.045
'[11:15:13.203]',-0.055
'[11:15:13.211]',-0.045
'[11:15:13.219]',-0.035
'[11:15:13.227]',-0.015
'[11:15:13.234]',-0.015
'[11:15:13.242]',0.005
'[11:15:13.250]',0.025
'[11:15:13.258]',0.035
'[11:15:13.266]',0.065
'[11:15:13.273]',0.085
'[11:15:13.281]',0.105
'[11:15:13.289]',0.125
'[11:15:13.297]',0.165
'[11:15:13.305]',0.185
'[11:15:13.313]',0.235
'[11:15:13.320]',0.245
'[11:15:13.328]',0.275
'[11:15:13.336]',0.285
'[11:15:13.344]',0.355
'[11:15:13.352]',0.345
'[11:15:13.359]',0.375
'[11:15:13.367]',0.365
'[11:15:13.375]',0.335
'[11:15:13.383]',0.255
'[11:15:13.391]',0.135
'[11:15:13.398]',0.115
'[11:15:13.406]',0.045
'[11:15:13.414]',-0.035
'[11:15:13.422]',-0.065
'[11:15:13.430]',-0.085
'[11:15:13.438]',-0.085
'[11:15:13.445]',-0.125
'[11:15:13.453]',-0.165
'[11:15:13.461]',-0.085
'[11:15:13.469]',-0.145
'[11:15:13.477]',-0.155
'[11:15:13.484]',-0.145
'[11:15:13.492]',-0.155
'[11:15:13.500]',-0.145
'[11:15:13.508]',-0.155
'[11:15:13.516]',-0.145
'[11:15:13.523]',-0.145
'[11:15:13.531]',-0.105
'[11:15:13.539]',-0.165
'[11:15:13.547]',-0.095
'[11:15:13.555]',-0.165
'[11:15:13.563]',-0.095
'[11:15:13.570]',-0.135
'[11:15:13.578]',-0.155
'[11:15:13.586]',-0.155
'[11:15:13.594]',-0.135
'[11:15:13.602]',-0.145
'[11:15:13.609]',-0.165
'[11:15:13.617]',-0.175
'[11:15:13.625]',-0.145
'[11:15:13.633]',-0.195
'[11:15:13.641]',-0.215
'[11:15:13.648]',-0.155
'[11:15:13.656]',-0.285
'[11:15:13.664]',-0.155
'[11:15:13.672]',-0.155
'[11:15:13.680]',-0.255
'[11:15:13.688]',-0.235
'[11:15:13.695]',-0.175
'[11:15:13.703]',-0.235
'[11:15:13.711]',-0.245
'[11:15:13.719]',-0.185
'[11:15:13.727]',-0.245
'[11:15:13.734]',-0.205
'[11:15:13.742]',-0.235
'[11:15:13.750]',-0.225
'[11:15:13.758]',-0.245
'[11:15:13.766]',-0.215
'[11:15:13.773]',-0.205
'[11:15:13.781]',-0.225
'[11:15:13.789]',-0.195
'[11:15:13.797]',-0.195
'[11:15:13.805]',-0.225
'[11:15:13.813]',-0.215
'[11:15:13.820]',-0.225
'[11:15:13.828]',-0.205
'[11:15:13.836]',-0.185
'[11:15:13.844]',-0.185
'[11:15:13.852]',-0.155
'[11:15:13.859]',-0.215
'[11:15:13.867]',-0.205
'[11:15:13.875]',-0.175
'[11:15:13.883]',-0.155
'[11:15:13.891]',-0.185
'[11:15:13.898]',-0.105
'[11:15:13.906]',-0.015
'[11:15:13.914]',-0.085
'[11:15:13.922]',-0.015
'[11:15:13.930]',-0.025
'[11:15:13.938]',-0.115
'[11:15:13.945]',-0.145
'[11:15:13.953]',-0.135
'[11:15:13.961]',-0.195
'[11:15:13.969]',-0.245
'[11:15:13.977]',-0.295
'[11:15:13.984]',-0.235
'[11:15:13.992]',-0.265
'[11:15:14.000]',-0.175
'[11:15:14.008]',-0.265
'[11:15:14.016]',-0.235
'[11:15:14.023]',-0.095
'[11:15:14.031]',0.145
'[11:15:14.039]',0.425
'[11:15:14.047]',0.835
'[11:15:14.055]',0.295
'[11:15:14.063]',-0.995
'[11:15:14.070]',-1315
'[11:15:14.078]',-0.905
'[11:15:14.086]',-0.475
'[11:15:14.094]',-0.225
'[11:15:14.102]',-0.185
'[11:15:14.109]',-0.155
'[11:15:14.117]',-0.085
'[11:15:14.125]',-0.125
'[11:15:14.133]',-0.115
'[11:15:14.141]',-0.155
'[11:15:14.148]',-0.115
'[11:15:14.156]',-0.025
'[11:15:14.164]',-0.055
'[11:15:14.172]',-0.025
'[11:15:14.180]',-0.025
'[11:15:14.188]',-0.005
'[11:15:14.195]',0.055
'[11:15:14.203]',-0.035
'[11:15:14.211]',0.075
'[11:15:14.219]',0.105
'[11:15:14.227]',0.085
'[11:15:14.234]',0.125
'[11:15:14.242]',0.175
'[11:15:14.250]',0.185
'[11:15:14.258]',0.235
'[11:15:14.266]',0.215
'[11:15:14.273]',0.255
'[11:15:14.281]',0.325
'[11:15:14.289]',0.355
'[11:15:14.297]',0.395
'[11:15:14.305]',0.395
'[11:15:14.313]',0.425
'[11:15:14.320]',0.375
'[11:15:14.328]',0.305
'[11:15:14.336]',0.255
'[11:15:14.344]',0.135
'[11:15:14.352]',-0.015
'[11:15:14.359]',0.035
'[11:15:14.367]',-0.115
'[11:15:14.375]',-0.085
'[11:15:14.383]',-0.205
'[11:15:14.391]',-0.145
'[11:15:14.398]',-0.205
'[11:15:14.406]',-0.205
'[11:15:14.414]',-0.185
'[11:15:14.422]',-0.195
'[11:15:14.430]',-0.225
'[11:15:14.438]',-0.205
'[11:15:14.445]',-0.225
'[11:15:14.453]',-0.195
'[11:15:14.461]',-0.205
'[11:15:14.469]',-0.165
'[11:15:14.477]',-0.225
'[11:15:14.484]',-0.165
'[11:15:14.492]',-0.185
'[11:15:14.500]',-0.165
'[11:15:14.508]',-0.195
'[11:15:14.516]',-0.145
'[11:15:14.523]',-0.155
'[11:15:14.531]',-0.165
'[11:15:14.539]',-0.165
'[11:15:14.547]',-0.135
'[11:15:14.555]',-0.165
'[11:15:14.563]',-0.165
'[11:15:14.570]',-0.095
'[11:15:14.578]',-0.165
'[11:15:14.586]',-0.135
'[11:15:14.594]',-0.145
'[11:15:14.602]',-0.195
'[11:15:14.609]',-0.065
'[11:15:14.617]',-0.145
'[11:15:14.625]',-0.175
'[11:15:14.633]',-0.115
'[11:15:14.641]',-0.175
'[11:15:14.648]',-0.125
'[11:15:14.656]',-0.125
'[11:15:14.664]',-0.125
'[11:15:14.672]',-0.125
'[11:15:14.680]',-0.115
'[11:15:14.688]',-0.115
'[11:15:14.695]',-0.135
'[11:15:14.703]',-0.105
'[11:15:14.711]',-0.105
'[11:15:14.719]',-0.115
'[11:15:14.727]',-0.085
'[11:15:14.734]',-0.165
'[11:15:14.742]',-0.095
'[11:15:14.750]',-0.105
'[11:15:14.758]',-0.125
'[11:15:14.766]',-0.145
'[11:15:14.773]',-0.125
'[11:15:14.781]',-0.125
'[11:15:14.789]',-0.135
'[11:15:14.797]',-0.125
'[11:15:14.805]',-0.035
'[11:15:14.813]',-0.135
'[11:15:14.820]',-0.125
'[11:15:14.828]',-0.115
'[11:15:14.836]',-0.085
'[11:15:14.844]',-0.065
'[11:15:14.852]',-0.005
'[11:15:14.859]',0.015
'[11:15:14.867]',0.025
'[11:15:14.875]',0.005
'[11:15:14.883]',0.135
'[11:15:14.891]',-0.015
'[11:15:14.898]',-0.085
'[11:15:14.906]',-0.065
'[11:15:14.914]',-0.085
'[11:15:14.922]',-0.135
'[11:15:14.930]',-0.105
'[11:15:14.938]',-0.175
'[11:15:14.945]',-0.135
'[11:15:14.953]',-0.165
'[11:15:14.961]',-0.065
'[11:15:14.969]',-0.135
'[11:15:14.977]',-0.015
'[11:15:14.984]',0.205
'[11:15:14.992]',0.475
'[11:15:15.000]',0.825
'[11:15:15.008]',0.655
'[11:15:15.016]',-0.565
'[11:15:15.023]',-1225
'[11:15:15.031]',-0.945
'[11:15:15.039]',-0.515
'[11:15:15.047]',-0.145
'[11:15:15.055]',-0.045
'[11:15:15.063]',-0.055
'[11:15:15.070]',-0.065
'[11:15:15.078]',-0.045
'[11:15:15.086]',-0.035
'[11:15:15.094]',-0.025
'[11:15:15.102]',-0.025
'[11:15:15.109]',0.075
'[11:15:15.117]',0.025
'[11:15:15.125]',0.035
'[11:15:15.133]',0.055
'[11:15:15.141]',0.055
'[11:15:15.148]',0.125
'[11:15:15.156]',0.135
'[11:15:15.164]',0.135
'[11:15:15.172]',0.165
'[11:15:15.180]',0.145
'[11:15:15.188]',0.245
'[11:15:15.195]',0.205
'[11:15:15.203]',0.225
'[11:15:15.211]',0.295
'[11:15:15.219]',0.315
'[11:15:15.227]',0.385
'[11:15:15.234]',0.415
'[11:15:15.242]',0.425
'[11:15:15.250]',0.475
'[11:15:15.258]',0.505
'[11:15:15.266]',0.495
'[11:15:15.273]',0.465
'[11:15:15.281]',0.455
'[11:15:15.289]',0.375
'[11:15:15.297]',0.285
'[11:15:15.305]',0.215
'[11:15:15.313]',0.125
'[11:15:15.320]',0.005
'[11:15:15.328]',0.015
'[11:15:15.336]',-0.075
'[11:15:15.344]',-0.065
'[11:15:15.352]',-0.065
'[11:15:15.359]',-0.065
'[11:15:15.367]',-0.095
'[11:15:15.375]',-0.125
'[11:15:15.383]',-0.025
'[11:15:15.391]',-0.145
'[11:15:15.398]',-0.115
'[11:15:15.406]',-0.045
'[11:15:15.414]',-0.105
'[11:15:15.422]',-0.095
'[11:15:15.430]',-0.095
'[11:15:15.438]',-0.055
'[11:15:15.445]',-0.095
'[11:15:15.453]',-0.095
'[11:15:15.461]',-0.075
'[11:15:15.469]',-0.085
'[11:15:15.477]',-0.045
'[11:15:15.484]',-0.065
'[11:15:15.492]',-0.065
'[11:15:15.500]',-0.095
'[11:15:15.508]',-0.005
'[11:15:15.516]',-0.125
'[11:15:15.523]',-0.015
'[11:15:15.531]',-0.065
'[11:15:15.539]',-0.095
'[11:15:15.547]',-0.035
'[11:15:15.555]',-0.065
'[11:15:15.563]',-0.075
'[11:15:15.570]',-0.035
'[11:15:15.578]',-0.055
'[11:15:15.586]',-0.055
'[11:15:15.594]',-0.035
'[11:15:15.602]',-0.115
'[11:15:15.609]',-0.025
'[11:15:15.617]',-0.055
'[11:15:15.625]',-0.025
'[11:15:15.633]',-0.075
'[11:15:15.641]',-0.055
'[11:15:15.648]',-0.035
'[11:15:15.656]',-0.065
'[11:15:15.664]',-0.055
'[11:15:15.672]',-0.005
'[11:15:15.680]',-0.085
'[11:15:15.688]',-0.045
'[11:15:15.695]',-0.075
'[11:15:15.703]',-0.045
'[11:15:15.711]',-0.065
'[11:15:15.719]',-0.005
'[11:15:15.727]',-0.035
'[11:15:15.734]',-0.015
'[11:15:15.742]',-0.025
'[11:15:15.750]',-0.085
'[11:15:15.758]',-0.015
'[11:15:15.766]',0.005
'[11:15:15.773]',-0.015
'[11:15:15.781]',0.055
'[11:15:15.789]',0.035
'[11:15:15.797]',0.115
'[11:15:15.805]',0.085
'[11:15:15.813]',0.135
'[11:15:15.820]',0.025
'[11:15:15.828]',-0.065
'[11:15:15.836]',-0.005
'[11:15:15.844]',-0.045
'[11:15:15.852]',-0.115
'[11:15:15.859]',-0.095
'[11:15:15.867]',-0.125
'[11:15:15.875]',-0.085
'[11:15:15.883]',-0.035
'[11:15:15.891]',-0.115
'[11:15:15.898]',0.035
'[11:15:15.906]',0.055
'[11:15:15.914]',0.455
'[11:15:15.922]',0.695
'[11:15:15.930]',0.855
'[11:15:15.938]',-0.175
'[11:15:15.945]',-1025
'[11:15:15.953]',-1025
'[11:15:15.961]',-0.705
'[11:15:15.969]',-0.315
'[11:15:15.977]',-0.105
'[11:15:15.984]',-0.055
'[11:15:15.992]',0.015
'[11:15:16.000]',-0.035
'[11:15:16.008]',-0.035
'[11:15:16.016]',-0.035
'[11:15:16.023]',-0.005
'[11:15:16.031]',-0.005
'[11:15:16.039]',0.025
'[11:15:16.047]',0.045
'[11:15:16.055]',0.015
'[11:15:16.063]',0.065
'[11:15:16.070]',0.115
'[11:15:16.078]',0.065
'[11:15:16.086]',0.045
'[11:15:16.094]',0.125
'[11:15:16.102]',0.145
'[11:15:16.109]',0.165
'[11:15:16.117]',0.195
'[11:15:16.125]',0.185
'[11:15:16.133]',0.245
'[11:15:16.141]',0.295
'[11:15:16.148]',0.285
'[11:15:16.156]',0.365
'[11:15:16.164]',0.335
'[11:15:16.172]',0.445
'[11:15:16.180]',0.415
'[11:15:16.188]',0.455
'[11:15:16.195]',0.465
'[11:15:16.203]',0.385
'[11:15:16.211]',0.365
'[11:15:16.219]',0.225
'[11:15:16.227]',0.195
'[11:15:16.234]',0.115
'[11:15:16.242]',-0.005
'[11:15:16.250]',-0.075
'[11:15:16.258]',-0.075
'[11:15:16.266]',-0.155
'[11:15:16.273]',-0.155
'[11:15:16.281]',-0.125
'[11:15:16.289]',-0.145
'[11:15:16.297]',-0.175
'[11:15:16.305]',-0.165
'[11:15:16.313]',-0.175
'[11:15:16.320]',-0.135
'[11:15:16.328]',-0.205
'[11:15:16.336]',-0.185
'[11:15:16.344]',-0.175
'[11:15:16.352]',-0.195
'[11:15:16.359]',-0.105
'[11:15:16.367]',-0.135
'[11:15:16.375]',-0.175
'[11:15:16.383]',-0.185
'[11:15:16.391]',-0.115
'[11:15:16.398]',-0.165
'[11:15:16.406]',-0.135
'[11:15:16.414]',-0.165
'[11:15:16.422]',-0.115
'[11:15:16.430]',-0.135
'[11:15:16.438]',-0.115
'[11:15:16.445]',-0.145
'[11:15:16.453]',-0.135
'[11:15:16.461]',-0.175
'[11:15:16.469]',-0.125
'[11:15:16.477]',-0.155
'[11:15:16.484]',-0.145
'[11:15:16.492]',-0.135
'[11:15:16.500]',-0.165
'[11:15:16.508]',-0.125
'[11:15:16.516]',-0.205
'[11:15:16.523]',-0.145
'[11:15:16.531]',-0.145
'[11:15:16.539]',-0.125
'[11:15:16.547]',-0.145
'[11:15:16.555]',-0.115
'[11:15:16.563]',-0.155
'[11:15:16.570]',-0.135
'[11:15:16.578]',-0.145
'[11:15:16.586]',-0.155
'[11:15:16.594]',-0.135
'[11:15:16.602]',-0.145
'[11:15:16.609]',-0.135
'[11:15:16.617]',-0.135
'[11:15:16.625]',-0.125
'[11:15:16.633]',-0.145
'[11:15:16.641]',-0.185
'[11:15:16.648]',-0.085
'[11:15:16.656]',-0.145
'[11:15:16.664]',-0.105
'[11:15:16.672]',-0.145
'[11:15:16.680]',-0.115
'[11:15:16.688]',-0.115
'[11:15:16.695]',-0.105
'[11:15:16.703]',-0.055
'[11:15:16.711]',-0.045
'[11:15:16.719]',0.005
'[11:15:16.727]',0.005
'[11:15:16.734]',0.035
'[11:15:16.742]',-0.015
'[11:15:16.750]',-0.125
'[11:15:16.758]',-0.085
'[11:15:16.766]',-0.145
'[11:15:16.773]',-0.145
'[11:15:16.781]',-0.185
'[11:15:16.789]',-0.225
'[11:15:16.797]',-0.155
'[11:15:16.805]',-0.135
'[11:15:16.813]',-0.165
'[11:15:16.820]',-0.205
'[11:15:16.828]',-0.025
'[11:15:16.836]',0.175
'[11:15:16.844]',0.455
'[11:15:16.852]',0.925
'[11:15:16.859]',0.535
'[11:15:16.867]',-0.745
'[11:15:16.875]',-1335
'[11:15:16.883]',-0.885
'[11:15:16.891]',-0.405
'[11:15:16.898]',-0.215
'[11:15:16.906]',-0.105
'[11:15:16.914]',-0.135
'[11:15:16.922]',-0.095
'[11:15:16.930]',-0.055
'[11:15:16.938]',-0.085
'[11:15:16.945]',-0.175
'[11:15:16.953]',-0.045
'[11:15:16.961]',-0.045
'[11:15:16.969]',-0.075
'[11:15:16.977]',-0.055
'[11:15:16.984]',0.035
'[11:15:16.992]',-0.015
'[11:15:17.000]',-0.015
'[11:15:17.008]',0.075
'[11:15:17.016]',0.065
'[11:15:17.023]',0.025
'[11:15:17.031]',0.105
'[11:15:17.039]',0.125
'[11:15:17.047]',0.175
'[11:15:17.055]',0.175
'[11:15:17.063]',0.185
'[11:15:17.070]',0.305
'[11:15:17.078]',0.215
'[11:15:17.086]',0.345
'[11:15:17.094]',0.365
'[11:15:17.102]',0.365
'[11:15:17.109]',0.405
'[11:15:17.117]',0.435
'[11:15:17.125]',0.365
'[11:15:17.133]',0.345
'[11:15:17.141]',0.205
'[11:15:17.148]',0.195
'[11:15:17.156]',0.065
'[11:15:17.164]',-0.065
'[11:15:17.172]',-0.035
'[11:15:17.180]',-0.105
'[11:15:17.188]',-0.155
'[11:15:17.195]',-0.175
'[11:15:17.203]',-0.165
'[11:15:17.211]',-0.225
'[11:15:17.219]',-0.165
'[11:15:17.227]',-0.245
'[11:15:17.234]',-0.145
'[11:15:17.242]',-0.205
'[11:15:17.250]',-0.215
'[11:15:17.258]',-0.165
'[11:15:17.266]',-0.175
'[11:15:17.273]',-0.195
'[11:15:17.281]',-0.175
'[11:15:17.289]',-0.195
'[11:15:17.297]',-0.125
'[11:15:17.305]',-0.175
'[11:15:17.313]',-0.145
'[11:15:17.320]',-0.165
'[11:15:17.328]',-0.155
'[11:15:17.336]',-0.145
'[11:15:17.344]',-0.155
'[11:15:17.352]',-0.125
'[11:15:17.359]',-0.115
'[11:15:17.367]',-0.145
'[11:15:17.375]',-0.125
'[11:15:17.383]',-0.135
'[11:15:17.391]',-0.145
'[11:15:17.398]',-0.145
'[11:15:17.406]',-0.145
'[11:15:17.414]',-0.105
'[11:15:17.422]',-0.115
'[11:15:17.430]',-0.105
'[11:15:17.438]',-0.095
'[11:15:17.445]',-0.145
'[11:15:17.453]',-0.115
'[11:15:17.461]',-0.145
'[11:15:17.469]',-0.155
'[11:15:17.477]',-0.075
'[11:15:17.484]',-0.105
'[11:15:17.492]',-0.135
'[11:15:17.500]',-0.115
'[11:15:17.508]',-0.085
'[11:15:17.516]',-0.155
'[11:15:17.523]',-0.095
'[11:15:17.531]',-0.115
'[11:15:17.539]',-0.105
'[11:15:17.547]',-0.115
'[11:15:17.555]',-0.095
'[11:15:17.563]',-0.065
'[11:15:17.570]',-0.115
'[11:15:17.578]',-0.165
'[11:15:17.586]',-0.055
'[11:15:17.594]',-0.125
'[11:15:17.602]',-0.105
'[11:15:17.609]',-0.125
'[11:15:17.617]',-0.095
'[11:15:17.625]',-0.075
'[11:15:17.633]',-0.065
'[11:15:17.641]',-0.045
'[11:15:17.648]',-0.035
'[11:15:17.656]',0.035
'[11:15:17.664]',0.005
'[11:15:17.672]',0.055
'[11:15:17.680]',0.055
'[11:15:17.688]',-0.025
'[11:15:17.695]',-0.085
'[11:15:17.703]',-0.065
'[11:15:17.711]',-0.145
'[11:15:17.719]',-0.145
'[11:15:17.727]',-0.155
'[11:15:17.734]',-0.115
'[11:15:17.742]',-0.125
'[11:15:17.750]',-0.145
'[11:15:17.758]',-0.055
'[11:15:17.766]',-0.085
'[11:15:17.773]',0.185
'[11:15:17.781]',0.525
'[11:15:17.789]',0.925
'[11:15:17.797]',0.495
'[11:15:17.805]',-0.795
'[11:15:17.813]',-1235
'[11:15:17.820]',-0.945
'[11:15:17.828]',-0.555
'[11:15:17.836]',-0.165
'[11:15:17.844]',-0.095
'[11:15:17.852]',-0.075
'[11:15:17.859]',-0.055
'[11:15:17.867]',-0.045
'[11:15:17.875]',-0.065
'[11:15:17.883]',-0.065
'[11:15:17.891]',-0.055
'[11:15:17.898]',-0.035
'[11:15:17.906]',-0.015
'[11:15:17.914]',-0.005
'[11:15:17.922]',0.025
'[11:15:17.930]',0.035
'[11:15:17.938]',0.015
'[11:15:17.945]',0.125
'[11:15:17.953]',0.095
'[11:15:17.961]',0.055
'[11:15:17.969]',0.165
'[11:15:17.977]',0.145
'[11:15:17.984]',0.145
'[11:15:17.992]',0.215
'[11:15:18.000]',0.265
'[11:15:18.008]',0.285
'[11:15:18.016]',0.285
'[11:15:18.023]',0.335
'[11:15:18.031]',0.415
'[11:15:18.039]',0.415
'[11:15:18.047]',0.475
'[11:15:18.055]',0.505
'[11:15:18.063]',0.405
'[11:15:18.070]',0.475
'[11:15:18.078]',0.295
'[11:15:18.086]',0.245
'[11:15:18.094]',0.205
'[11:15:18.102]',0.085
'[11:15:18.109]',0.055
'[11:15:18.117]',-0.025
'[11:15:18.125]',-0.065
'[11:15:18.133]',-0.075
'[11:15:18.141]',-0.155
'[11:15:18.148]',-0.185
'[11:15:18.156]',-0.165
'[11:15:18.164]',-0.115
'[11:15:18.172]',-0.105
'[11:15:18.180]',-0.145
'[11:15:18.188]',-0.145
'[11:15:18.195]',-0.145
'[11:15:18.203]',-0.165
'[11:15:18.211]',-0.155
'[11:15:18.219]',-0.125
'[11:15:18.227]',-0.165
'[11:15:18.234]',-0.135
'[11:15:18.242]',-0.135
'[11:15:18.250]',-0.135
'[11:15:18.258]',-0.115
'[11:15:18.266]',-0.155
'[11:15:18.273]',-0.065
'[11:15:18.281]',-0.155
'[11:15:18.289]',-0.085
'[11:15:18.297]',-0.095
'[11:15:18.305]',-0.125
'[11:15:18.313]',-0.105
'[11:15:18.320]',-0.095
'[11:15:18.328]',-0.145
'[11:15:18.336]',-0.135
'[11:15:18.344]',-0.105
'[11:15:18.352]',-0.105
'[11:15:18.359]',-0.145
'[11:15:18.367]',-0.145
'[11:15:18.375]',-0.035
'[11:15:18.383]',-0.105
'[11:15:18.391]',-0.165
'[11:15:18.398]',-0.095
'[11:15:18.406]',-0.165
'[11:15:18.414]',-0.095
'[11:15:18.422]',-0.105
'[11:15:18.430]',-0.155
'[11:15:18.438]',-0.085
'[11:15:18.445]',-0.085
'[11:15:18.453]',-0.145
'[11:15:18.461]',-0.095
'[11:15:18.469]',-0.105
'[11:15:18.477]',-0.035
'[11:15:18.484]',0.045
'[11:15:18.492]',-0.035
'[11:15:18.500]',0.045
'[11:15:18.508]',0.035
'[11:15:18.516]',-0.085
'[11:15:18.523]',-0.075
'[11:15:18.531]',-0.055
'[11:15:18.539]',-0.155
'[11:15:18.547]',-0.095
'[11:15:18.555]',-0.215
'[11:15:18.563]',-0.155
'[11:15:18.570]',-0.125
'[11:15:18.578]',-0.185
'[11:15:18.586]',-0.125
'[11:15:18.594]',-0.085
'[11:15:18.602]',-0.035
'[11:15:18.609]',0.365
'[11:15:18.617]',0.595
'[11:15:18.625]',0.695
'[11:15:18.633]',-0.085
'[11:15:18.641]',-0.785
'[11:15:18.648]',-0.985
'[11:15:18.656]',-0.705
'[11:15:18.664]',-0.375
'[11:15:18.672]',-0.145
'[11:15:18.680]',-0.075
'[11:15:18.688]',-0.045
'[11:15:18.695]',-0.035
'[11:15:18.703]',-0.095
'[11:15:18.711]',-0.035
'[11:15:18.719]',-0.015
'[11:15:18.727]',-0.005
'[11:15:18.734]',-0.045
'[11:15:18.742]',0.035
'[11:15:18.750]',-0.015
'[11:15:18.758]',0.045
'[11:15:18.766]',0.055
'[11:15:18.773]',0.095
'[11:15:18.781]',0.085
'[11:15:18.789]',0.085
'[11:15:18.797]',0.165
'[11:15:18.805]',0.105
'[11:15:18.813]',0.195
'[11:15:18.820]',0.195
'[11:15:18.828]',0.255
'[11:15:18.836]',0.285
'[11:15:18.844]',0.315
'[11:15:18.852]',0.385
'[11:15:18.859]',0.455
'[11:15:18.867]',0.435
'[11:15:18.875]',0.485
'[11:15:18.883]',0.445
'[11:15:18.891]',0.455
'[11:15:18.898]',0.465
'[11:15:18.906]',0.385
'[11:15:18.914]',0.285
'[11:15:18.922]',0.165
'[11:15:18.930]',0.135
'[11:15:18.938]',-0.035
'[11:15:18.945]',0.025
'[11:15:18.953]',-0.075
'[11:15:18.961]',-0.135
'[11:15:18.969]',-0.095
'[11:15:18.977]',-0.105
'[11:15:18.984]',-0.145
'[11:15:18.992]',-0.095
'[11:15:19.000]',-0.185
'[11:15:19.008]',-0.095
'[11:15:19.016]',-0.165
'[11:15:19.023]',-0.095
'[11:15:19.031]',-0.135
'[11:15:19.039]',-0.135
'[11:15:19.047]',-0.135
'[11:15:19.055]',-0.095
'[11:15:19.063]',-0.075
'[11:15:19.070]',-0.055
'[11:15:19.078]',-0.125
'[11:15:19.086]',-0.135
'[11:15:19.094]',-0.075
'[11:15:19.102]',-0.115
'[11:15:19.109]',-0.065
'[11:15:19.117]',-0.075
'[11:15:19.125]',-0.045
'[11:15:19.133]',-0.095
'[11:15:19.141]',-0.055
'[11:15:19.148]',-0.145
'[11:15:19.156]',-0.075
'[11:15:19.164]',-0.025
'[11:15:19.172]',-0.105
'[11:15:19.180]',-0.055
'[11:15:19.188]',-0.125
'[11:15:19.195]',-0.065
'[11:15:19.203]',-0.095
'[11:15:19.211]',-0.065
'[11:15:19.219]',-0.065
'[11:15:19.227]',0.025
'[11:15:19.234]',-0.025
'[11:15:19.242]',0.085
'[11:15:19.250]',0.115
'[11:15:19.258]',0.005
'[11:15:19.266]',0.065
'[11:15:19.273]',-0.005
'[11:15:19.281]',-0.045
'[11:15:19.289]',0.015
'[11:15:19.297]',-0.065
'[11:15:19.305]',-0.105
'[11:15:19.313]',-0.085
'[11:15:19.320]',-0.115
'[11:15:19.328]',-0.085
'[11:15:19.336]',-0.125
'[11:15:19.344]',-0.045
'[11:15:19.352]',-0.065
'[11:15:19.359]',0.045
'[11:15:19.367]',0.335
'[11:15:19.375]',0.735
'[11:15:19.383]',0.875
'[11:15:19.391]',-0.045
'[11:15:19.398]',-0.715
'[11:15:19.406]',-0.985
'[11:15:19.414]',-0.645
'[11:15:19.422]',-0.475
'[11:15:19.430]',-0.115
'[11:15:19.438]',-0.065
'[11:15:19.445]',0.055
'[11:15:19.453]',0.005
'[11:15:19.461]',-0.015
'[11:15:19.469]',-0.005
'[11:15:19.477]',-0.015
'[11:15:19.484]',0.075
'[11:15:19.492]',0.085
'[11:15:19.500]',0.035
'[11:15:19.508]',0.135
'[11:15:19.516]',0.035
'[11:15:19.523]',0.055
'[11:15:19.531]',0.105
'[11:15:19.539]',0.145
'[11:15:19.547]',0.155
'[11:15:19.555]',0.175
'[11:15:19.563]',0.235
'[11:15:19.570]',0.205
'[11:15:19.578]',0.235
'[11:15:19.586]',0.315
'[11:15:19.594]',0.295
'[11:15:19.602]',0.345
'[11:15:19.609]',0.495
'[11:15:19.617]',0.475
'[11:15:19.625]',0.445
'[11:15:19.633]',0.565
'[11:15:19.641]',0.495
'[11:15:19.648]',0.535
'[11:15:19.656]',0.435
'[11:15:19.664]',0.365
'[11:15:19.672]',0.135
'[11:15:19.680]',0.215
'[11:15:19.688]',0.025
'[11:15:19.695]',0.005
'[11:15:19.703]',-0.075
'[11:15:19.711]',-0.045
'[11:15:19.719]',-0.145
'[11:15:19.727]',-0.105
'[11:15:19.734]',-0.085
'[11:15:19.742]',-0.165
'[11:15:19.750]',-0.135
'[11:15:19.758]',-0.155
'[11:15:19.766]',-0.155
'[11:15:19.773]',-0.175
'[11:15:19.781]',-0.135
'[11:15:19.789]',-0.165
'[11:15:19.797]',-0.185
'[11:15:19.805]',-0.085
'[11:15:19.813]',-0.175
'[11:15:19.820]',-0.205
'[11:15:19.828]',-0.105
'[11:15:19.836]',-0.175
'[11:15:19.844]',-0.145
'[11:15:19.852]',-0.145
'[11:15:19.859]',-0.085
'[11:15:19.867]',-0.245
'[11:15:19.875]',-0.065
'[11:15:19.883]',-0.235
'[11:15:19.891]',-0.115
'[11:15:19.898]',-0.185
'[11:15:19.906]',-0.175
'[11:15:19.914]',-0.125
'[11:15:19.922]',-0.155
'[11:15:19.930]',-0.185
'[11:15:19.938]',-0.135
'[11:15:19.945]',-0.125
'[11:15:19.953]',-0.235
'[11:15:19.961]',-0.135
'[11:15:19.969]',-0.185
'[11:15:19.977]',-0.075
'[11:15:19.984]',-0.045
'[11:15:19.992]',-0.025
'[11:15:20.000]',-0.005
'[11:15:20.008]',-0.015
'[11:15:20.016]',0.075
'[11:15:20.023]',-0.045
'[11:15:20.031]',-0.095
'[11:15:20.039]',-0.095
'[11:15:20.047]',-0.015
'[11:15:20.055]',-0.135
'[11:15:20.063]',-0.175
'[11:15:20.070]',-0.215
'[11:15:20.078]',-0.135
'[11:15:20.086]',-0.145
'[11:15:20.094]',-0.105
'[11:15:20.102]',-0.185
'[11:15:20.109]',-0.005
'[11:15:20.117]',0.125
'[11:15:20.125]',0.605
'[11:15:20.133]',0.935
'[11:15:20.141]',0.845
'[11:15:20.148]',-0.495
'[11:15:20.156]',-1245
'[11:15:20.164]',-0.995
'[11:15:20.172]',-0.525
'[11:15:20.180]',-0.175
'[11:15:20.188]',-0.065
'[11:15:20.195]',-0.085
'[11:15:20.203]',-0.125
'[11:15:20.211]',-0.055
'[11:15:20.219]',-0.085
'[11:15:20.227]',-0.055
'[11:15:20.234]',-0.015
'[11:15:20.242]',-0.015
'[11:15:20.250]',-0.005
'[11:15:20.258]',0.025
'[11:15:20.266]',0.025
'[11:15:20.273]',0.025
'[11:15:20.281]',0.055
'[11:15:20.289]',0.105
'[11:15:20.297]',0.155
'[11:15:20.305]',0.115
'[11:15:20.313]',0.175
'[11:15:20.320]',0.185
'[11:15:20.328]',0.185
'[11:15:20.336]',0.305
'[11:15:20.344]',0.295
'[11:15:20.352]',0.365
'[11:15:20.359]',0.395
'[11:15:20.367]',0.415
'[11:15:20.375]',0.495
'[11:15:20.383]',0.485
'[11:15:20.391]',0.445
'[11:15:20.398]',0.515
'[11:15:20.406]',0.475
'[11:15:20.414]',0.375
'[11:15:20.422]',0.295
'[11:15:20.430]',0.185
'[11:15:20.438]',0.055
'[11:15:20.445]',-0.035
'[11:15:20.453]',0.005
'[11:15:20.461]',-0.115
'[11:15:20.469]',-0.125
'[11:15:20.477]',-0.145
'[11:15:20.484]',-0.095
'[11:15:20.492]',-0.155
'[11:15:20.500]',-0.075
'[11:15:20.508]',-0.185
'[11:15:20.516]',-0.185
'[11:15:20.523]',-0.115
'[11:15:20.531]',-0.175
'[11:15:20.539]',-0.175
'[11:15:20.547]',-0.175
'[11:15:20.555]',-0.115
'[11:15:20.563]',-0.215
'[11:15:20.570]',-0.135
'[11:15:20.578]',-0.185
'[11:15:20.586]',-0.125
'[11:15:20.594]',-0.175
'[11:15:20.602]',-0.145
'[11:15:20.609]',-0.125
'[11:15:20.617]',-0.135
'[11:15:20.625]',-0.195
'[11:15:20.633]',-0.175
'[11:15:20.641]',-0.165
'[11:15:20.648]',-0.095
'[11:15:20.656]',-0.215
'[11:15:20.664]',-0.145
'[11:15:20.672]',-0.195
'[11:15:20.680]',-0.115
'[11:15:20.688]',-0.165
'[11:15:20.695]',-0.205
'[11:15:20.703]',-0.185
'[11:15:20.711]',-0.185
'[11:15:20.719]',-0.195
'[11:15:20.727]',-0.175
'[11:15:20.734]',-0.145
'[11:15:20.742]',-0.145
'[11:15:20.750]',-0.175
'[11:15:20.758]',-0.225
'[11:15:20.766]',-0.175
'[11:15:20.773]',-0.175
'[11:15:20.781]',-0.135
'[11:15:20.789]',-0.105
'[11:15:20.797]',-0.015
'[11:15:20.805]',-0.085
'[11:15:20.813]',0.045
'[11:15:20.820]',-0.035
'[11:15:20.828]',-0.095
'[11:15:20.836]',-0.145
'[11:15:20.844]',-0.115
'[11:15:20.852]',-0.115
'[11:15:20.859]',-0.185
'[11:15:20.867]',-0.235
'[11:15:20.875]',-0.215
'[11:15:20.883]',-0.195
'[11:15:20.891]',-0.255
'[11:15:20.898]',-0.185
'[11:15:20.906]',-0.175
'[11:15:20.914]',-0.165
'[11:15:20.922]',0.005
'[11:15:20.930]',0.445
'[11:15:20.938]',0.805
'[11:15:20.945]',1045
'[11:15:20.953]',-0.235
'[11:15:20.961]',-1505
'[11:15:20.969]',-1185
'[11:15:20.977]',-0.685
'[11:15:20.984]',-0.295
'[11:15:20.992]',-0.115
'[11:15:21.000]',-0.115
'[11:15:21.008]',-0.215
'[11:15:21.016]',-0.185
'[11:15:21.023]',-0.175
'[11:15:21.031]',-0.155
'[11:15:21.039]',-0.165
'[11:15:21.047]',-0.145
'[11:15:21.055]',-0.055
'[11:15:21.063]',-0.145
'[11:15:21.070]',-0.095
'[11:15:21.078]',-0.095
'[11:15:21.086]',-0.115
'[11:15:21.094]',-0.085
'[11:15:21.102]',-0.065
'[11:15:21.109]',-0.005
'[11:15:21.117]',-0.035
'[11:15:21.125]',-0.015
'[11:15:21.133]',0.095
'[11:15:21.141]',0.105
'[11:15:21.148]',0.065
'[11:15:21.156]',0.125
'[11:15:21.164]',0.225
'[11:15:21.172]',0.215
'[11:15:21.180]',0.275
'[11:15:21.188]',0.255
'[11:15:21.195]',0.255
'[11:15:21.203]',0.275
'[11:15:21.211]',0.235
'[11:15:21.219]',0.165
'[11:15:21.227]',0.015
'[11:15:21.234]',-0.035
'[11:15:21.242]',-0.165
'[11:15:21.250]',-0.245
'[11:15:21.258]',-0.235
'[11:15:21.266]',-0.365
'[11:15:21.273]',-0.375
'[11:15:21.281]',-0.365
'[11:15:21.289]',-0.305
'[11:15:21.297]',-0.395
'[11:15:21.305]',-0.435
'[11:15:21.313]',-0.415
'[11:15:21.320]',-0.405
'[11:15:21.328]',-0.495
'[11:15:21.336]',-0.385
'[11:15:21.344]',-0.505
'[11:15:21.352]',-0.455
'[11:15:21.359]',-0.385
'[11:15:21.367]',-0.425
'[11:15:21.375]',-0.465
'[11:15:21.383]',-0.455
'[11:15:21.391]',-0.475
'[11:15:21.398]',-0.495
'[11:15:21.406]',-0.455
'[11:15:21.414]',-0.525
'[11:15:21.422]',-0.495
'[11:15:21.430]',-0.505
'[11:15:21.438]',-0.515
'[11:15:21.445]',-0.505
'[11:15:21.453]',-0.525
'[11:15:21.461]',-0.555
'[11:15:21.469]',-0.485
'[11:15:21.477]',-0.535
'[11:15:21.484]',-0.475
'[11:15:21.492]',-0.535
'[11:15:21.500]',-0.545
'[11:15:21.508]',-0.535
'[11:15:21.516]',-0.545
'[11:15:21.523]',-0.555
'[11:15:21.531]',-0.575
'[11:15:21.539]',-0.535
'[11:15:21.547]',-0.475
'[11:15:21.555]',-0.555
'[11:15:21.563]',-0.525
'[11:15:21.570]',-0.565
'[11:15:21.578]',-0.465
'[11:15:21.586]',-0.545
'[11:15:21.594]',-0.535
'[11:15:21.602]',-0.565
'[11:15:21.609]',-0.465
'[11:15:21.617]',-0.505
'[11:15:21.625]',-0.475
'[11:15:21.633]',-0.525
'[11:15:21.641]',-0.495
'[11:15:21.648]',-0.555
'[11:15:21.656]',-0.395
'[11:15:21.664]',-0.555
'[11:15:21.672]',-0.465
'[11:15:21.680]',-0.475
'[11:15:21.688]',-0.505
'[11:15:21.695]',-0.475
'[11:15:21.703]',-0.435
'[11:15:21.711]',-0.505
'[11:15:21.719]',-0.465
'[11:15:21.727]',-0.465
'[11:15:21.734]',-0.435
'[11:15:21.742]',-0.475
'[11:15:21.750]',-0.455
'[11:15:21.758]',-0.465
'[11:15:21.766]',-0.505
'[11:15:21.773]',-0.425
'[11:15:21.781]',-0.405
'[11:15:21.789]',-0.475
'[11:15:21.797]',-0.395
'[11:15:21.805]',-0.455
'[11:15:21.813]',-0.345
'[11:15:21.820]',-0.445
'[11:15:21.828]',-0.415
'[11:15:21.836]',-0.425
'[11:15:21.844]',-0.375
'[11:15:21.852]',-0.395
'[11:15:21.859]',-0.375
'[11:15:21.867]',-0.365
'[11:15:21.875]',-0.425
'[11:15:21.883]',-0.325
'[11:15:21.891]',-0.375
'[11:15:21.898]',-0.365
'[11:15:21.906]',-0.355
'[11:15:21.914]',-0.355
'[11:15:21.922]',-0.265
'[11:15:21.930]',-0.325
'[11:15:21.938]',-0.195
'[11:15:21.945]',-0.265
'[11:15:21.953]',-0.175
'[11:15:21.961]',-0.175
'[11:15:21.969]',-0.235
'[11:15:21.977]',-0.305
'[11:15:21.984]',-0.245
'[11:15:21.992]',-0.255
'[11:15:22.000]',-0.265
'[11:15:22.008]',-0.315
'[11:15:22.016]',-0.385
'[11:15:22.023]',-0.295
'[11:15:22.031]',-0.325
'[11:15:22.039]',-0.345
'[11:15:22.047]',-0.245
'[11:15:22.055]',-0.155
'[11:15:22.063]',0.035
'[11:15:22.070]',0.445
'[11:15:22.078]',0.765
'[11:15:22.086]',0.555
'[11:15:22.094]',-0.735
'[11:15:22.102]',-1465
'[11:15:22.109]',-1095
'[11:15:22.117]',-0.575
'[11:15:22.125]',-0.285
'[11:15:22.133]',-0.255
'[11:15:22.141]',-0.205
'[11:15:22.148]',-0.215
'[11:15:22.156]',-0.245
'[11:15:22.164]',-0.215
'[11:15:22.172]',-0.165
'[11:15:22.180]',-0.185
'[11:15:22.188]',-0.135
'[11:15:22.195]',-0.175
'[11:15:22.203]',-0.165
'[11:15:22.211]',-0.075
'[11:15:22.219]',-0.125
'[11:15:22.227]',-0.095
'[11:15:22.234]',-0.115
'[11:15:22.242]',0.005
'[11:15:22.250]',-0.075
'[11:15:22.258]',-0.055
'[11:15:22.266]',-0.025
'[11:15:22.273]',-0.015
'[11:15:22.281]',0.065
'[11:15:22.289]',0.105
'[11:15:22.297]',0.135
'[11:15:22.305]',0.115
'[11:15:22.313]',0.255
'[11:15:22.320]',0.155
'[11:15:22.328]',0.265
'[11:15:22.336]',0.245
'[11:15:22.344]',0.305
'[11:15:22.352]',0.265
'[11:15:22.359]',0.275
'[11:15:22.367]',0.255
'[11:15:22.375]',0.105
'[11:15:22.383]',0.035
'[11:15:22.391]',-0.095
'[11:15:22.398]',-0.185
'[11:15:22.406]',-0.145
'[11:15:22.414]',-0.285
'[11:15:22.422]',-0.225
'[11:15:22.430]',-0.255
'[11:15:22.438]',-0.255
'[11:15:22.445]',-0.295
'[11:15:22.453]',-0.315
'[11:15:22.461]',-0.245
'[11:15:22.469]',-0.335
'[11:15:22.477]',-0.315
'[11:15:22.484]',-0.305
'[11:15:22.492]',-0.305
'[11:15:22.500]',-0.285
'[11:15:22.508]',-0.245
'[11:15:22.516]',-0.305
'[11:15:22.523]',-0.265
'[11:15:22.531]',-0.185
'[11:15:22.539]',-0.345
'[11:15:22.547]',-0.225
'[11:15:22.555]',-0.265
'[11:15:22.563]',-0.295
'[11:15:22.570]',-0.225
'[11:15:22.578]',-0.275
'[11:15:22.586]',-0.245
'[11:15:22.594]',-0.215
'[11:15:22.602]',-0.235
'[11:15:22.609]',-0.255
'[11:15:22.617]',-0.205
'[11:15:22.625]',-0.215
'[11:15:22.633]',-0.205
'[11:15:22.641]',-0.225
'[11:15:22.648]',-0.215
'[11:15:22.656]',-0.165
'[11:15:22.664]',-0.155
'[11:15:22.672]',-0.185
'[11:15:22.680]',-0.155
'[11:15:22.688]',-0.185
'[11:15:22.695]',-0.135
'[11:15:22.703]',-0.145
'[11:15:22.711]',-0.155
'[11:15:22.719]',-0.125
'[11:15:22.727]',-0.135
'[11:15:22.734]',-0.095
'[11:15:22.742]',-0.105
'[11:15:22.750]',-0.125
'[11:15:22.758]',-0.055
'[11:15:22.766]',-0.095
'[11:15:22.773]',-0.105
'[11:15:22.781]',-0.045
'[11:15:22.789]',-0.105
'[11:15:22.797]',-0.055
'[11:15:22.805]',-0.065
'[11:15:22.813]',-0.075
'[11:15:22.820]',-0.045
'[11:15:22.828]',-0.105
'[11:15:22.836]',-0.035
'[11:15:22.844]',-0.055
'[11:15:22.852]',-0.055
'[11:15:22.859]',-0.045
'[11:15:22.867]',-0.075
'[11:15:22.875]',-0.075
'[11:15:22.883]',-0.065
'[11:15:22.891]',-0.085
'[11:15:22.898]',-0.075
'[11:15:22.906]',-0.115
'[11:15:22.914]',-0.085
'[11:15:22.922]',-0.115
'[11:15:22.930]',-0.085
'[11:15:22.938]',-0.055
'[11:15:22.945]',-0.115
'[11:15:22.953]',-0.105
'[11:15:22.961]',-0.135
'[11:15:22.969]',-0.135
'[11:15:22.977]',-0.065
'[11:15:22.984]',-0.115
'[11:15:22.992]',-0.125
'[11:15:23.000]',-0.075
'[11:15:23.008]',-0.005
'[11:15:23.016]',-0.025
'[11:15:23.023]',-0.025
'[11:15:23.031]',-0.105
'[11:15:23.039]',-0.045
'[11:15:23.047]',-0.115
'[11:15:23.055]',-0.155
'[11:15:23.063]',-0.155
'[11:15:23.070]',-0.185
'[11:15:23.078]',-0.215
'[11:15:23.086]',-0.175
'[11:15:23.094]',-0.155
'[11:15:23.102]',-0.135
'[11:15:23.109]',-0.055
'[11:15:23.117]',0.275
'[11:15:23.125]',0.525
'[11:15:23.133]',0.845
'[11:15:23.141]',0.485
'[11:15:23.148]',-0.895
'[11:15:23.156]',-1295
'[11:15:23.164]',-0.845
'[11:15:23.172]',-0.425
'[11:15:23.180]',-0.175
'[11:15:23.188]',-0.055
'[11:15:23.195]',-0.075
'[11:15:23.203]',-0.145
'[11:15:23.211]',-0.105
'[11:15:23.219]',-0.045
'[11:15:23.227]',-0.065
'[11:15:23.234]',-0.075
'[11:15:23.242]',-0.035
'[11:15:23.250]',0.075
'[11:15:23.258]',0.015
'[11:15:23.266]',-0.015
'[11:15:23.273]',0.035
'[11:15:23.281]',0.035
'[11:15:23.289]',0.035
'[11:15:23.297]',0.115
'[11:15:23.305]',0.055
'[11:15:23.313]',0.155
'[11:15:23.320]',0.115
'[11:15:23.328]',0.145
'[11:15:23.336]',0.235
'[11:15:23.344]',0.225
'[11:15:23.352]',0.275
'[11:15:23.359]',0.345
'[11:15:23.367]',0.305
'[11:15:23.375]',0.385
'[11:15:23.383]',0.415
'[11:15:23.391]',0.365
'[11:15:23.398]',0.445
'[11:15:23.406]',0.365
'[11:15:23.414]',0.305
'[11:15:23.422]',0.315
'[11:15:23.430]',0.125
'[11:15:23.438]',0.055
'[11:15:23.445]',-0.075
'[11:15:23.453]',-0.025
'[11:15:23.461]',-0.105
'[11:15:23.469]',-0.215
'[11:15:23.477]',-0.065
'[11:15:23.484]',-0.205
'[11:15:23.492]',-0.125
'[11:15:23.500]',-0.165
'[11:15:23.508]',-0.195
'[11:15:23.516]',-0.175
'[11:15:23.523]',-0.185
'[11:15:23.531]',-0.205
'[11:15:23.539]',-0.135
'[11:15:23.547]',-0.165
'[11:15:23.555]',-0.215
'[11:15:23.563]',-0.175
'[11:15:23.570]',-0.125
'[11:15:23.578]',-0.165
'[11:15:23.586]',-0.135
'[11:15:23.594]',-0.165
'[11:15:23.602]',-0.115
'[11:15:23.609]',-0.065
'[11:15:23.617]',-0.155
'[11:15:23.625]',-0.115
'[11:15:23.633]',-0.105
'[11:15:23.641]',-0.055
'[11:15:23.648]',-0.145
'[11:15:23.656]',-0.125
'[11:15:23.664]',-0.075
'[11:15:23.672]',-0.115
'[11:15:23.680]',-0.075
'[11:15:23.688]',-0.105
'[11:15:23.695]',-0.095
'[11:15:23.703]',-0.135
'[11:15:23.711]',-0.045
'[11:15:23.719]',-0.185
'[11:15:23.727]',-0.015
'[11:15:23.734]',-0.035
'[11:15:23.742]',-0.105
'[11:15:23.750]',-0.085
'[11:15:23.758]',-0.115
'[11:15:23.766]',-0.085
'[11:15:23.773]',-0.075
'[11:15:23.781]',-0.085
'[11:15:23.789]',-0.075
'[11:15:23.797]',-0.065
'[11:15:23.805]',-0.125
'[11:15:23.813]',-0.055
'[11:15:23.820]',-0.075
'[11:15:23.828]',-0.085
'[11:15:23.836]',-0.105
'[11:15:23.844]',-0.015
'[11:15:23.852]',-0.065
'[11:15:23.859]',-0.105
'[11:15:23.867]',-0.005
'[11:15:23.875]',-0.065
'[11:15:23.883]',-0.025
'[11:15:23.891]',-0.125
'[11:15:23.898]',-0.075
'[11:15:23.906]',-0.045
'[11:15:23.914]',-0.115
'[11:15:23.922]',0.005
'[11:15:23.930]',-0.105
'[11:15:23.938]',-0.025
'[11:15:23.945]',-0.085
'[11:15:23.953]',-0.035
'[11:15:23.961]',-0.135
'[11:15:23.969]',-0.045
'[11:15:23.977]',-0.065
'[11:15:23.984]',0.015
'[11:15:23.992]',-0.075
'[11:15:24.000]',-0.025
'[11:15:24.008]',-0.025
'[11:15:24.016]',-0.095
'[11:15:24.023]',0.005
'[11:15:24.031]',-0.045
'[11:15:24.039]',-0.055
'[11:15:24.047]',-0.025
'[11:15:24.055]',0.075
'[11:15:24.063]',0.105
'[11:15:24.070]',0.105
'[11:15:24.078]',0.035
'[11:15:24.086]',-0.035
'[11:15:24.094]',-0.025
'[11:15:24.102]',-0.005
'[11:15:24.109]',-0.055
'[11:15:24.117]',-0.095
'[11:15:24.125]',-0.085
'[11:15:24.133]',0.025
'[11:15:24.141]',-0.055
'[11:15:24.148]',-0.025
'[11:15:24.156]',0.185
'[11:15:24.164]',0.585
'[11:15:24.172]',0.695
'[11:15:24.180]',0.985
'[11:15:24.188]',0.075
'[11:15:24.195]',-1075
'[11:15:24.203]',-1055
'[11:15:24.211]',-0.675
'[11:15:24.219]',-0.135
'[11:15:24.227]',-0.005
'[11:15:24.234]',0.025
'[11:15:24.242]',0.045
'[11:15:24.250]',0.085
'[11:15:24.258]',0.035
'[11:15:24.266]',-0.015
'[11:15:24.273]',0.105
'[11:15:24.281]',0.065
'[11:15:24.289]',0.105
'[11:15:24.297]',0.145
'[11:15:24.305]',0.135
'[11:15:24.313]',0.095
'[11:15:24.320]',0.245
'[11:15:24.328]',0.215
'[11:15:24.336]',0.145
'[11:15:24.344]',0.315
'[11:15:24.352]',0.225
'[11:15:24.359]',0.325
'[11:15:24.367]',0.335
'[11:15:24.375]',0.365
'[11:15:24.383]',0.425
'[11:15:24.391]',0.455
'[11:15:24.398]',0.475
'[11:15:24.406]',0.645
'[11:15:24.414]',0.695
'[11:15:24.422]',0.665
'[11:15:24.430]',0.735
'[11:15:24.438]',0.695
'[11:15:24.445]',0.735
'[11:15:24.453]',0.655
'[11:15:24.461]',0.635
'[11:15:24.469]',0.575
'[11:15:24.477]',0.465
'[11:15:24.484]',0.415
'[11:15:24.492]',0.305
'[11:15:24.500]',0.215
'[11:15:24.508]',0.325
'[11:15:24.516]',0.185
'[11:15:24.523]',0.125
'[11:15:24.531]',0.165
'[11:15:24.539]',0.145
'[11:15:24.547]',0.125
'[11:15:24.555]',0.135
'[11:15:24.563]',0.135
'[11:15:24.570]',0.115
'[11:15:24.578]',0.085
'[11:15:24.586]',0.115
'[11:15:24.594]',0.105
'[11:15:24.602]',0.145
'[11:15:24.609]',0.095
'[11:15:24.617]',0.075
'[11:15:24.625]',0.065
'[11:15:24.633]',0.165
'[11:15:24.641]',0.065
'[11:15:24.648]',0.115
'[11:15:24.656]',0.145
'[11:15:24.664]',0.135
'[11:15:24.672]',0.125
'[11:15:24.680]',0.165
'[11:15:24.688]',0.145
'[11:15:24.695]',0.095
'[11:15:24.703]',0.145
'[11:15:24.711]',0.125
'[11:15:24.719]',0.125
'[11:15:24.727]',0.135
'[11:15:24.734]',0.155
'[11:15:24.742]',0.165
'[11:15:24.750]',0.135
'[11:15:24.758]',0.165
'[11:15:24.766]',0.145
'[11:15:24.773]',0.135
'[11:15:24.781]',0.155
'[11:15:24.789]',0.145
'[11:15:24.797]',0.155
'[11:15:24.805]',0.175
'[11:15:24.813]',0.145
'[11:15:24.820]',0.125
'[11:15:24.828]',0.115
'[11:15:24.836]',0.055
'[11:15:24.844]',0.245
'[11:15:24.852]',0.085
'[11:15:24.859]',0.105
'[11:15:24.867]',0.155
'[11:15:24.875]',0.095
'[11:15:24.883]',0.095
'[11:15:24.891]',0.045
'[11:15:24.898]',0.065
'[11:15:24.906]',0.085
'[11:15:24.914]',0.085
'[11:15:24.922]',0.075
'[11:15:24.930]',0.065
'[11:15:24.938]',0.065
'[11:15:24.945]',0.035
'[11:15:24.953]',0.035
'[11:15:24.961]',0.045
'[11:15:24.969]',0.005
'[11:15:24.977]',0.065
'[11:15:24.984]',0.085
'[11:15:24.992]',0.035
'[11:15:25.000]',0.025
'[11:15:25.008]',0.025
'[11:15:25.016]',0.005
'[11:15:25.023]',0.025
'[11:15:25.031]',0.015
'[11:15:25.039]',0.015
'[11:15:25.047]',0.025
'[11:15:25.055]',0.035
'[11:15:25.063]',-0.045
'[11:15:25.070]',0.025
'[11:15:25.078]',0.025
'[11:15:25.086]',0.025
'[11:15:25.094]',0.005
'[11:15:25.102]',-0.025
'[11:15:25.109]',0.045
'[11:15:25.117]',0.125
'[11:15:25.125]',0.135
'[11:15:25.133]',0.075
'[11:15:25.141]',0.015
'[11:15:25.148]',-0.025
'[11:15:25.156]',-0.005
'[11:15:25.164]',-0.085
'[11:15:25.172]',-0.145
'[11:15:25.180]',-0.045
'[11:15:25.188]',-0.075
'[11:15:25.195]',-0.145
'[11:15:25.203]',-0.085
'[11:15:25.211]',0.025
'[11:15:25.219]',0.105
'[11:15:25.227]',0.475
'[11:15:25.234]',0.805
'[11:15:25.242]',0.805
'[11:15:25.250]',-0.305
'[11:15:25.258]',-1045
'[11:15:25.266]',-0.995
'[11:15:25.273]',-0.605
'[11:15:25.281]',-0.225
'[11:15:25.289]',-0.085
'[11:15:25.297]',-0.025
'[11:15:25.305]',-0.015
'[11:15:25.313]',-0.065
'[11:15:25.320]',-0.025
'[11:15:25.328]',-0.065
'[11:15:25.336]',-0.015
'[11:15:25.344]',0.035
'[11:15:25.352]',-0.005
'[11:15:25.359]',0.075
'[11:15:25.367]',0.045
'[11:15:25.375]',0.055
'[11:15:25.383]',0.085
'[11:15:25.391]',0.045
'[11:15:25.398]',0.085
'[11:15:25.406]',0.095
'[11:15:25.414]',0.145
'[11:15:25.422]',0.175
'[11:15:25.430]',0.195
'[11:15:25.438]',0.195
'[11:15:25.445]',0.265
'[11:15:25.453]',0.285
'[11:15:25.461]',0.255
'[11:15:25.469]',0.385
'[11:15:25.477]',0.415
'[11:15:25.484]',0.435
'[11:15:25.492]',0.475
'[11:15:25.500]',0.485
'[11:15:25.508]',0.455
'[11:15:25.516]',0.445
'[11:15:25.523]',0.415
'[11:15:25.531]',0.325
'[11:15:25.539]',0.245
'[11:15:25.547]',0.155
'[11:15:25.555]',0.085
'[11:15:25.563]',-0.015
'[11:15:25.570]',-0.055
'[11:15:25.578]',-0.095
'[11:15:25.586]',-0.085
'[11:15:25.594]',-0.135
'[11:15:25.602]',-0.105
'[11:15:25.609]',-0.105
'[11:15:25.617]',-0.125
'[11:15:25.625]',-0.095
'[11:15:25.633]',-0.115
'[11:15:25.641]',-0.145
'[11:15:25.648]',-0.135
'[11:15:25.656]',-0.105
'[11:15:25.664]',-0.045
'[11:15:25.672]',-0.045
'[11:15:25.680]',-0.075
'[11:15:25.688]',-0.095
'[11:15:25.695]',-0.125
'[11:15:25.703]',-0.065
'[11:15:25.711]',-0.065
'[11:15:25.719]',-0.055
'[11:15:25.727]',-0.095
'[11:15:25.734]',-0.075
'[11:15:25.742]',-0.005
'[11:15:25.750]',-0.015
'[11:15:25.758]',-0.055
'[11:15:25.766]',-0.085
'[11:15:25.773]',-0.045
'[11:15:25.781]',-0.035
'[11:15:25.789]',-0.055
'[11:15:25.797]',-0.085
'[11:15:25.805]',-0.015
'[11:15:25.813]',-0.025
'[11:15:25.820]',-0.035
'[11:15:25.828]',-0.095
'[11:15:25.836]',-0.045
'[11:15:25.844]',-0.035
'[11:15:25.852]',-0.045
'[11:15:25.859]',-0.075
'[11:15:25.867]',-0.045
'[11:15:25.875]',-0.015
'[11:15:25.883]',-0.045
'[11:15:25.891]',-0.065
'[11:15:25.898]',-0.045
'[11:15:25.906]',-0.025
'[11:15:25.914]',-0.045
'[11:15:25.922]',-0.065
'[11:15:25.930]',-0.045
'[11:15:25.938]',-0.075
'[11:15:25.945]',-0.055
'[11:15:25.953]',-0.055
'[11:15:25.961]',-0.115
'[11:15:25.969]',-0.075
'[11:15:25.977]',-0.075
'[11:15:25.984]',-0.055
'[11:15:25.992]',-0.055
'[11:15:26.000]',-0.085
'[11:15:26.008]',-0.095
'[11:15:26.016]',-0.095
'[11:15:26.023]',-0.085
'[11:15:26.031]',-0.095
'[11:15:26.039]',-0.095
'[11:15:26.047]',-0.075
'[11:15:26.055]',-0.095
'[11:15:26.063]',-0.115
'[11:15:26.070]',-0.095
'[11:15:26.078]',-0.075
'[11:15:26.086]',-0.065
'[11:15:26.094]',-0.045
'[11:15:26.102]',-0.015
'[11:15:26.109]',0.015
'[11:15:26.117]',0.035
'[11:15:26.125]',0.065
'[11:15:26.133]',0.035
'[11:15:26.141]',-0.105
'[11:15:26.148]',-0.085
'[11:15:26.156]',-0.025
'[11:15:26.164]',-0.085
'[11:15:26.172]',-0.135
'[11:15:26.180]',-0.175
'[11:15:26.188]',-0.155
'[11:15:26.195]',-0.125
'[11:15:26.203]',-0.145
'[11:15:26.211]',-0.175
'[11:15:26.219]',0.015
'[11:15:26.227]',0.255
'[11:15:26.234]',0.655
'[11:15:26.242]',0.985
'[11:15:26.250]',0.485
'[11:15:26.258]',-0.775
'[11:15:26.266]',-1175
'[11:15:26.273]',-0.895
'[11:15:26.281]',-0.525
'[11:15:26.289]',-0.185
'[11:15:26.297]',-0.095
'[11:15:26.305]',-0.095
'[11:15:26.313]',-0.125
'[11:15:26.320]',-0.055
'[11:15:26.328]',-0.055
'[11:15:26.336]',-0.035
'[11:15:26.344]',-0.025
'[11:15:26.352]',-0.015
'[11:15:26.359]',-0.015
'[11:15:26.367]',0.015
'[11:15:26.375]',0.035
'[11:15:26.383]',0.045
'[11:15:26.391]',0.045
'[11:15:26.398]',0.085
'[11:15:26.406]',0.095
'[11:15:26.414]',0.125
'[11:15:26.422]',0.125
'[11:15:26.430]',0.185
'[11:15:26.438]',0.185
'[11:15:26.445]',0.245
'[11:15:26.453]',0.265
'[11:15:26.461]',0.305
'[11:15:26.469]',0.375
'[11:15:26.477]',0.415
'[11:15:26.484]',0.485
'[11:15:26.492]',0.465
'[11:15:26.500]',0.495
'[11:15:26.508]',0.505
'[11:15:26.516]',0.485
'[11:15:26.523]',0.485
'[11:15:26.531]',0.435
'[11:15:26.539]',0.335
'[11:15:26.547]',0.265
'[11:15:26.555]',0.165
'[11:15:26.563]',0.125
'[11:15:26.570]',0.085
'[11:15:26.578]',0.015
'[11:15:26.586]',0.005
'[11:15:26.594]',-0.035
'[11:15:26.602]',-0.025
'[11:15:26.609]',-0.005
'[11:15:26.617]',-0.015
'[11:15:26.625]',-0.045
'[11:15:26.633]',-0.035
'[11:15:26.641]',-0.065
'[11:15:26.648]',-0.045
'[11:15:26.656]',-0.025
'[11:15:26.664]',-0.025
'[11:15:26.672]',-0.005
'[11:15:26.680]',-0.025
'[11:15:26.688]',0.005
'[11:15:26.695]',0.025
'[11:15:26.703]',0.005
'[11:15:26.711]',0.025
'[11:15:26.719]',0.015
'[11:15:26.727]',0.045
'[11:15:26.734]',0.075
'[11:15:26.742]',0.075
'[11:15:26.750]',0.085
'[11:15:26.758]',0.075
'[11:15:26.766]',0.075
'[11:15:26.773]',0.085
'[11:15:26.781]',0.095
'[11:15:26.789]',0.105
'[11:15:26.797]',0.135
'[11:15:26.805]',0.105
'[11:15:26.813]',0.095
'[11:15:26.820]',0.085
'[11:15:26.828]',0.075
'[11:15:26.836]',0.075
'[11:15:26.844]',0.055
'[11:15:26.852]',0.065
'[11:15:26.859]',0.065
'[11:15:26.867]',0.065
'[11:15:26.875]',0.035
'[11:15:26.883]',0.025
'[11:15:26.891]',0.015
'[11:15:26.898]',0.035
'[11:15:26.906]',-0.005
'[11:15:26.914]',0.005
'[11:15:26.922]',0.025
'[11:15:26.930]',0.005
'[11:15:26.938]',0.005
'[11:15:26.945]',-0.005
'[11:15:26.953]',-0.025
'[11:15:26.961]',-0.025
'[11:15:26.969]',-0.015
'[11:15:26.977]',-0.035
'[11:15:26.984]',0.015
'[11:15:26.992]',-0.005
'[11:15:27.000]',0.045
'[11:15:27.008]',0.055
'[11:15:27.016]',0.045
'[11:15:27.023]',0.085
'[11:15:27.031]',0.115
'[11:15:27.039]',0.035
'[11:15:27.047]',-0.015
'[11:15:27.055]',-0.025
'[11:15:27.063]',-0.055
'[11:15:27.070]',-0.115
'[11:15:27.078]',-0.165
'[11:15:27.086]',-0.155
'[11:15:27.094]',-0.145
'[11:15:27.102]',-0.125
'[11:15:27.109]',-0.115
'[11:15:27.117]',-0.125
'[11:15:27.125]',-0.015
'[11:15:27.133]',0.215
'[11:15:27.141]',0.575
'[11:15:27.148]',0.965
'[11:15:27.156]',0.535
'[11:15:27.164]',-0.655
'[11:15:27.172]',-1045
'[11:15:27.180]',-0.905
'[11:15:27.188]',-0.565
'[11:15:27.195]',-0.235
'[11:15:27.203]',-0.125
'[11:15:27.211]',-0.095
'[11:15:27.219]',-0.045
'[11:15:27.227]',-0.095
'[11:15:27.234]',-0.035
'[11:15:27.242]',-0.035
'[11:15:27.250]',-0.025
'[11:15:27.258]',-0.035
'[11:15:27.266]',-0.025
'[11:15:27.273]',-0.025
'[11:15:27.281]',0.005
'[11:15:27.289]',0.005
'[11:15:27.297]',0.035
'[11:15:27.305]',0.045
'[11:15:27.313]',0.045
'[11:15:27.320]',0.065
'[11:15:27.328]',0.055
'[11:15:27.336]',0.095
'[11:15:27.344]',0.125
'[11:15:27.352]',0.165
'[11:15:27.359]',0.195
'[11:15:27.367]',0.215
'[11:15:27.375]',0.235
'[11:15:27.383]',0.275
'[11:15:27.391]',0.295
'[11:15:27.398]',0.335
'[11:15:27.406]',0.335
'[11:15:27.414]',0.345
'[11:15:27.422]',0.335
'[11:15:27.430]',0.305
'[11:15:27.438]',0.225
'[11:15:27.445]',0.125
'[11:15:27.453]',0.025
'[11:15:27.461]',-0.035
'[11:15:27.469]',-0.055
'[11:15:27.477]',-0.125
'[11:15:27.484]',-0.095
'[11:15:27.492]',-0.145
'[11:15:27.500]',-0.155
'[11:15:27.508]',-0.165
'[11:15:27.516]',-0.155
'[11:15:27.523]',-0.165
'[11:15:27.531]',-0.155
'[11:15:27.539]',-0.195
'[11:15:27.547]',-0.165
'[11:15:27.555]',-0.195
'[11:15:27.563]',-0.195
'[11:15:27.570]',-0.205
'[11:15:27.578]',-0.185
'[11:15:27.586]',-0.195
'[11:15:27.594]',-0.205
'[11:15:27.602]',-0.195
'[11:15:27.609]',-0.175
'[11:15:27.617]',-0.165
'[11:15:27.625]',-0.225
'[11:15:27.633]',-0.185
'[11:15:27.641]',-0.215
'[11:15:27.648]',-0.205
'[11:15:27.656]',-0.225
'[11:15:27.664]',-0.195
'[11:15:27.672]',-0.225
'[11:15:27.680]',-0.215
'[11:15:27.688]',-0.225
'[11:15:27.695]',-0.205
'[11:15:27.703]',-0.245
'[11:15:27.711]',-0.215
'[11:15:27.719]',-0.225
'[11:15:27.727]',-0.255
'[11:15:27.734]',-0.205
'[11:15:27.742]',-0.215
'[11:15:27.750]',-0.205
'[11:15:27.758]',-0.215
'[11:15:27.766]',-0.245
'[11:15:27.773]',-0.255
'[11:15:27.781]',-0.225
'[11:15:27.789]',-0.255
'[11:15:27.797]',-0.245
'[11:15:27.805]',-0.245
'[11:15:27.813]',-0.275
'[11:15:27.820]',-0.255
'[11:15:27.828]',-0.285
'[11:15:27.836]',-0.255
'[11:15:27.844]',-0.265
'[11:15:27.852]',-0.245
'[11:15:27.859]',-0.245
'[11:15:27.867]',-0.245
'[11:15:27.875]',-0.225
'[11:15:27.883]',-0.175
'[11:15:27.891]',-0.155
'[11:15:27.898]',-0.165
'[11:15:27.906]',-0.125
'[11:15:27.914]',-0.115
'[11:15:27.922]',-0.135
'[11:15:27.930]',-0.265
'[11:15:27.938]',-0.235
'[11:15:27.945]',-0.265
'[11:15:27.953]',-0.325
'[11:15:27.961]',-0.365
'[11:15:27.969]',-0.345
'[11:15:27.977]',-0.355
'[11:15:27.984]',-0.315
'[11:15:27.992]',-0.315
'[11:15:28.000]',-0.335
'[11:15:28.008]',-0.265
'[11:15:28.016]',-0.115
'[11:15:28.023]',0.285
'[11:15:28.031]',0.665
'[11:15:28.039]',0.545
'[11:15:28.047]',-0.555
'[11:15:28.055]',-1145
'[11:15:28.063]',-1145
'[11:15:28.070]',-0.855
'[11:15:28.078]',-0.515
'[11:15:28.086]',-0.335
'[11:15:28.094]',-0.275
'[11:15:28.102]',-0.265
'[11:15:28.109]',-0.235
'[11:15:28.117]',-0.235
'[11:15:28.125]',-0.225
'[11:15:28.133]',-0.225
'[11:15:28.141]',-0.215
'[11:15:28.148]',-0.195
'[11:15:28.156]',-0.175
'[11:15:28.164]',-0.175
'[11:15:28.172]',-0.125
'[11:15:28.180]',-0.145
'[11:15:28.188]',-0.115
'[11:15:28.195]',-0.105
'[11:15:28.203]',-0.105
'[11:15:28.211]',-0.085
'[11:15:28.219]',-0.045
'[11:15:28.227]',-0.025
'[11:15:28.234]',0.005
'[11:15:28.242]',0.025
'[11:15:28.250]',0.055
'[11:15:28.258]',0.095
'[11:15:28.266]',0.125
'[11:15:28.273]',0.155
'[11:15:28.281]',0.195
'[11:15:28.289]',0.205
'[11:15:28.297]',0.215
'[11:15:28.305]',0.225
'[11:15:28.313]',0.195
'[11:15:28.320]',0.135
'[11:15:28.328]',0.015
'[11:15:28.336]',-0.045
'[11:15:28.344]',-0.115
'[11:15:28.352]',-0.185
'[11:15:28.359]',-0.215
'[11:15:28.367]',-0.245
'[11:15:28.375]',-0.265
'[11:15:28.383]',-0.295
'[11:15:28.391]',-0.325
'[11:15:28.398]',-0.315
'[11:15:28.406]',-0.315
'[11:15:28.414]',-0.325
'[11:15:28.422]',-0.315
'[11:15:28.430]',-0.315
'[11:15:28.438]',-0.305
'[11:15:28.445]',-0.315
'[11:15:28.453]',-0.325
'[11:15:28.461]',-0.325
'[11:15:28.469]',-0.295
'[11:15:28.477]',-0.305
'[11:15:28.484]',-0.265
'[11:15:28.492]',-0.285
'[11:15:28.500]',-0.275
'[11:15:28.508]',-0.275
'[11:15:28.516]',-0.275
'[11:15:28.523]',-0.275
'[11:15:28.531]',-0.275
'[11:15:28.539]',-0.285
'[11:15:28.547]',-0.255
'[11:15:28.555]',-0.265
'[11:15:28.563]',-0.285
'[11:15:28.570]',-0.275
'[11:15:28.578]',-0.295
'[11:15:28.586]',-0.295
'[11:15:28.594]',-0.295
'[11:15:28.602]',-0.305
'[11:15:28.609]',-0.285
'[11:15:28.617]',-0.285
'[11:15:28.625]',-0.295
'[11:15:28.633]',-0.285
'[11:15:28.641]',-0.315
'[11:15:28.648]',-0.295
'[11:15:28.656]',-0.295
'[11:15:28.664]',-0.285
'[11:15:28.672]',-0.275
'[11:15:28.680]',-0.285
'[11:15:28.688]',-0.295
'[11:15:28.695]',-0.295
'[11:15:28.703]',-0.295
'[11:15:28.711]',-0.305
'[11:15:28.719]',-0.275
'[11:15:28.727]',-0.265
'[11:15:28.734]',-0.215
'[11:15:28.742]',-0.185
'[11:15:28.750]',-0.165
'[11:15:28.758]',-0.155
'[11:15:28.766]',-0.115
'[11:15:28.773]',-0.125
'[11:15:28.781]',-0.175
'[11:15:28.789]',-0.245
'[11:15:28.797]',-0.235
'[11:15:28.805]',-0.245
'[11:15:28.813]',-0.295
'[11:15:28.820]',-0.335
'[11:15:28.828]',-0.345
'[11:15:28.836]',-0.315
'[11:15:28.844]',-0.295
'[11:15:28.852]',-0.305
'[11:15:28.859]',-0.275
'[11:15:28.867]',-0.145
'[11:15:28.875]',0.105
'[11:15:28.883]',0.455
'[11:15:28.891]',0.825
'[11:15:28.898]',0.375
'[11:15:28.906]',-0.715
'[11:15:28.914]',-1205
'[11:15:28.922]',-1095
'[11:15:28.930]',-0.745
'[11:15:28.938]',-0.385
'[11:15:28.945]',-0.235
'[11:15:28.953]',-0.215
'[11:15:28.961]',-0.205
'[11:15:28.969]',-0.185
'[11:15:28.977]',-0.185
'[11:15:28.984]',-0.135
'[11:15:28.992]',-0.145
'[11:15:29.000]',-0.125
'[11:15:29.008]',-0.145
'[11:15:29.016]',-0.135
'[11:15:29.023]',-0.115
'[11:15:29.031]',-0.085
'[11:15:29.039]',-0.075
'[11:15:29.047]',-0.045
'[11:15:29.055]',-0.025
'[11:15:29.063]',-0.015
'[11:15:29.070]',-0.005
'[11:15:29.078]',-0.025
'[11:15:29.086]',0.035
'[11:15:29.094]',0.085
'[11:15:29.102]',0.115
'[11:15:29.109]',0.135
'[11:15:29.117]',0.185
'[11:15:29.125]',0.225
'[11:15:29.133]',0.265
'[11:15:29.141]',0.265
'[11:15:29.148]',0.305
'[11:15:29.156]',0.305
'[11:15:29.164]',0.305
'[11:15:29.172]',0.295
'[11:15:29.180]',0.235
'[11:15:29.188]',0.145
'[11:15:29.195]',0.055
'[11:15:29.203]',-0.035
'[11:15:29.211]',-0.105
'[11:15:29.219]',-0.145
'[11:15:29.227]',-0.175
'[11:15:29.234]',-0.155
'[11:15:29.242]',-0.195
'[11:15:29.250]',-0.185
'[11:15:29.258]',-0.215
'[11:15:29.266]',-0.215
'[11:15:29.273]',-0.225
'[11:15:29.281]',-0.205
'[11:15:29.289]',-0.195
'[11:15:29.297]',-0.185
'[11:15:29.305]',-0.185
'[11:15:29.313]',-0.185
'[11:15:29.320]',-0.185
'[11:15:29.328]',-0.185
'[11:15:29.336]',-0.165
'[11:15:29.344]',-0.165
'[11:15:29.352]',-0.165
'[11:15:29.359]',-0.145
'[11:15:29.367]',-0.135
'[11:15:29.375]',-0.135
'[11:15:29.383]',-0.135
'[11:15:29.391]',-0.155
'[11:15:29.398]',-0.135
'[11:15:29.406]',-0.125
'[11:15:29.414]',-0.145
'[11:15:29.422]',-0.115
'[11:15:29.430]',-0.125
'[11:15:29.438]',-0.125
'[11:15:29.445]',-0.135
'[11:15:29.453]',-0.145
'[11:15:29.461]',-0.145
'[11:15:29.469]',-0.135
'[11:15:29.477]',-0.135
'[11:15:29.484]',-0.145
'[11:15:29.492]',-0.135
'[11:15:29.500]',-0.135
'[11:15:29.508]',-0.145
'[11:15:29.516]',-0.165
'[11:15:29.523]',-0.145
'[11:15:29.531]',-0.145
'[11:15:29.539]',-0.155
'[11:15:29.547]',-0.135
'[11:15:29.555]',-0.155
'[11:15:29.563]',-0.135
'[11:15:29.570]',-0.125
'[11:15:29.578]',-0.145
'[11:15:29.586]',-0.085
'[11:15:29.594]',-0.045
'[11:15:29.602]',-0.065
'[11:15:29.609]',-0.015
'[11:15:29.617]',-0.015
'[11:15:29.625]',-0.085
'[11:15:29.633]',-0.125
'[11:15:29.641]',-0.165
'[11:15:29.648]',-0.155
'[11:15:29.656]',-0.205
'[11:15:29.664]',-0.235
'[11:15:29.672]',-0.225
'[11:15:29.680]',-0.215
'[11:15:29.688]',-0.215
'[11:15:29.695]',-0.205
'[11:15:29.703]',-0.225
'[11:15:29.711]',-0.095
'[11:15:29.719]',0.085
'[11:15:29.727]',0.435
'[11:15:29.734]',0.855
'[11:15:29.742]',0.495
'[11:15:29.750]',-0.585
'[11:15:29.758]',-1085
'[11:15:29.766]',-1015
'[11:15:29.773]',-0.665
'[11:15:29.781]',-0.335
'[11:15:29.789]',-0.215
'[11:15:29.797]',-0.135
'[11:15:29.805]',-0.115
'[11:15:29.813]',-0.115
'[11:15:29.820]',-0.125
'[11:15:29.828]',-0.105
'[11:15:29.836]',-0.085
'[11:15:29.844]',-0.065
'[11:15:29.852]',-0.075
'[11:15:29.859]',-0.035
'[11:15:29.867]',-0.015
'[11:15:29.875]',-0.025
'[11:15:29.883]',0.005
'[11:15:29.891]',-0.005
'[11:15:29.898]',0.025
'[11:15:29.906]',0.045
'[11:15:29.914]',0.075
'[11:15:29.922]',0.115
'[11:15:29.930]',0.135
'[11:15:29.938]',0.155
'[11:15:29.945]',0.195
'[11:15:29.953]',0.215
'[11:15:29.961]',0.265
'[11:15:29.969]',0.315
'[11:15:29.977]',0.335
'[11:15:29.984]',0.375
'[11:15:29.992]',0.385
'[11:15:30.000]',0.395
'[11:15:30.008]',0.375
'[11:15:30.016]',0.325
'[11:15:30.023]',0.275
'[11:15:30.031]',0.185
'[11:15:30.039]',0.095
'[11:15:30.047]',0.035
'[11:15:30.055]',-0.025
'[11:15:30.063]',-0.075
'[11:15:30.070]',-0.115
'[11:15:30.078]',-0.155
'[11:15:30.086]',-0.155
'[11:15:30.094]',-0.165
'[11:15:30.102]',-0.155
'[11:15:30.109]',-0.155
'[11:15:30.117]',-0.165
'[11:15:30.125]',-0.165
'[11:15:30.133]',-0.175
'[11:15:30.141]',-0.185
'[11:15:30.148]',-0.165
'[11:15:30.156]',-0.165
'[11:15:30.164]',-0.165
'[11:15:30.172]',-0.155
'[11:15:30.180]',-0.155
'[11:15:30.188]',-0.145
'[11:15:30.195]',-0.135
'[11:15:30.203]',-0.155
'[11:15:30.211]',-0.155
'[11:15:30.219]',-0.145
'[11:15:30.227]',-0.145
'[11:15:30.234]',-0.115
'[11:15:30.242]',-0.135
'[11:15:30.250]',-0.135
'[11:15:30.258]',-0.145
'[11:15:30.266]',-0.155
'[11:15:30.273]',-0.155
'[11:15:30.281]',-0.145
'[11:15:30.289]',-0.145
'[11:15:30.297]',-0.135
'[11:15:30.305]',-0.155
'[11:15:30.313]',-0.145
'[11:15:30.320]',-0.165
'[11:15:30.328]',-0.185
'[11:15:30.336]',-0.155
'[11:15:30.344]',-0.155
'[11:15:30.352]',-0.165
'[11:15:30.359]',-0.155
'[11:15:30.367]',-0.145
'[11:15:30.375]',-0.165
'[11:15:30.383]',-0.175
'[11:15:30.391]',-0.195
'[11:15:30.398]',-0.165
'[11:15:30.406]',-0.175
'[11:15:30.414]',-0.155
'[11:15:30.422]',-0.135
'[11:15:30.430]',-0.125
'[11:15:30.438]',-0.075
'[11:15:30.445]',-0.055
'[11:15:30.453]',-0.065
'[11:15:30.461]',-0.035
'[11:15:30.469]',-0.005
'[11:15:30.477]',-0.085
'[11:15:30.484]',-0.135
'[11:15:30.492]',-0.145
'[11:15:30.500]',-0.135
'[11:15:30.508]',-0.205
'[11:15:30.516]',-0.245
'[11:15:30.523]',-0.255
'[11:15:30.531]',-0.235
'[11:15:30.539]',-0.215
'[11:15:30.547]',-0.195
'[11:15:30.555]',-0.215
'[11:15:30.563]',-0.095
'[11:15:30.570]',0.105
'[11:15:30.578]',0.475
'[11:15:30.586]',0.835
'[11:15:30.594]',0.625
'[11:15:30.602]',-0.565
'[11:15:30.609]',-1205
'[11:15:30.617]',-1045
'[11:15:30.625]',-0.615
'[11:15:30.633]',-0.265
'[11:15:30.641]',-0.175
'[11:15:30.648]',-0.135
'[11:15:30.656]',-0.135
'[11:15:30.664]',-0.115
'[11:15:30.672]',-0.095
'[11:15:30.680]',-0.085
'[11:15:30.688]',-0.075
'[11:15:30.695]',-0.045
'[11:15:30.703]',-0.065
'[11:15:30.711]',-0.035
'[11:15:30.719]',-0.025
'[11:15:30.727]',-0.015
'[11:15:30.734]',0.035
'[11:15:30.742]',0.025
'[11:15:30.750]',0.045
'[11:15:30.758]',0.075
'[11:15:30.766]',0.075
'[11:15:30.773]',0.105
'[11:15:30.781]',0.145
'[11:15:30.789]',0.155
'[11:15:30.797]',0.235
'[11:15:30.805]',0.265
'[11:15:30.813]',0.295
'[11:15:30.820]',0.335
'[11:15:30.828]',0.355
'[11:15:30.836]',0.375
'[11:15:30.844]',0.405
'[11:15:30.852]',0.415
'[11:15:30.859]',0.415
'[11:15:30.867]',0.355
'[11:15:30.875]',0.265
'[11:15:30.883]',0.175
'[11:15:30.891]',0.065
'[11:15:30.898]',0.015
'[11:15:30.906]',-0.055
'[11:15:30.914]',-0.085
'[11:15:30.922]',-0.095
'[11:15:30.930]',-0.115
'[11:15:30.938]',-0.135
'[11:15:30.945]',-0.135
'[11:15:30.953]',-0.155
'[11:15:30.961]',-0.165
'[11:15:30.969]',-0.145
'[11:15:30.977]',-0.155
'[11:15:30.984]',-0.135
'[11:15:30.992]',-0.155
'[11:15:31.000]',-0.135
'[11:15:31.008]',-0.135
'[11:15:31.016]',-0.155
'[11:15:31.023]',-0.155
'[11:15:31.031]',-0.135
'[11:15:31.039]',-0.135
'[11:15:31.047]',-0.105
'[11:15:31.055]',-0.125
'[11:15:31.063]',-0.125
'[11:15:31.070]',-0.125
'[11:15:31.078]',-0.135
'[11:15:31.086]',-0.135
'[11:15:31.094]',-0.125
'[11:15:31.102]',-0.135
'[11:15:31.109]',-0.125
'[11:15:31.117]',-0.135
'[11:15:31.125]',-0.135
'[11:15:31.133]',-0.135
'[11:15:31.141]',-0.155
'[11:15:31.148]',-0.135
'[11:15:31.156]',-0.155
'[11:15:31.164]',-0.145
'[11:15:31.172]',-0.135
'[11:15:31.180]',-0.125
'[11:15:31.188]',-0.165
'[11:15:31.195]',-0.145
'[11:15:31.203]',-0.165
'[11:15:31.211]',-0.165
'[11:15:31.219]',-0.155
'[11:15:31.227]',-0.155
'[11:15:31.234]',-0.135
'[11:15:31.242]',-0.155
'[11:15:31.250]',-0.165
'[11:15:31.258]',-0.155
'[11:15:31.266]',-0.165
'[11:15:31.273]',-0.165
'[11:15:31.281]',-0.155
'[11:15:31.289]',-0.165
'[11:15:31.297]',-0.135
'[11:15:31.305]',-0.145
'[11:15:31.313]',-0.155
'[11:15:31.320]',-0.145
'[11:15:31.328]',-0.165
'[11:15:31.336]',-0.155
'[11:15:31.344]',-0.155
'[11:15:31.352]',-0.145
'[11:15:31.359]',-0.105
'[11:15:31.367]',-0.085
'[11:15:31.375]',-0.075
'[11:15:31.383]',-0.015
'[11:15:31.391]',-0.035
'[11:15:31.398]',-0.005
'[11:15:31.406]',0.025
'[11:15:31.414]',-0.005
'[11:15:31.422]',-0.065
'[11:15:31.430]',-0.085
'[11:15:31.438]',-0.095
'[11:15:31.445]',-0.125
'[11:15:31.453]',-0.185
'[11:15:31.461]',-0.175
'[11:15:31.469]',-0.185
'[11:15:31.477]',-0.155
'[11:15:31.484]',-0.125
'[11:15:31.492]',-0.145
'[11:15:31.500]',-0.065
'[11:15:31.508]',0.075
'[11:15:31.516]',0.475
'[11:15:31.523]',0.745
'[11:15:31.531]',0.905
'[11:15:31.539]',-0.135
'[11:15:31.547]',-1035
'[11:15:31.555]',-1105
'[11:15:31.563]',-0.695
'[11:15:31.570]',-0.315
'[11:15:31.578]',-0.135
'[11:15:31.586]',-0.075
'[11:15:31.594]',-0.065
'[11:15:31.602]',-0.055
'[11:15:31.609]',-0.035
'[11:15:31.617]',-0.035
'[11:15:31.625]',-0.025
'[11:15:31.633]',0.005
'[11:15:31.641]',-0.015
'[11:15:31.648]',0.025
'[11:15:31.656]',0.055
'[11:15:31.664]',0.055
'[11:15:31.672]',0.085
'[11:15:31.680]',0.085
'[11:15:31.688]',0.115
'[11:15:31.695]',0.125
'[11:15:31.703]',0.125
'[11:15:31.711]',0.165
'[11:15:31.719]',0.195
'[11:15:31.727]',0.225
'[11:15:31.734]',0.275
'[11:15:31.742]',0.285
'[11:15:31.750]',0.355
'[11:15:31.758]',0.365
'[11:15:31.766]',0.395
'[11:15:31.773]',0.425
'[11:15:31.781]',0.455
'[11:15:31.789]',0.465
'[11:15:31.797]',0.505
'[11:15:31.805]',0.445
'[11:15:31.813]',0.395
'[11:15:31.820]',0.295
'[11:15:31.828]',0.195
'[11:15:31.836]',0.085
'[11:15:31.844]',0.065
'[11:15:31.852]',0.005
'[11:15:31.859]',-0.005
'[11:15:31.867]',-0.095
'[11:15:31.875]',-0.025
'[11:15:31.883]',-0.155
'[11:15:31.891]',-0.135
'[11:15:31.898]',-0.005
'[11:15:31.906]',-0.035
'[11:15:31.914]',-0.085
'[11:15:31.922]',-0.045
'[11:15:31.930]',-0.045
'[11:15:31.938]',-0.075
'[11:15:31.945]',-0.085
'[11:15:31.953]',-0.075
'[11:15:31.961]',-0.065
'[11:15:31.969]',-0.095
'[11:15:31.977]',-0.075
'[11:15:31.984]',-0.035
'[11:15:31.992]',-0.035
'[11:15:32.000]',-0.045
'[11:15:32.008]',-0.035
'[11:15:32.016]',-0.065
'[11:15:32.023]',-0.055
'[11:15:32.031]',-0.035
'[11:15:32.039]',-0.045
'[11:15:32.047]',-0.035
'[11:15:32.055]',-0.025
'[11:15:32.063]',-0.055
'[11:15:32.070]',-0.065
'[11:15:32.078]',-0.085
'[11:15:32.086]',-0.055
'[11:15:32.094]',-0.035
'[11:15:32.102]',-0.075
'[11:15:32.109]',-0.035
'[11:15:32.117]',-0.035
'[11:15:32.125]',-0.045
'[11:15:32.133]',-0.065
'[11:15:32.141]',-0.095
'[11:15:32.148]',-0.065
'[11:15:32.156]',-0.065
'[11:15:32.164]',-0.065
'[11:15:32.172]',-0.055
'[11:15:32.180]',-0.045
'[11:15:32.188]',-0.055
'[11:15:32.195]',-0.065
'[11:15:32.203]',-0.065
'[11:15:32.211]',-0.065
'[11:15:32.219]',-0.065
'[11:15:32.227]',-0.075
'[11:15:32.234]',-0.085
'[11:15:32.242]',-0.045
'[11:15:32.250]',-0.075
'[11:15:32.258]',-0.045
'[11:15:32.266]',-0.065
'[11:15:32.273]',-0.075
'[11:15:32.281]',-0.065
'[11:15:32.289]',-0.095
'[11:15:32.297]',-0.065
'[11:15:32.305]',-0.035
'[11:15:32.313]',-0.065
'[11:15:32.320]',-0.055
'[11:15:32.328]',-0.055
'[11:15:32.336]',-0.115
'[11:15:32.344]',-0.065
'[11:15:32.352]',-0.055
'[11:15:32.359]',-0.035
'[11:15:32.367]',-0.065
'[11:15:32.375]',-0.045
'[11:15:32.383]',-0.055
'[11:15:32.391]',-0.065
'[11:15:32.398]',0.005
'[11:15:32.406]',0.015
'[11:15:32.414]',0.055
'[11:15:32.422]',0.065
'[11:15:32.430]',0.095
'[11:15:32.438]',0.125
'[11:15:32.445]',0.115
'[11:15:32.453]',-0.015
'[11:15:32.461]',-0.015
'[11:15:32.469]',-0.005
'[11:15:32.477]',-0.045
'[11:15:32.484]',-0.065
'[11:15:32.492]',-0.095
'[11:15:32.500]',-0.085
'[11:15:32.508]',-0.095
'[11:15:32.516]',-0.045
'[11:15:32.523]',-0.075
'[11:15:32.531]',0.025
'[11:15:32.539]',0.195
'[11:15:32.547]',0.585
'[11:15:32.555]',0.875
'[11:15:32.563]',0.895
'[11:15:32.570]',-0.305
'[11:15:32.578]',-1075
'[11:15:32.586]',-0.925
'[11:15:32.594]',-0.505
'[11:15:32.602]',-0.135
'[11:15:32.609]',-0.015
'[11:15:32.617]',0.015
'[11:15:32.625]',0.005
'[11:15:32.633]',0.005
'[11:15:32.641]',0.015
'[11:15:32.648]',0.045
'[11:15:32.656]',0.045
'[11:15:32.664]',0.065
'[11:15:32.672]',0.095
'[11:15:32.680]',0.105
'[11:15:32.688]',0.095
'[11:15:32.695]',0.115
'[11:15:32.703]',0.105
'[11:15:32.711]',0.135
'[11:15:32.719]',0.145
'[11:15:32.727]',0.175
'[11:15:32.734]',0.225
'[11:15:32.742]',0.225
'[11:15:32.750]',0.255
'[11:15:32.758]',0.305
'[11:15:32.766]',0.315
'[11:15:32.773]',0.355
'[11:15:32.781]',0.385
'[11:15:32.789]',0.425
'[11:15:32.797]',0.485
'[11:15:32.805]',0.495
'[11:15:32.813]',0.505
'[11:15:32.820]',0.525
'[11:15:32.828]',0.505
'[11:15:32.836]',0.495
'[11:15:32.844]',0.455
'[11:15:32.852]',0.365
'[11:15:32.859]',0.275
'[11:15:32.867]',0.185
'[11:15:32.875]',0.105
'[11:15:32.883]',0.065
'[11:15:32.891]',0.025
'[11:15:32.898]',0.015
'[11:15:32.906]',-0.015
'[11:15:32.914]',-0.005
'[11:15:32.922]',-0.005
'[11:15:32.930]',-0.015
'[11:15:32.938]',-0.035
'[11:15:32.945]',-0.035
'[11:15:32.953]',-0.045
'[11:15:32.961]',-0.035
'[11:15:32.969]',-0.035
'[11:15:32.977]',-0.015
'[11:15:32.984]',0.005
'[11:15:32.992]',-0.005
'[11:15:33.000]',-0.015
'[11:15:33.008]',-0.015
'[11:15:33.016]',-0.035
'[11:15:33.023]',-0.025
'[11:15:33.031]',0.015
'[11:15:33.039]',-0.005
'[11:15:33.047]',0.015
'[11:15:33.055]',-0.005
'[11:15:33.063]',-0.005
'[11:15:33.070]',-0.005
'[11:15:33.078]',-0.015
'[11:15:33.086]',-0.005
'[11:15:33.094]',-0.005
'[11:15:33.102]',-0.015
'[11:15:33.109]',-0.005
'[11:15:33.117]',-0.005
'[11:15:33.125]',-0.015
'[11:15:33.133]',-0.005
'[11:15:33.141]',-0.045
'[11:15:33.148]',-0.025
'[11:15:33.156]',-0.025
'[11:15:33.164]',-0.035
'[11:15:33.172]',-0.015
'[11:15:33.180]',-0.015
'[11:15:33.188]',-0.025
'[11:15:33.195]',-0.015
'[11:15:33.203]',-0.035
'[11:15:33.211]',-0.015
'[11:15:33.219]',-0.025
'[11:15:33.227]',-0.035
'[11:15:33.234]',-0.015
'[11:15:33.242]',0.005
'[11:15:33.250]',0.015
'[11:15:33.258]',-0.005
'[11:15:33.266]',-0.015
'[11:15:33.273]',-0.005
'[11:15:33.281]',0.015
'[11:15:33.289]',0.005
'[11:15:33.297]',0.035
'[11:15:33.305]',0.035
'[11:15:33.313]',0.035
'[11:15:33.320]',0.005
'[11:15:33.328]',-0.015
'[11:15:33.336]',0.015
'[11:15:33.344]',0.015
'[11:15:33.352]',0.035
'[11:15:33.359]',0.045
'[11:15:33.367]',0.055
'[11:15:33.375]',0.015
'[11:15:33.383]',0.015
'[11:15:33.391]',0.005
'[11:15:33.398]',0.025
'[11:15:33.406]',0.045
'[11:15:33.414]',0.055
'[11:15:33.422]',0.075
'[11:15:33.430]',0.065
'[11:15:33.438]',0.125
'[11:15:33.445]',0.175
'[11:15:33.453]',0.135
'[11:15:33.461]',0.225
'[11:15:33.469]',0.195
'[11:15:33.477]',0.105
'[11:15:33.484]',0.075
'[11:15:33.492]',0.115
'[11:15:33.500]',0.075
'[11:15:33.508]',0.005
'[11:15:33.516]',-0.005
'[11:15:33.523]',-0.015
'[11:15:33.531]',0.035
'[11:15:33.539]',0.005
'[11:15:33.547]',0.025
'[11:15:33.555]',0.155
'[11:15:33.563]',0.375
'[11:15:33.570]',0.715
'[11:15:33.578]',1075
'[11:15:33.586]',0.825
'[11:15:33.594]',-0.335
'[11:15:33.602]',-1015
'[11:15:33.609]',-0.795
'[11:15:33.617]',-0.435
'[11:15:33.625]',-0.075
'[11:15:33.633]',0.065
'[11:15:33.641]',0.095
'[11:15:33.648]',0.125
'[11:15:33.656]',0.095
'[11:15:33.664]',0.115
'[11:15:33.672]',0.125
'[11:15:33.680]',0.145
'[11:15:33.688]',0.135
'[11:15:33.695]',0.125
'[11:15:33.703]',0.145
'[11:15:33.711]',0.165
'[11:15:33.719]',0.185
'[11:15:33.727]',0.195
'[11:15:33.734]',0.235
'[11:15:33.742]',0.245
'[11:15:33.750]',0.265
'[11:15:33.758]',0.275
'[11:15:33.766]',0.275
'[11:15:33.773]',0.335
'[11:15:33.781]',0.375
'[11:15:33.789]',0.395
'[11:15:33.797]',0.435
'[11:15:33.805]',0.465
'[11:15:33.813]',0.525
'[11:15:33.820]',0.535
'[11:15:33.828]',0.585
'[11:15:33.836]',0.635
'[11:15:33.844]',0.605
'[11:15:33.852]',0.675
'[11:15:33.859]',0.675
'[11:15:33.867]',0.645
'[11:15:33.875]',0.535
'[11:15:33.883]',0.475
'[11:15:33.891]',0.335
'[11:15:33.898]',0.295
'[11:15:33.906]',0.205
'[11:15:33.914]',0.195
'[11:15:33.922]',0.215
'[11:15:33.930]',0.195
'[11:15:33.938]',0.135
'[11:15:33.945]',0.125
'[11:15:33.953]',0.115
'[11:15:33.961]',0.125
'[11:15:33.969]',0.155
'[11:15:33.977]',0.105
'[11:15:33.984]',0.175
'[11:15:33.992]',0.145
'[11:15:34.000]',0.155
'[11:15:34.008]',0.145
'[11:15:34.016]',0.145
'[11:15:34.023]',0.125
'[11:15:34.031]',0.205
'[11:15:34.039]',0.205
'[11:15:34.047]',0.205
'[11:15:34.055]',0.165
'[11:15:34.063]',0.245
'[11:15:34.070]',0.235
'[11:15:34.078]',0.205
'[11:15:34.086]',0.205
'[11:15:34.094]',0.235
'[11:15:34.102]',0.255
'[11:15:34.109]',0.245
'[11:15:34.117]',0.235
'[11:15:34.125]',0.245
'[11:15:34.133]',0.255
'[11:15:34.141]',0.245
'[11:15:34.148]',0.235
'[11:15:34.156]',0.215
'[11:15:34.164]',0.195
'[11:15:34.172]',0.205
'[11:15:34.180]',0.245
'[11:15:34.188]',0.215
'[11:15:34.195]',0.215
'[11:15:34.203]',0.185
'[11:15:34.211]',0.205
'[11:15:34.219]',0.195
'[11:15:34.227]',0.175
'[11:15:34.234]',0.225
'[11:15:34.242]',0.185
'[11:15:34.250]',0.165
'[11:15:34.258]',0.185
'[11:15:34.266]',0.205
'[11:15:34.273]',0.185
'[11:15:34.281]',0.185
'[11:15:34.289]',0.125
'[11:15:34.297]',0.195
'[11:15:34.305]',0.165
'[11:15:34.313]',0.175
'[11:15:34.320]',0.145
'[11:15:34.328]',0.165
'[11:15:34.336]',0.165
'[11:15:34.344]',0.255
'[11:15:34.352]',0.235
'[11:15:34.359]',0.255
'[11:15:34.367]',0.265
'[11:15:34.375]',0.265
'[11:15:34.383]',0.225
'[11:15:34.391]',0.115
'[11:15:34.398]',0.135
'[11:15:34.406]',0.125
'[11:15:34.414]',0.085
'[11:15:34.422]',-0.015
'[11:15:34.430]',0.005
'[11:15:34.438]',0.015
'[11:15:34.445]',-0.005
'[11:15:34.453]',-0.045
'[11:15:34.461]',0.025
'[11:15:34.469]',0.135
'[11:15:34.477]',0.445
'[11:15:34.484]',0.745
'[11:15:34.492]',1065
'[11:15:34.500]',0.815
'[11:15:34.508]',-0.355
'[11:15:34.516]',-1155
'[11:15:34.523]',-0.975
'[11:15:34.531]',-0.465
'[11:15:34.539]',-0.155
'[11:15:34.547]',-0.035
'[11:15:34.555]',-0.055
'[11:15:34.563]',-0.035
'[11:15:34.570]',-0.065
'[11:15:34.578]',-0.065
'[11:15:34.586]',-0.055
'[11:15:34.594]',-0.055
'[11:15:34.602]',-0.055
'[11:15:34.609]',-0.025
'[11:15:34.617]',-0.015
'[11:15:34.625]',-0.015
'[11:15:34.633]',-0.015
'[11:15:34.641]',-0.035
'[11:15:34.648]',0.005
'[11:15:34.656]',0.015
'[11:15:34.664]',0.025
'[11:15:34.672]',0.025
'[11:15:34.680]',0.055
'[11:15:34.688]',0.085
'[11:15:34.695]',0.105
'[11:15:34.703]',0.115
'[11:15:34.711]',0.185
'[11:15:34.719]',0.235
'[11:15:34.727]',0.265
'[11:15:34.734]',0.345
'[11:15:34.742]',0.325
'[11:15:34.750]',0.365
'[11:15:34.758]',0.345
'[11:15:34.766]',0.355
'[11:15:34.773]',0.335
'[11:15:34.781]',0.295
'[11:15:34.789]',0.155
'[11:15:34.797]',0.075
'[11:15:34.805]',-0.045
'[11:15:34.813]',-0.095
'[11:15:34.820]',-0.175
'[11:15:34.828]',-0.205
'[11:15:34.836]',-0.225
'[11:15:34.844]',-0.205
'[11:15:34.852]',-0.195
'[11:15:34.859]',-0.225
'[11:15:34.867]',-0.265
'[11:15:34.875]',-0.215
'[11:15:34.883]',-0.225
'[11:15:34.891]',-0.235
'[11:15:34.898]',-0.225
'[11:15:34.906]',-0.235
'[11:15:34.914]',-0.215
'[11:15:34.922]',-0.205
'[11:15:34.930]',-0.215
'[11:15:34.938]',-0.195
'[11:15:34.945]',-0.235
'[11:15:34.953]',-0.235
'[11:15:34.961]',-0.245
'[11:15:34.969]',-0.215
'[11:15:34.977]',-0.215
'[11:15:34.984]',-0.185
'[11:15:34.992]',-0.215
'[11:15:35.000]',-0.195
'[11:15:35.008]',-0.225
'[11:15:35.016]',-0.235
'[11:15:35.023]',-0.255
'[11:15:35.031]',-0.225
'[11:15:35.039]',-0.215
'[11:15:35.047]',-0.235
'[11:15:35.055]',-0.235
'[11:15:35.063]',-0.235
'[11:15:35.070]',-0.225
'[11:15:35.078]',-0.285
'[11:15:35.086]',-0.245
'[11:15:35.094]',-0.275
'[11:15:35.102]',-0.265
'[11:15:35.109]',-0.255
'[11:15:35.117]',-0.255
'[11:15:35.125]',-0.245
'[11:15:35.133]',-0.275
'[11:15:35.141]',-0.285
'[11:15:35.148]',-0.295
'[11:15:35.156]',-0.285
'[11:15:35.164]',-0.275
'[11:15:35.172]',-0.285
'[11:15:35.180]',-0.305
'[11:15:35.188]',-0.285
'[11:15:35.195]',-0.285
'[11:15:35.203]',-0.285
'[11:15:35.211]',-0.265
'[11:15:35.219]',-0.305
'[11:15:35.227]',-0.265
'[11:15:35.234]',-0.275
'[11:15:35.242]',-0.265
'[11:15:35.250]',-0.280
'[11:15:35.258]',-0.290
'[11:15:35.266]',-0.330
'[11:15:35.273]',-0.240
'[11:15:35.281]',-0.230
'[11:15:35.289]',-0.220
'[11:15:35.297]',-0.170
'[11:15:35.305]',-0.150
'[11:15:35.313]',-0.120
'[11:15:35.320]',-0.120
'[11:15:35.328]',-0.110
'[11:15:35.336]',-0.200
'[11:15:35.344]',-0.270
'[11:15:35.352]',-0.240
'[11:15:35.359]',-0.260
'[11:15:35.367]',-0.330
'[11:15:35.375]',-0.300
'[11:15:35.383]',-0.320
'[11:15:35.391]',-0.330
'[11:15:35.398]',-0.290
'[11:15:35.406]',-0.320
'[11:15:35.414]',-0.180
'[11:15:35.422]',0.020
'[11:15:35.430]',0.380
'[11:15:35.438]',0.820
'[11:15:35.445]',0.190
'[11:15:35.453]',-1110
'[11:15:35.461]',-1390
'[11:15:35.469]',-0.940
'[11:15:35.477]',-0.480
'[11:15:35.484]',-0.280
'[11:15:35.492]',-0.220
'[11:15:35.500]',-0.200
'[11:15:35.508]',-0.220
'[11:15:35.516]',-0.220
'[11:15:35.523]',-0.210
'[11:15:35.531]',-0.190
'[11:15:35.539]',-0.180
'[11:15:35.547]',-0.130
'[11:15:35.555]',-0.180
'[11:15:35.563]',-0.100
'[11:15:35.570]',-0.130
'[11:15:35.578]',-0.100
'[11:15:35.586]',-0.090
'[11:15:35.594]',-0.050
'[11:15:35.602]',-0.070
'[11:15:35.609]',-0.010
'[11:15:35.617]',0.000
'[11:15:35.625]',0.040
'[11:15:35.633]',0.060
'[11:15:35.641]',0.090
'[11:15:35.648]',0.160
'[11:15:35.656]',0.210
'[11:15:35.664]',0.245
'[11:15:35.672]',0.295
'[11:15:35.680]',0.295
'[11:15:35.688]',0.325
'[11:15:35.695]',0.265
'[11:15:35.703]',0.255
'[11:15:35.711]',0.195
'[11:15:35.719]',0.065
'[11:15:35.727]',0.015
'[11:15:35.734]',-0.085
'[11:15:35.742]',-0.145
'[11:15:35.750]',-0.195
'[11:15:35.758]',-0.225
'[11:15:35.766]',-0.275
'[11:15:35.773]',-0.245
'[11:15:35.781]',-0.265
'[11:15:35.789]',-0.285
'[11:15:35.797]',-0.265
'[11:15:35.805]',-0.305
'[11:15:35.813]',-0.295
'[11:15:35.820]',-0.315
'[11:15:35.828]',-0.295
'[11:15:35.836]',-0.265
'[11:15:35.844]',-0.255
'[11:15:35.852]',-0.285
'[11:15:35.859]',-0.265
'[11:15:35.867]',-0.265
'[11:15:35.875]',-0.265
'[11:15:35.883]',-0.245
'[11:15:35.891]',-0.265
'[11:15:35.898]',-0.255
'[11:15:35.906]',-0.275
'[11:15:35.914]',-0.265
'[11:15:35.922]',-0.245
'[11:15:35.930]',-0.235
'[11:15:35.938]',-0.245
'[11:15:35.945]',-0.245
'[11:15:35.953]',-0.325
'[11:15:35.961]',-0.275
'[11:15:35.969]',-0.245
'[11:15:35.977]',-0.255
'[11:15:35.984]',-0.245
'[11:15:35.992]',-0.275
'[11:15:36.000]',-0.255
'[11:15:36.008]',-0.295
'[11:15:36.016]',-0.295
'[11:15:36.023]',-0.305
'[11:15:36.031]',-0.295
'[11:15:36.039]',-0.295
'[11:15:36.047]',-0.265
'[11:15:36.055]',-0.305
'[11:15:36.063]',-0.295
'[11:15:36.070]',-0.315
'[11:15:36.078]',-0.325
'[11:15:36.086]',-0.305
'[11:15:36.094]',-0.295
'[11:15:36.102]',-0.285
'[11:15:36.109]',-0.295
'[11:15:36.117]',-0.295
'[11:15:36.125]',-0.295
'[11:15:36.133]',-0.295
'[11:15:36.141]',-0.325
'[11:15:36.148]',-0.305
'[11:15:36.156]',-0.305
'[11:15:36.164]',-0.295
'[11:15:36.172]',-0.295
'[11:15:36.180]',-0.285
'[11:15:36.188]',-0.275
'[11:15:36.195]',-0.305
'[11:15:36.203]',-0.305
'[11:15:36.211]',-0.295
'[11:15:36.219]',-0.275
'[11:15:36.227]',-0.275
'[11:15:36.234]',-0.245
'[11:15:36.242]',-0.235
'[11:15:36.250]',-0.215
'[11:15:36.258]',-0.175
'[11:15:36.266]',-0.175
'[11:15:36.273]',-0.145
'[11:15:36.281]',-0.075
'[11:15:36.289]',-0.155
'[11:15:36.297]',-0.205
'[11:15:36.305]',-0.255
'[11:15:36.313]',-0.195
'[11:15:36.320]',-0.265
'[11:15:36.328]',-0.325
'[11:15:36.336]',-0.335
'[11:15:36.344]',-0.325
'[11:15:36.352]',-0.305
'[11:15:36.359]',-0.275
'[11:15:36.367]',-0.305
'[11:15:36.375]',-0.205
'[11:15:36.383]',-0.025
'[11:15:36.391]',0.335
'[11:15:36.398]',0.715
'[11:15:36.406]',0.505
'[11:15:36.414]',-0.765
'[11:15:36.422]',-1345
'[11:15:36.430]',-1125
'[11:15:36.438]',-0.775
'[11:15:36.445]',-0.385
'[11:15:36.453]',-0.265
'[11:15:36.461]',-0.235
'[11:15:36.469]',-0.215
'[11:15:36.477]',-0.205
'[11:15:36.484]',-0.195
'[11:15:36.492]',-0.185
'[11:15:36.500]',-0.165
'[11:15:36.508]',-0.165
'[11:15:36.516]',-0.175
'[11:15:36.523]',-0.175
'[11:15:36.531]',-0.135
'[11:15:36.539]',-0.145
'[11:15:36.547]',-0.075
'[11:15:36.555]',-0.095
'[11:15:36.563]',-0.055
'[11:15:36.570]',-0.055
'[11:15:36.578]',-0.065
'[11:15:36.586]',-0.015
'[11:15:36.594]',0.005
'[11:15:36.602]',0.055
'[11:15:36.609]',0.095
'[11:15:36.617]',0.115
'[11:15:36.625]',0.155
'[11:15:36.633]',0.215
'[11:15:36.641]',0.205
'[11:15:36.648]',0.295
'[11:15:36.656]',0.315
'[11:15:36.664]',0.325
'[11:15:36.672]',0.345
'[11:15:36.680]',0.335
'[11:15:36.688]',0.255
'[11:15:36.695]',0.185
'[11:15:36.703]',0.075
'[11:15:36.711]',0.005
'[11:15:36.719]',-0.075
'[11:15:36.727]',-0.145
'[11:15:36.734]',-0.175
'[11:15:36.742]',-0.205
'[11:15:36.750]',-0.225
'[11:15:36.758]',-0.255
'[11:15:36.766]',-0.265
'[11:15:36.773]',-0.265
'[11:15:36.781]',-0.235
'[11:15:36.789]',-0.255
'[11:15:36.797]',-0.245
'[11:15:36.805]',-0.235
'[11:15:36.813]',-0.245
'[11:15:36.820]',-0.245
'[11:15:36.828]',-0.255
'[11:15:36.836]',-0.225
'[11:15:36.844]',-0.245
'[11:15:36.852]',-0.215
'[11:15:36.859]',-0.215
'[11:15:36.867]',-0.215
'[11:15:36.875]',-0.235
'[11:15:36.883]',-0.225
'[11:15:36.891]',-0.235
'[11:15:36.898]',-0.215
'[11:15:36.906]',-0.215
'[11:15:36.914]',-0.215
'[11:15:36.922]',-0.205
'[11:15:36.930]',-0.215
'[11:15:36.938]',-0.225
'[11:15:36.945]',-0.225
'[11:15:36.953]',-0.245
'[11:15:36.961]',-0.245
'[11:15:36.969]',-0.225
'[11:15:36.977]',-0.255
'[11:15:36.984]',-0.225
'[11:15:36.992]',-0.265
'[11:15:37.000]',-0.235
'[11:15:37.008]',-0.265
'[11:15:37.016]',-0.275
'[11:15:37.023]',-0.285
'[11:15:37.031]',-0.245
'[11:15:37.039]',-0.255
'[11:15:37.047]',-0.225
'[11:15:37.055]',-0.255
'[11:15:37.063]',-0.255
'[11:15:37.070]',-0.255
'[11:15:37.078]',-0.275
'[11:15:37.086]',-0.265
'[11:15:37.094]',-0.245
'[11:15:37.102]',-0.265
'[11:15:37.109]',-0.235
'[11:15:37.117]',-0.245
'[11:15:37.125]',-0.235
'[11:15:37.133]',-0.245
'[11:15:37.141]',-0.255
'[11:15:37.148]',-0.225
'[11:15:37.156]',-0.235
'[11:15:37.164]',-0.235
'[11:15:37.172]',-0.235
'[11:15:37.180]',-0.215
'[11:15:37.188]',-0.225
'[11:15:37.195]',-0.215
'[11:15:37.203]',-0.205
'[11:15:37.211]',-0.175
'[11:15:37.219]',-0.145
'[11:15:37.227]',-0.095
'[11:15:37.234]',-0.065
'[11:15:37.242]',-0.075
'[11:15:37.250]',-0.025
'[11:15:37.258]',-0.055
'[11:15:37.266]',-0.135
'[11:15:37.273]',-0.185
'[11:15:37.281]',-0.135
'[11:15:37.289]',-0.215
'[11:15:37.297]',-0.235
'[11:15:37.305]',-0.275
'[11:15:37.313]',-0.235
'[11:15:37.320]',-0.225
'[11:15:37.328]',-0.235
'[11:15:37.336]',-0.225
'[11:15:37.344]',-0.135
'[11:15:37.352]',-0.015
'[11:15:37.359]',0.415
'[11:15:37.367]',0.675
'[11:15:37.375]',0.765
'[11:15:37.383]',-0.275
'[11:15:37.391]',-1245
'[11:15:37.398]',-1185
'[11:15:37.406]',-0.775
'[11:15:37.414]',-0.345
'[11:15:37.422]',-0.165
'[11:15:37.430]',-0.135
'[11:15:37.438]',-0.145
'[11:15:37.445]',-0.115
'[11:15:37.453]',-0.135
'[11:15:37.461]',-0.105
'[11:15:37.469]',-0.095
'[11:15:37.477]',-0.105
'[11:15:37.484]',-0.045
'[11:15:37.492]',-0.045
'[11:15:37.500]',-0.025
'[11:15:37.508]',-0.035
'[11:15:37.516]',-0.015
'[11:15:37.523]',-0.005
'[11:15:37.531]',0.015
'[11:15:37.539]',0.025
'[11:15:37.547]',0.095
'[11:15:37.555]',0.085
'[11:15:37.563]',0.115
'[11:15:37.570]',0.125
'[11:15:37.578]',0.155
'[11:15:37.586]',0.205
'[11:15:37.594]',0.255
'[11:15:37.602]',0.305
'[11:15:37.609]',0.345
'[11:15:37.617]',0.395
'[11:15:37.625]',0.425
'[11:15:37.633]',0.435
'[11:15:37.641]',0.415
'[11:15:37.648]',0.425
'[11:15:37.656]',0.355
'[11:15:37.664]',0.295
'[11:15:37.672]',0.205
'[11:15:37.680]',0.095
'[11:15:37.688]',0.015
'[11:15:37.695]',-0.035
'[11:15:37.703]',-0.095
'[11:15:37.711]',-0.125
'[11:15:37.719]',-0.125
'[11:15:37.727]',-0.145
'[11:15:37.734]',-0.125
'[11:15:37.742]',-0.145
'[11:15:37.750]',-0.155
'[11:15:37.758]',-0.155
'[11:15:37.766]',-0.155
'[11:15:37.773]',-0.165
'[11:15:37.781]',-0.145
'[11:15:37.789]',-0.145
'[11:15:37.797]',-0.105
'[11:15:37.805]',-0.125
'[11:15:37.813]',-0.115
'[11:15:37.820]',-0.115
'[11:15:37.828]',-0.115
'[11:15:37.836]',-0.115
'[11:15:37.844]',-0.095
'[11:15:37.852]',-0.105
'[11:15:37.859]',-0.085
'[11:15:37.867]',-0.095
'[11:15:37.875]',-0.095
'[11:15:37.883]',-0.075
'[11:15:37.891]',-0.115
'[11:15:37.898]',-0.095
'[11:15:37.906]',-0.085
'[11:15:37.914]',-0.095
'[11:15:37.922]',-0.085
'[11:15:37.930]',-0.085
'[11:15:37.938]',-0.105
'[11:15:37.945]',-0.085
'[11:15:37.953]',-0.135
'[11:15:37.961]',-0.115
'[11:15:37.969]',-0.115
'[11:15:37.977]',-0.115
'[11:15:37.984]',-0.105
'[11:15:37.992]',-0.115
'[11:15:38.000]',-0.105
'[11:15:38.008]',-0.105
'[11:15:38.016]',-0.125
'[11:15:38.023]',-0.115
'[11:15:38.031]',-0.105
'[11:15:38.039]',-0.125
'[11:15:38.047]',-0.095
'[11:15:38.055]',-0.125
'[11:15:38.063]',-0.085
'[11:15:38.070]',-0.125
'[11:15:38.078]',-0.115
'[11:15:38.086]',-0.115
'[11:15:38.094]',-0.085
'[11:15:38.102]',-0.115
'[11:15:38.109]',-0.085
'[11:15:38.117]',-0.095
'[11:15:38.125]',-0.105
'[11:15:38.133]',-0.075
'[11:15:38.141]',-0.095
'[11:15:38.148]',-0.065
'[11:15:38.156]',-0.015
'[11:15:38.164]',0.025
'[11:15:38.172]',0.005
'[11:15:38.180]',0.065
'[11:15:38.188]',0.085
'[11:15:38.195]',0.025
'[11:15:38.203]',-0.065
'[11:15:38.211]',-0.065
'[11:15:38.219]',-0.055
'[11:15:38.227]',-0.105
'[11:15:38.234]',-0.125
'[11:15:38.242]',-0.145
'[11:15:38.250]',-0.135
'[11:15:38.258]',-0.125
'[11:15:38.266]',-0.125
'[11:15:38.273]',-0.145
'[11:15:38.281]',0.015
'[11:15:38.289]',0.195
'[11:15:38.297]',0.575
'[11:15:38.305]',0.905
'[11:15:38.313]',0.735
'[11:15:38.320]',-0.385
'[11:15:38.328]',-1075
'[11:15:38.336]',-1015
'[11:15:38.344]',-0.585
'[11:15:38.352]',-0.225
'[11:15:38.359]',-0.075
'[11:15:38.367]',-0.055
'[11:15:38.375]',-0.045
'[11:15:38.383]',-0.035
'[11:15:38.391]',-0.065
'[11:15:38.398]',-0.025
'[11:15:38.406]',-0.025
'[11:15:38.414]',0.005
'[11:15:38.422]',0.015
'[11:15:38.430]',0.035
'[11:15:38.438]',0.045
'[11:15:38.445]',0.065
'[11:15:38.453]',0.045
'[11:15:38.461]',0.075
'[11:15:38.469]',0.115
'[11:15:38.477]',0.115
'[11:15:38.484]',0.175
'[11:15:38.492]',0.165
'[11:15:38.500]',0.215
'[11:15:38.508]',0.215
'[11:15:38.516]',0.265
'[11:15:38.523]',0.285
'[11:15:38.531]',0.345
'[11:15:38.539]',0.375
'[11:15:38.547]',0.435
'[11:15:38.555]',0.445
'[11:15:38.563]',0.485
'[11:15:38.570]',0.485
'[11:15:38.578]',0.455
'[11:15:38.586]',0.435
'[11:15:38.594]',0.365
'[11:15:38.602]',0.255
'[11:15:38.609]',0.165
'[11:15:38.617]',0.055
'[11:15:38.625]',-0.015
'[11:15:38.633]',-0.055
'[11:15:38.641]',-0.115
'[11:15:38.648]',-0.115
'[11:15:38.656]',-0.145
'[11:15:38.664]',-0.145
'[11:15:38.672]',-0.145
'[11:15:38.680]',-0.145
'[11:15:38.688]',-0.165
'[11:15:38.695]',-0.175
'[11:15:38.703]',-0.195
'[11:15:38.711]',-0.195
'[11:15:38.719]',-0.175
'[11:15:38.727]',-0.165
'[11:15:38.734]',-0.155
'[11:15:38.742]',-0.185
'[11:15:38.750]',-0.165
'[11:15:38.758]',-0.165
'[11:15:38.766]',-0.165
'[11:15:38.773]',-0.175
'[11:15:38.781]',-0.145
'[11:15:38.789]',-0.155
'[11:15:38.797]',-0.125
'[11:15:38.805]',-0.155
'[11:15:38.813]',-0.145
'[11:15:38.820]',-0.145
'[11:15:38.828]',-0.175
'[11:15:38.836]',-0.175
'[11:15:38.844]',-0.165
'[11:15:38.852]',-0.155
'[11:15:38.859]',-0.145
'[11:15:38.867]',-0.145
'[11:15:38.875]',-0.175
'[11:15:38.883]',-0.145
'[11:15:38.891]',-0.195
'[11:15:38.898]',-0.165
'[11:15:38.906]',-0.185
'[11:15:38.914]',-0.165
'[11:15:38.922]',-0.175
'[11:15:38.930]',-0.175
'[11:15:38.938]',-0.175
'[11:15:38.945]',-0.185
'[11:15:38.953]',-0.185
'[11:15:38.961]',-0.185
'[11:15:38.969]',-0.175
'[11:15:38.977]',-0.185
'[11:15:38.984]',-0.145
'[11:15:38.992]',-0.165
'[11:15:39.000]',-0.155
'[11:15:39.008]',-0.175
'[11:15:39.016]',-0.185
'[11:15:39.023]',-0.175
'[11:15:39.031]',-0.155
'[11:15:39.039]',-0.185
'[11:15:39.047]',-0.155
'[11:15:39.055]',-0.135
'[11:15:39.063]',-0.115
'[11:15:39.070]',-0.105
'[11:15:39.078]',-0.095
'[11:15:39.086]',-0.035
'[11:15:39.094]',-0.035
'[11:15:39.102]',-0.015
'[11:15:39.109]',0.015
'[11:15:39.117]',-0.015
'[11:15:39.125]',-0.095
'[11:15:39.133]',-0.135
'[11:15:39.141]',-0.115
'[11:15:39.148]',-0.155
'[11:15:39.156]',-0.205
'[11:15:39.164]',-0.215
'[11:15:39.172]',-0.195
'[11:15:39.180]',-0.175
'[11:15:39.188]',-0.165
'[11:15:39.195]',-0.195
'[11:15:39.203]',-0.085
'[11:15:39.211]',0.065
'[11:15:39.219]',0.555
'[11:15:39.227]',0.865
'[11:15:39.234]',0.785
'[11:15:39.242]',-0.605
'[11:15:39.250]',-1355
'[11:15:39.258]',-1105
'[11:15:39.266]',-0.625
'[11:15:39.273]',-0.245
'[11:15:39.281]',-0.125
'[11:15:39.289]',-0.105
'[11:15:39.297]',-0.095
'[11:15:39.305]',-0.105
'[11:15:39.313]',-0.085
'[11:15:39.320]',-0.085
'[11:15:39.328]',-0.085
'[11:15:39.336]',-0.055
'[11:15:39.344]',-0.045
'[11:15:39.352]',-0.035
'[11:15:39.359]',-0.015
'[11:15:39.367]',0.005
'[11:15:39.375]',0.005
'[11:15:39.383]',0.025
'[11:15:39.391]',0.005
'[11:15:39.398]',0.045
'[11:15:39.406]',0.055
'[11:15:39.414]',0.095
'[11:15:39.422]',0.125
'[11:15:39.430]',0.175
'[11:15:39.438]',0.175
'[11:15:39.445]',0.245
'[11:15:39.453]',0.245
'[11:15:39.461]',0.325
'[11:15:39.469]',0.355
'[11:15:39.477]',0.385
'[11:15:39.484]',0.415
'[11:15:39.492]',0.415
'[11:15:39.500]',0.395
'[11:15:39.508]',0.325
'[11:15:39.516]',0.235
'[11:15:39.523]',0.135
'[11:15:39.531]',0.065
'[11:15:39.539]',-0.045
'[11:15:39.547]',-0.055
'[11:15:39.555]',-0.145
'[11:15:39.563]',-0.175
'[11:15:39.570]',-0.195
