Time,Ecg1
13:27:37.336,6029993.0
13:27:37.376,6030061.0
13:27:37.416,6029413.0
13:27:37.456,6029158.0
13:27:37.496,5963817.0
13:27:37.536,6029072.0
13:27:37.576,6029502.0
13:27:37.616,6029101.0
13:27:37.656,6029123.0
13:27:37.696,6029487.0
13:27:37.736,6029767.0
13:27:37.776,6035481.0
13:27:37.816,6047844.0
13:27:37.856,6028768.0
13:27:37.896,6027622.0
13:27:37.936,6026771.0
13:27:37.976,6024419.0
13:27:38.016,6021713.0
13:27:38.056,6021401.0
13:27:38.096,6023789.0
13:27:38.136,6026291.0
13:27:38.176,6027718.0
13:27:38.216,6027604.0
13:27:38.256,6028567.0
13:27:38.296,6028591.0
13:27:38.336,6029016.0
13:27:38.376,6028858.0
13:27:38.416,6028987.0
13:27:38.456,6029076.0
13:27:38.496,6029515.0
13:27:38.536,6027678.0
13:27:38.576,6028512.0
13:27:38.616,6029706.0
13:27:38.656,6030305.0
13:27:38.696,6029652.0
13:27:38.736,6029694.0
13:27:38.776,6029396.0
13:27:38.816,6029449.0
13:27:38.856,6030426.0
13:27:38.896,6029648.0
13:27:38.936,6029123.0
13:27:38.976,6033447.0
13:27:39.016,6040665.0
13:27:39.056,6023950.0
13:27:39.096,6027427.0
13:27:39.136,6027584.0
13:27:39.176,6027219.0
13:27:39.216,6026547.0
13:27:39.256,6026986.0
13:27:39.296,6028630.0
13:27:39.336,6029260.0
13:27:39.376,6029343.0
13:27:39.416,6029631.0
13:27:39.456,6029529.0
13:27:39.496,6029248.0
13:27:39.536,6029271.0
13:27:39.576,6029391.0
13:27:39.616,6029145.0
13:27:39.656,6028830.0
13:27:39.696,6029031.0
13:27:39.736,6029408.0
13:27:39.776,6035839.0
13:27:39.816,6027696.0
13:27:39.856,6029320.0
13:27:39.896,6029943.0
13:27:39.936,6029484.0
13:27:39.976,6029094.0
13:27:40.016,6028596.0
13:27:40.056,6029367.0
13:27:40.096,6030124.0
13:27:40.136,6029006.0
13:27:40.176,6030013.0
13:27:40.216,6031061.0
13:27:40.256,6035120.0
13:27:40.296,6048982.0
13:27:40.336,6028829.0
13:27:40.376,6026905.0
13:27:40.416,6026239.0
13:27:40.456,6024122.0
13:27:40.496,6021484.0
13:27:40.536,6021367.0
13:27:40.576,6023926.0
13:27:40.616,6026694.0
13:27:40.656,6028353.0
13:27:40.696,6028519.0
13:27:40.736,6028571.0
13:27:40.776,6029170.0
13:27:40.816,6029479.0
13:27:40.856,6029199.0
13:27:40.896,6029250.0
13:27:40.936,6029401.0
13:27:40.976,6029522.0
13:27:41.016,6029350.0
13:27:41.056,6029635.0
13:27:41.096,6036244.0
13:27:41.136,6028028.0
13:27:41.176,6029567.0
13:27:41.216,6030215.0
13:27:41.256,6029513.0
13:27:41.296,6029151.0
13:27:40.534,6028973.0
13:27:40.574,6041544.0
13:27:40.614,6023357.0
13:27:40.654,6028104.0
13:27:40.694,6027690.0
13:27:40.734,6027482.0
13:27:40.774,6026844.0
13:27:40.814,6027618.0
13:27:40.854,6028843.0
13:27:40.894,6029218.0
13:27:40.934,6029730.0
13:27:40.974,6029614.0
13:27:41.014,6029317.0
13:27:41.054,6029176.0
13:27:41.094,6029400.0
13:27:41.134,6029310.0
13:27:41.174,6029424.0
13:27:41.214,6029337.0
13:27:41.254,6029502.0
13:27:41.294,6029177.0
13:27:41.334,6029432.0
13:27:41.374,6037076.0
13:27:41.414,6028591.0
13:27:41.454,6029444.0
13:27:41.494,6030220.0
13:27:41.534,6029498.0
13:27:41.574,6029502.0
13:27:41.614,6028832.0
13:27:41.654,6028623.0
13:27:41.694,6029945.0
13:27:41.734,6029969.0
13:27:41.774,6030101.0
13:27:41.814,6030851.0
13:27:41.854,6036045.0
13:27:41.894,6049226.0
13:27:41.934,6028681.0
13:27:41.974,6027323.0
13:27:42.014,6025847.0
13:27:42.054,6024175.0
13:27:42.094,6021334.0
13:27:42.134,6020406.0
13:27:42.174,6023697.0
13:27:42.214,6026894.0
13:27:42.254,6027764.0
13:27:42.294,6028619.0
13:27:42.334,6029047.0
13:27:42.374,6028839.0
13:27:42.414,6029361.0
13:27:42.454,6029555.0
13:27:42.494,6029114.0
13:27:42.534,6029185.0
13:27:42.574,6029465.0
13:27:42.614,6029542.0
13:27:42.654,6029854.0
13:27:42.694,6029680.0
13:27:42.734,6034219.0
13:27:42.774,6026878.0
13:27:42.814,6030236.0
13:27:42.854,6030172.0
13:27:42.894,6030355.0
13:27:42.934,6029835.0
13:27:42.974,6030136.0
13:27:43.014,6029077.0
13:27:43.054,6029766.0
13:27:43.094,6030255.0
13:27:43.134,6029786.0
13:27:43.174,6030990.0
13:27:43.214,6046635.0
13:27:43.254,6028661.0
13:27:43.294,6029435.0
13:27:43.334,6029380.0
13:27:43.374,6028725.0
13:27:43.414,6028000.0
13:27:43.454,6028317.0
13:27:43.494,6028486.0
13:27:43.534,6029458.0
13:27:43.574,6030002.0
13:27:43.614,6029998.0
13:27:43.654,6029447.0
13:27:43.694,6029602.0
13:27:43.734,6030208.0
13:27:43.774,6029578.0
13:27:43.814,6029704.0
13:27:43.854,6030128.0
13:27:43.894,6029091.0
13:27:43.934,6030321.0
13:27:43.974,6030763.0
13:27:44.014,6030235.0
13:27:44.054,6030031.0
13:27:44.094,6029909.0
13:27:44.134,6029896.0
13:27:44.174,6030352.0
13:27:44.214,6029681.0
13:27:44.254,6030165.0
13:27:44.294,6030518.0
13:27:44.334,6029723.0
13:27:44.374,6029856.0
13:27:44.414,6029591.0
13:27:44.454,6029806.0
13:27:44.494,6029279.0
13:27:45.061,6029159.0
13:27:45.101,6030023.0
13:27:45.141,6030239.0
13:27:45.181,6029996.0
13:27:45.221,6030272.0
13:27:45.261,6030016.0
13:27:45.301,6029694.0
13:27:45.341,6029612.0
13:27:45.381,6029321.0
13:27:45.421,6029544.0
13:27:45.461,6031517.0
13:27:45.501,6024927.0
13:27:45.541,6029460.0
13:27:45.581,6030129.0
13:27:45.621,6031011.0
13:27:45.661,6030386.0
13:27:45.701,6029986.0
13:27:45.741,6030086.0
13:27:45.781,6030187.0
13:27:45.821,6030508.0
13:27:45.861,6029983.0
13:27:45.901,6029996.0
13:27:45.941,6030272.0
13:27:45.981,6030008.0
13:27:46.021,6029847.0
13:27:46.061,6029794.0
13:27:46.101,6030372.0
13:27:46.141,6026403.0
13:27:46.181,6028847.0
13:27:46.221,6030647.0
13:27:46.261,6031020.0
13:27:46.301,6031250.0
13:27:46.341,6030866.0
13:27:46.381,6030845.0
13:27:46.421,6030895.0
13:27:46.461,6031117.0
13:27:46.501,6030341.0
13:27:46.541,6030248.0
13:27:46.581,6030571.0
13:27:46.621,6030427.0
13:27:46.661,6030691.0
13:27:46.701,6028743.0
13:27:46.741,6029632.0
13:27:46.781,6031547.0
13:27:46.821,6031945.0
13:27:46.861,6031899.0
13:27:46.901,6031407.0
13:27:46.941,6031496.0
13:27:46.981,6031427.0
13:27:47.021,6030854.0
13:27:47.061,6030379.0
13:27:47.101,6030301.0
13:27:47.141,6030593.0
13:27:47.181,6030443.0
13:27:47.221,6030793.0
13:27:47.261,6030501.0
13:27:47.301,6030500.0
13:27:47.341,6032917.0
13:27:47.381,6024505.0
13:27:47.421,6030812.0
13:27:47.461,6031542.0
13:27:47.501,6031746.0
13:27:47.541,6031233.0
13:27:47.581,6031222.0
13:27:47.621,6031179.0
13:27:47.661,6031109.0
13:27:47.701,6030701.0
13:27:47.741,6030399.0
13:27:47.781,6030491.0
13:27:47.821,6030593.0
13:27:47.861,6030511.0
13:27:47.901,6030523.0
13:27:47.941,6030436.0
13:27:47.981,6028723.0
13:27:48.021,6029886.0
13:27:48.061,6031490.0
13:27:48.101,6031461.0
13:27:48.141,6031443.0
13:27:48.181,6031552.0
13:27:48.221,6031275.0
13:27:48.261,6031136.0
13:27:48.301,6030989.0
13:27:48.341,6030815.0
13:27:48.381,6030152.0
13:27:48.421,6030466.0
13:27:48.461,6030641.0
13:27:48.501,6030424.0
13:27:48.541,6030320.0
13:27:48.581,6030326.0
13:27:48.621,6030643.0
13:27:48.661,6030980.0
13:27:48.701,6027963.0
13:27:48.741,6029872.0
13:27:48.781,6031490.0
13:27:48.821,6031606.0
13:27:48.861,6031235.0
13:27:48.901,6030904.0
13:27:48.941,6031064.0
13:27:48.981,6030312.0
13:27:49.021,6031175.0
13:27:46.845,6030997.0
13:27:46.885,6030556.0
13:27:46.925,6030902.0
13:27:46.965,6030875.0
13:27:47.005,6031136.0
13:27:47.045,6030481.0
13:27:47.085,6030743.0
13:27:47.125,6030377.0
13:27:47.165,6030198.0
13:27:47.205,6029629.0
13:27:47.245,6029384.0
13:27:47.285,6029487.0
13:27:47.325,6029312.0
13:27:47.365,6029616.0
13:27:47.405,6028793.0
13:27:47.445,6029042.0
13:27:47.485,6029317.0
13:27:47.525,6031772.0
13:27:47.565,6023241.0
13:27:47.605,6029271.0
13:27:47.645,6030443.0
13:27:47.685,6029811.0
13:27:47.725,6029377.0
13:27:47.765,6029755.0
13:27:47.805,6029589.0
13:27:47.845,6029424.0
13:27:47.885,6029531.0
13:27:47.925,6029157.0
13:27:47.965,6029191.0
13:27:48.005,6029581.0
13:27:48.045,6039084.0
13:27:48.085,6026950.0
13:27:48.125,6023904.0
13:27:48.165,6028749.0
13:27:48.205,6029154.0
13:27:48.245,6029231.0
13:27:48.285,6029467.0
13:27:48.325,6030574.0
13:27:48.365,6030873.0
13:27:48.405,6030552.0
13:27:48.445,6029849.0
13:27:48.485,6029584.0
13:27:48.525,6029965.0
13:27:48.565,6030068.0
13:27:48.605,6030257.0
13:27:48.645,6029894.0
13:27:48.685,6030337.0
13:27:48.725,6030442.0
13:27:48.765,6030139.0
13:27:48.805,6030209.0
13:27:48.845,6030417.0
13:27:48.885,6030155.0
13:27:48.925,6030173.0
13:27:48.965,6031502.0
13:27:49.005,6023924.0
13:27:49.045,6029827.0
13:27:49.085,6031152.0
13:27:49.125,6031604.0
13:27:49.165,6030494.0
13:27:49.205,6030183.0
13:27:49.245,6030425.0
13:27:49.285,6030683.0
13:27:49.325,6031325.0
13:27:49.365,6030649.0
13:27:49.405,6031088.0
13:27:49.445,6037046.0
13:27:49.485,6043929.0
13:27:49.525,6030031.0
13:27:49.565,6029633.0
13:27:49.605,6029407.0
13:27:49.645,6028702.0
13:27:49.685,6027759.0
13:27:49.725,6028185.0
13:27:49.765,6030680.0
13:27:49.805,6043965.0
13:27:49.845,6027644.0
13:27:49.885,6030419.0
13:27:49.925,6030147.0
13:27:49.965,6029854.0
13:27:50.005,6029567.0
13:27:50.045,6029615.0
13:27:50.085,6030888.0
13:27:50.125,6031488.0
13:27:50.165,6030490.0
13:27:50.205,6029876.0
13:27:50.245,6029482.0
13:27:50.285,6029903.0
13:27:50.325,6031934.0
13:27:50.365,6032643.0
13:27:50.405,6032434.0
13:27:50.445,6032542.0
13:27:50.485,6032938.0
13:27:50.525,6032214.0
13:27:50.565,6031360.0
13:27:50.605,6031167.0
13:27:50.645,6031329.0
13:27:50.685,6031044.0
13:27:50.725,6031085.0
13:27:50.765,6031093.0
13:27:50.805,6031004.0
13:27:51.172,6030911.0
13:27:51.212,6032414.0
13:27:51.252,6031268.0
13:27:51.292,6031794.0
13:27:51.332,6031622.0
13:27:51.372,6032331.0
13:27:51.412,6032114.0
13:27:51.452,6032178.0
13:27:51.492,6033655.0
13:27:51.532,6039487.0
13:27:51.572,6039170.0
13:27:51.612,6030661.0
13:27:51.652,6031250.0
13:27:51.692,6030933.0
13:27:51.732,6030609.0
13:27:51.772,6030592.0
13:27:51.812,6031061.0
13:27:51.852,6031700.0
13:27:51.892,6032175.0
13:27:51.932,6032236.0
13:27:51.972,6032044.0
13:27:52.012,6032021.0
13:27:52.052,6032189.0
13:27:52.092,6031971.0
13:27:52.132,6032222.0
13:27:52.172,6032181.0
13:27:52.212,6031923.0
13:27:52.252,6032052.0
13:27:52.292,6031733.0
13:27:52.332,6032938.0
13:27:52.372,6025301.0
13:27:52.412,6031631.0
13:27:52.452,6032328.0
13:27:52.492,6032257.0
13:27:52.532,6031503.0
13:27:52.572,6030928.0
13:27:52.612,6030796.0
13:27:52.652,6031569.0
13:27:52.692,6031768.0
13:27:52.732,6031874.0
13:27:52.772,6032606.0
13:27:52.812,6038162.0
13:27:52.852,6040948.0
13:27:52.892,6032582.0
13:27:52.932,6030359.0
13:27:52.972,6030345.0
13:27:53.012,6029970.0
13:27:53.052,6029177.0
13:27:53.092,6029692.0
13:27:53.132,6030631.0
13:27:53.172,6031635.0
13:27:53.212,6031994.0
13:27:53.252,6032046.0
13:27:53.292,6031450.0
13:27:53.332,6031907.0
13:27:53.372,6031963.0
13:27:53.412,6032070.0
13:27:53.452,6032029.0
13:27:53.492,6031936.0
13:27:53.532,6031691.0
13:27:53.572,6031938.0
13:27:53.612,6031905.0
13:27:53.652,6031649.0
13:27:53.692,6037392.0
13:27:53.732,6030380.0
13:27:53.772,6032082.0
13:27:53.812,6032517.0
13:27:53.852,6031887.0
13:27:53.892,6031474.0
13:27:53.932,6030865.0
13:27:53.972,6030828.0
13:27:54.012,6032096.0
13:27:54.052,6032393.0
13:27:54.092,6032201.0
13:27:54.132,6034130.0
13:27:54.172,6043973.0
13:27:54.212,6031895.0
13:27:54.252,6031327.0
13:27:54.292,6030420.0
13:27:54.332,6030337.0
13:27:54.372,6029665.0
13:27:54.412,6029646.0
13:27:54.452,6030465.0
13:27:54.492,6031382.0
13:27:54.532,6032083.0
13:27:54.572,6032256.0
13:27:54.612,6031649.0
13:27:54.652,6031726.0
13:27:54.692,6032063.0
13:27:54.732,6031723.0
13:27:54.772,6033752.0
13:27:54.812,6024723.0
13:27:54.852,6031989.0
13:27:54.892,6032720.0
13:27:54.932,6033601.0
13:27:54.972,6032928.0
13:27:55.012,6032103.0
13:27:55.052,6031959.0
13:27:55.092,6032863.0
13:27:55.132,6032476.0
13:27:56.181,6031981.0
13:27:56.221,6033596.0
13:27:56.261,6033422.0
13:27:56.301,6032851.0
13:27:56.341,6032524.0
13:27:56.381,6032189.0
13:27:56.421,6032291.0
13:27:56.461,6032592.0
13:27:56.501,6032266.0
13:27:56.541,6032032.0
13:27:56.581,6032422.0
13:27:56.621,6033307.0
13:27:56.661,6027268.0
13:27:56.701,6031672.0
13:27:56.741,6032752.0
13:27:56.781,6033352.0
13:27:56.821,6032309.0
13:27:56.861,6032091.0
13:27:56.901,6031738.0
13:27:56.941,6032505.0
13:27:56.981,6032813.0
13:27:57.021,6032382.0
13:27:57.061,6032939.0
13:27:57.101,6036072.0
13:27:57.141,6043650.0
13:27:57.181,6027022.0
13:27:57.221,6031573.0
13:27:57.261,6031482.0
13:27:57.301,6030991.0
13:27:57.341,6031016.0
13:27:57.381,6031343.0
13:27:57.421,6031948.0
13:27:57.461,6032988.0
13:27:57.501,6033619.0
13:27:57.541,6033354.0
13:27:57.581,6033259.0
13:27:57.621,6033572.0
13:27:57.661,6033516.0
13:27:57.701,6033293.0
13:27:57.741,6033578.0
13:27:57.781,6034049.0
13:27:57.821,6033825.0
13:27:57.861,6033617.0
13:27:57.901,6033637.0
13:27:57.941,6033888.0
13:27:57.981,6034336.0
13:27:58.021,6031164.0
13:27:58.061,6033197.0
13:27:58.101,6034055.0
13:27:58.141,6034600.0
13:27:58.181,6033238.0
13:27:58.221,6033469.0
13:27:58.261,6033076.0
13:27:58.301,6033529.0
13:27:58.341,6034193.0
13:27:58.381,6033470.0
13:27:58.421,6033431.0
13:27:58.461,6036662.0
13:27:58.501,6051438.0
13:27:58.541,6029033.0
13:27:58.581,6031293.0
13:27:58.621,6030491.0
13:27:58.661,6029756.0
13:27:58.701,6028022.0
13:27:58.741,6028231.0
13:27:58.781,6030038.0
13:27:58.821,6031735.0
13:27:58.861,6032356.0
13:27:58.901,6032362.0
13:27:58.941,6032605.0
13:27:58.981,6032711.0
13:27:59.021,6032775.0
13:27:59.061,6033225.0
13:27:59.101,6030083.0
13:27:59.141,6031945.0
13:27:59.181,6033570.0
13:27:59.221,6033772.0
13:27:59.261,6033378.0
13:27:59.301,6033470.0
13:27:59.341,6033350.0
13:27:59.381,6033697.0
13:27:59.421,6033265.0
13:27:59.461,6032635.0
13:27:59.501,6032920.0
13:27:59.541,6033832.0
13:27:59.581,6033209.0
13:27:59.621,6033227.0
13:27:59.661,6033185.0
13:27:59.701,6033586.0
13:27:59.741,6033675.0
13:27:59.781,6037796.0
13:27:59.821,6030924.0
13:27:59.861,6034533.0
13:27:59.901,6034800.0
13:27:59.941,6034503.0
13:27:59.981,6033891.0
13:28:00.021,6033872.0
13:28:00.061,6033661.0
13:28:00.101,6033600.0
13:28:00.141,6033174.0
13:28:00.346,6033367.0
13:28:00.386,6033488.0
13:28:00.426,6033156.0
13:28:00.466,6033068.0
13:28:00.506,6033014.0
13:28:00.546,6033075.0
13:28:00.586,6035511.0
13:28:00.626,6027640.0
13:28:00.666,6033059.0
13:28:00.706,6034112.0
13:28:00.746,6034138.0
13:28:00.786,6033698.0
13:28:00.826,6033209.0
13:28:00.866,6033300.0
13:28:00.906,6033345.0
13:28:00.946,6033945.0
13:28:00.986,6033527.0
13:28:01.026,6033751.0
13:28:01.066,6033768.0
13:28:01.106,6033106.0
13:28:01.146,6033355.0
13:28:01.186,6033104.0
13:28:01.226,6032824.0
13:28:01.266,6032877.0
13:28:01.306,6033213.0
13:28:01.346,6040232.0
13:28:01.386,6032002.0
13:28:01.426,6033855.0
13:28:01.466,6034071.0
13:28:01.506,6034123.0
13:28:01.546,6033732.0
13:28:01.586,6034017.0
13:28:01.626,6033593.0
13:28:01.666,6033489.0
13:28:01.706,6033808.0
13:28:01.746,6033058.0
13:28:01.786,6032978.0
13:28:01.826,6033178.0
13:28:01.866,6033525.0
13:28:01.906,6033726.0
13:28:01.946,6033457.0
13:28:01.986,6034807.0
13:28:02.026,6026895.0
13:28:02.066,6033437.0
13:28:02.106,6034520.0
13:28:02.146,6035316.0
13:28:02.186,6034786.0
13:28:02.226,6034513.0
13:28:02.266,6034722.0
13:28:02.306,6034516.0
13:28:02.346,6033470.0
13:28:02.386,6033078.0
13:28:02.426,6033421.0
13:28:02.466,6033876.0
13:28:02.506,6033466.0
13:28:02.546,6034624.0
13:28:02.586,6043814.0
13:28:02.626,6034169.0
13:28:02.666,6033088.0
13:28:02.706,6032644.0
13:28:02.746,6032430.0
13:28:02.786,6030946.0
13:28:02.826,6029622.0
13:28:02.866,6030753.0
13:28:02.906,6032639.0
13:28:02.946,6033450.0
13:28:02.986,6032934.0
13:28:03.026,6032894.0
13:28:03.066,6033034.0
13:28:03.106,6033088.0
13:28:03.146,6033108.0
13:28:03.186,6032846.0
13:28:03.226,6032976.0
13:28:03.266,6033181.0
13:28:03.306,6036609.0
13:28:03.346,6029232.0
13:28:03.386,6033859.0
13:28:03.426,6034325.0
13:28:03.466,6034549.0
13:28:03.506,6034023.0
13:28:03.546,6033956.0
13:28:03.586,6034268.0
13:28:03.626,6034174.0
13:28:03.666,6034110.0
13:28:03.706,6033476.0
13:28:03.746,6033347.0
13:28:03.786,6034949.0
13:28:03.826,6047466.0
13:28:03.866,6031833.0
13:28:03.906,6031516.0
13:28:03.946,6032495.0
13:28:03.986,6032125.0
13:28:04.026,6031558.0
13:28:04.066,6031598.0
13:28:04.106,6032667.0
13:28:04.146,6032819.0
13:28:04.186,6032534.0
13:28:04.226,6032562.0
13:28:04.266,6032758.0
13:28:04.306,6032480.0
13:28:05.304,6032452.0
13:28:05.344,6033250.0
13:28:05.384,6033707.0
13:28:05.424,6033859.0
13:28:05.464,6033292.0
13:28:05.504,6033026.0
13:28:05.544,6033024.0
13:28:05.584,6034076.0
13:28:05.624,6033531.0
13:28:05.664,6032787.0
13:28:05.704,6033137.0
13:28:05.744,6033941.0
13:28:05.784,6037203.0
13:28:05.824,6051701.0
13:28:05.864,6034766.0
13:28:05.904,6031651.0
13:28:05.944,6030877.0
13:28:05.984,6029359.0
13:28:06.024,6026475.0
13:28:06.064,6025607.0
13:28:06.104,6027669.0
13:28:06.144,6030475.0
13:28:06.184,6032411.0
13:28:06.224,6032129.0
13:28:06.264,6032493.0
13:28:06.304,6032816.0
13:28:06.344,6033859.0
13:28:06.384,6039722.0
13:28:06.424,6032055.0
13:28:06.464,6034507.0
13:28:06.504,6034703.0
13:28:06.544,6035159.0
13:28:06.584,6034933.0
13:28:06.624,6035216.0
13:28:06.664,6035223.0
13:28:06.704,6034630.0
13:28:06.744,6033518.0
13:28:06.784,6033593.0
13:28:06.824,6034075.0
13:28:06.864,6033937.0
13:28:06.904,6036776.0
13:28:06.944,6043293.0
13:28:06.984,6033470.0
13:28:07.024,6033445.0
13:28:07.064,6033255.0
13:28:07.104,6032109.0
13:28:07.144,6030851.0
13:28:07.184,6031036.0
13:28:07.224,6032671.0
13:28:07.264,6033629.0
13:28:07.304,6032799.0
13:28:07.344,6032788.0
13:28:07.384,6033178.0
13:28:07.424,6033384.0
13:28:07.464,6033683.0
13:28:07.504,6034730.0
13:28:07.544,6026692.0
13:28:07.584,6033546.0
13:28:07.624,6034450.0
13:28:07.664,6034537.0
13:28:07.704,6034505.0
13:28:07.744,6034427.0
13:28:07.784,6034585.0
13:28:07.824,6034376.0
13:28:07.864,6034018.0
13:28:07.904,6033568.0
13:28:07.944,6033648.0
13:28:07.984,6034255.0
13:28:08.024,6042139.0
13:28:08.064,6034110.0
13:28:08.104,6033810.0
13:28:08.144,6034080.0
13:28:08.184,6034438.0
13:28:08.224,6033467.0
13:28:08.264,6032958.0
13:28:08.304,6033596.0
13:28:08.344,6033901.0
13:28:08.384,6033353.0
13:28:08.424,6032628.0
13:28:08.464,6032901.0
13:28:08.504,6032932.0
13:28:08.544,6032610.0
13:28:08.584,6033261.0
13:28:08.624,6029639.0
13:28:08.664,6032070.0
13:28:08.704,6033112.0
13:28:08.744,6033284.0
13:28:08.784,6032733.0
13:28:08.824,6031906.0
13:28:08.864,6031628.0
13:28:08.904,6031582.0
13:28:08.944,6032150.0
13:28:08.984,6031181.0
13:28:09.024,6031009.0
13:28:09.064,6031428.0
13:28:09.104,6030877.0
13:28:09.144,6030479.0
13:28:09.184,6030308.0
13:28:09.224,6030665.0
13:28:09.264,6030476.0
13:28:08.702,6031019.0
13:28:08.742,6030501.0
13:28:08.782,6030415.0
13:28:08.822,6030541.0
13:28:08.862,6031530.0
13:28:08.902,6030531.0
13:28:08.942,6030292.0
13:28:08.982,6031242.0
13:28:09.022,6030987.0
13:28:09.062,6031023.0
13:28:09.102,6030627.0
13:28:09.142,6030854.0
13:28:09.182,6031224.0
13:28:09.222,6032295.0
13:28:09.262,6024786.0
13:28:09.302,6031307.0
13:28:09.342,6032552.0
13:28:09.382,6032786.0
13:28:09.422,6032591.0
13:28:09.462,6032472.0
13:28:09.502,6032272.0
13:28:09.542,6032508.0
13:28:09.582,6032698.0
13:28:09.622,6031892.0
13:28:09.662,6031703.0
13:28:09.702,6032580.0
13:28:09.742,6033600.0
13:28:09.782,6031943.0
13:28:09.822,6031950.0
13:28:09.862,6033088.0
13:28:09.902,6033219.0
13:28:09.942,6032532.0
13:28:09.982,6031772.0
13:28:10.022,6032079.0
13:28:10.062,6033015.0
13:28:10.102,6032873.0
13:28:10.142,6032372.0
13:28:10.182,6031952.0
13:28:10.222,6032599.0
13:28:10.262,6032904.0
13:28:10.302,6032850.0
13:28:10.342,6032600.0
13:28:10.382,6032830.0
13:28:10.422,6036658.0
13:28:10.462,6028527.0
13:28:10.502,6033244.0
13:28:10.542,6033844.0
13:28:10.582,6033793.0
13:28:10.622,6033305.0
13:28:10.662,6032675.0
13:28:10.702,6033008.0
13:28:10.742,6033578.0
13:28:10.782,6033200.0
13:28:10.822,6032439.0
13:28:10.862,6033331.0
13:28:10.902,6035474.0
13:28:10.942,6051329.0
13:28:10.982,6031692.0
13:28:11.022,6031889.0
13:28:11.062,6031788.0
13:28:11.102,6030685.0
13:28:11.142,6029682.0
13:28:11.182,6029943.0
13:28:11.222,6031528.0
13:28:11.262,6032653.0
13:28:11.302,6033046.0
13:28:11.342,6032846.0
13:28:11.382,6032717.0
13:28:11.422,6032873.0
13:28:11.462,6032882.0
13:28:11.502,6032838.0
13:28:11.542,6032950.0
13:28:11.582,6033293.0
13:28:11.622,6042634.0
13:28:11.662,6031769.0
13:28:11.702,6033512.0
13:28:11.742,6033978.0
13:28:11.782,6033323.0
13:28:11.822,6033133.0
13:28:11.862,6032852.0
13:28:11.902,6032932.0
13:28:11.942,6034018.0
13:28:11.982,6033194.0
13:28:12.022,6032975.0
13:28:12.062,6033776.0
13:28:12.102,6034718.0
13:28:12.142,6043292.0
13:28:12.182,6054792.0
13:28:12.222,6032110.0
13:28:12.262,6030388.0
13:28:12.302,6029583.0
13:28:12.342,6026889.0
13:28:12.382,6024505.0
13:28:12.422,6025411.0
13:28:12.462,6028253.0
13:28:12.502,6030848.0
13:28:12.542,6031879.0
13:28:12.582,6032132.0
13:28:12.622,6032302.0
13:28:12.662,6032477.0
13:28:13.136,6033082.0
13:28:13.176,6034433.0
13:28:13.216,6033800.0
13:28:13.256,6034033.0
13:28:13.296,6034344.0
13:28:13.336,6034307.0
13:28:13.376,6033699.0
13:28:13.416,6032644.0
13:28:13.456,6033334.0
13:28:13.496,6035725.0
13:28:13.536,6042139.0
13:28:13.576,6030176.0
13:28:13.616,6033049.0
13:28:13.656,6032653.0
13:28:13.696,6032463.0
13:28:13.736,6032192.0
13:28:13.776,6032753.0
13:28:13.816,6032992.0
13:28:13.856,6032940.0
13:28:13.896,6033290.0
13:28:13.936,6033637.0
13:28:13.976,6033188.0
13:28:14.016,6033197.0
13:28:14.056,6033201.0
13:28:14.096,6033158.0
13:28:14.136,6033303.0
13:28:14.176,6033121.0
13:28:14.216,6033727.0
13:28:14.256,6033433.0
13:28:14.296,6033418.0
13:28:14.336,6033258.0
13:28:14.376,6033534.0
13:28:14.416,6033616.0
13:28:14.456,6033735.0
13:28:14.496,6041128.0
13:28:14.536,6032652.0
13:28:14.576,6033906.0
13:28:14.616,6033875.0
13:28:14.656,6032955.0
13:28:14.696,6033058.0
13:28:14.736,6032574.0
13:28:14.776,6032478.0
13:28:14.816,6033526.0
13:28:14.856,6033067.0
13:28:14.896,6033813.0
13:28:14.936,6036822.0
13:28:14.976,6042129.0
13:28:15.016,6030771.0
13:28:15.056,6032002.0
13:28:15.096,6031907.0
13:28:15.136,6031680.0
13:28:15.176,6031516.0
13:28:15.216,6031913.0
13:28:15.256,6032527.0
13:28:15.296,6033461.0
13:28:15.336,6033506.0
13:28:15.376,6032972.0
13:28:15.416,6033008.0
13:28:15.456,6033287.0
13:28:15.496,6032796.0
13:28:15.536,6032916.0
13:28:15.576,6033204.0
13:28:15.616,6033215.0
13:28:15.656,6032747.0
13:28:15.696,6037651.0
13:28:15.736,6030873.0
13:28:15.776,6033936.0
13:28:15.816,6033809.0
13:28:15.856,6033755.0
13:28:15.896,6033379.0
13:28:15.936,6033092.0
13:28:15.976,6032463.0
13:28:16.016,6033359.0
13:28:16.056,6033615.0
13:28:16.096,6033502.0
13:28:16.136,6034154.0
13:28:16.176,6036511.0
13:28:16.216,6046272.0
13:28:16.256,6052459.0
13:28:16.296,6031990.0
13:28:16.336,6030814.0
13:28:16.376,6029602.0
13:28:16.416,6027029.0
13:28:16.456,6025378.0
13:28:16.496,6026434.0
13:28:16.536,6029649.0
13:28:16.576,6032199.0
13:28:16.616,6033214.0
13:28:16.656,6033511.0
13:28:16.696,6033624.0
13:28:16.736,6033851.0
13:28:16.776,6035597.0
13:28:16.816,6026787.0
13:28:16.856,6033664.0
13:28:16.896,6034891.0
13:28:16.936,6035490.0
13:28:16.976,6034772.0
13:28:17.016,6034636.0
13:28:17.056,6034927.0
13:28:17.096,6035074.0
13:28:17.613,6033145.0
13:28:17.653,6035366.0
13:28:17.693,6035620.0
13:28:17.733,6035988.0
13:28:17.773,6035699.0
13:28:17.813,6035452.0
13:28:17.853,6034534.0
13:28:17.893,6034220.0
13:28:17.933,6034085.0
13:28:17.973,6034032.0
13:28:18.013,6034088.0
13:28:18.053,6033764.0
13:28:18.093,6033959.0
13:28:18.133,6033793.0
13:28:18.173,6033793.0
13:28:18.213,6033946.0
13:28:18.253,6033902.0
13:28:18.293,6033562.0
13:28:18.333,6033451.0
13:28:18.373,6033573.0
13:28:18.413,6033549.0
13:28:18.453,6033424.0
13:28:18.493,6033596.0
13:28:18.533,6033797.0
13:28:18.573,6033699.0
13:28:18.613,6033962.0
13:28:18.653,6033806.0
13:28:18.693,6041694.0
13:28:18.733,6032417.0
13:28:18.773,6034147.0
13:28:18.813,6034669.0
13:28:18.853,6033346.0
13:28:18.893,6033330.0
13:28:18.933,6032648.0
13:28:18.973,6033181.0
13:28:19.013,6033693.0
13:28:19.053,6033864.0
13:28:19.093,6034727.0
13:28:19.133,6036537.0
13:28:19.173,6040869.0
13:28:19.213,6032920.0
13:28:19.253,6026985.0
13:28:19.293,6033482.0
13:28:19.333,6033886.0
13:28:19.373,6034118.0
13:28:19.413,6034496.0
13:28:19.453,6035192.0
13:28:19.493,6035095.0
13:28:19.533,6034355.0
13:28:19.573,6034367.0
13:28:19.613,6034269.0
13:28:19.653,6034185.0
13:28:19.693,6033411.0
13:28:19.733,6033394.0
13:28:19.773,6033745.0
13:28:19.813,6033559.0
13:28:19.853,6033562.0
13:28:19.893,6033657.0
13:28:19.933,6033449.0
13:28:19.973,6033288.0
13:28:20.013,6033672.0
13:28:20.053,6038281.0
13:28:20.093,6030912.0
13:28:20.133,6034195.0
13:28:20.173,6034105.0
13:28:20.213,6033960.0
13:28:20.253,6033090.0
13:28:20.293,6032686.0
13:28:20.333,6032260.0
13:28:20.373,6033288.0
13:28:20.413,6033636.0
13:28:20.453,6033696.0
13:28:20.493,6035215.0
13:28:20.533,6048620.0
13:28:20.573,6031776.0
13:28:20.613,6033531.0
13:28:20.653,6033441.0
13:28:20.693,6033410.0
13:28:20.733,6032423.0
13:28:20.773,6032364.0
13:28:20.813,6032934.0
13:28:20.853,6033376.0
13:28:20.893,6033848.0
13:28:20.933,6034242.0
13:28:20.973,6033997.0
13:28:21.013,6033830.0
13:28:21.053,6034199.0
13:28:21.093,6033905.0
13:28:21.133,6033825.0
13:28:21.173,6033971.0
13:28:21.213,6034304.0
13:28:21.253,6034167.0
13:28:21.293,6037110.0
13:28:21.333,6028035.0
13:28:21.373,6034747.0
13:28:21.413,6034890.0
13:28:21.453,6034681.0
13:28:21.493,6034053.0
13:28:21.533,6033528.0
13:28:21.573,6033360.0
13:28:21.458,6033898.0
13:28:21.498,6055184.0
13:28:21.538,6032961.0
13:28:21.578,6032109.0
13:28:21.618,6031399.0
13:28:21.658,6028999.0
13:28:21.698,6026901.0
13:28:21.738,6027899.0
13:28:21.778,6030123.0
13:28:21.818,6032464.0
13:28:21.858,6033799.0
13:28:21.898,6033645.0
13:28:21.938,6033610.0
13:28:21.978,6033989.0
13:28:22.018,6034377.0
13:28:22.058,6033921.0
13:28:22.098,6034190.0
13:28:22.138,6034345.0
13:28:22.178,6034416.0
13:28:22.218,6034210.0
13:28:22.258,6034481.0
13:28:22.298,6042881.0
13:28:22.338,6033009.0
13:28:22.378,6034894.0
13:28:22.418,6035161.0
13:28:22.458,6034371.0
13:28:22.498,6034398.0
13:28:22.538,6033920.0
13:28:22.578,6034542.0
13:28:22.618,6035059.0
13:28:22.658,6034851.0
13:28:22.698,6035055.0
13:28:22.738,6038372.0
13:28:22.778,6043695.0
13:28:22.818,6030488.0
13:28:22.858,6033995.0
13:28:22.898,6033507.0
13:28:22.938,6033307.0
13:28:22.978,6033427.0
13:28:23.018,6033524.0
13:28:23.058,6034124.0
13:28:23.098,6034207.0
13:28:23.138,6034491.0
13:28:23.178,6034938.0
13:28:23.218,6034495.0
13:28:23.258,6034013.0
13:28:23.298,6034397.0
13:28:23.338,6034462.0
13:28:23.378,6034167.0
13:28:23.418,6034503.0
13:28:23.458,6034420.0
13:28:23.498,6034351.0
13:28:23.538,6034407.0
13:28:23.578,6034725.0
13:28:23.618,6034558.0
13:28:23.658,6034328.0
13:28:23.698,6034635.0
13:28:23.738,6034948.0
13:28:23.778,6037518.0
13:28:23.818,6028396.0
13:28:23.858,6034930.0
13:28:23.898,6035361.0
13:28:23.938,6035069.0
13:28:23.978,6033949.0
13:28:24.018,6033685.0
13:28:24.058,6033738.0
13:28:24.098,6033772.0
13:28:24.138,6034217.0
13:28:24.178,6034761.0
13:28:24.218,6035179.0
13:28:24.258,6042632.0
13:28:24.298,6031586.0
13:28:24.338,6034909.0
13:28:24.378,6034319.0
13:28:24.418,6034571.0
13:28:24.458,6033820.0
13:28:24.498,6033341.0
13:28:24.538,6033967.0
13:28:24.578,6034459.0
13:28:24.618,6034503.0
13:28:24.658,6034600.0
13:28:24.698,6034456.0
13:28:24.738,6034603.0
13:28:24.778,6034853.0
13:28:24.818,6034248.0
13:28:24.858,6034356.0
13:28:24.898,6035542.0
13:28:24.938,6027479.0
13:28:24.978,6034007.0
13:28:25.018,6035121.0
13:28:25.058,6035108.0
13:28:25.098,6034514.0
13:28:25.138,6034310.0
13:28:25.178,6033594.0
13:28:25.218,6034205.0
13:28:25.258,6034858.0
13:28:25.298,6034457.0
13:28:25.338,6035111.0
13:28:25.378,6035232.0
13:28:25.418,6034501.0
13:28:26.033,6034448.0
13:28:26.073,6035327.0
13:28:26.113,6035102.0
13:28:26.153,6034429.0
13:28:26.193,6034278.0
13:28:26.233,6034172.0
13:28:26.273,6034680.0
13:28:26.313,6034676.0
13:28:26.353,6034566.0
13:28:26.393,6034781.0
13:28:26.433,6039566.0
13:28:26.473,6031325.0
13:28:26.513,6034825.0
13:28:26.553,6034819.0
13:28:26.593,6035576.0
13:28:26.633,6035830.0
13:28:26.673,6035518.0
13:28:26.713,6035482.0
13:28:26.753,6035297.0
13:28:26.793,6034950.0
13:28:26.833,6034550.0
13:28:26.873,6034521.0
13:28:26.913,6034642.0
13:28:26.953,6034527.0
13:28:26.993,6034423.0
13:28:27.033,6035608.0
13:28:27.073,6028618.0
13:28:27.113,6033878.0
13:28:27.153,6034735.0
13:28:27.193,6035455.0
13:28:27.233,6034809.0
13:28:27.273,6034293.0
13:28:27.313,6034128.0
13:28:27.353,6034946.0
13:28:27.393,6035551.0
13:28:27.433,6034100.0
13:28:27.473,6034751.0
13:28:27.513,6036530.0
13:28:27.553,6026901.0
13:28:27.593,6034252.0
13:28:27.633,6035326.0
13:28:27.673,6035837.0
13:28:27.713,6036261.0
13:28:27.753,6035881.0
13:28:27.793,6036087.0
13:28:27.833,6035776.0
13:28:27.873,6034665.0
13:28:27.913,6034655.0
13:28:27.953,6034845.0
13:28:27.993,6034730.0
13:28:28.033,6034946.0
13:28:28.073,6038290.0
13:28:28.113,6029147.0
13:28:28.153,6035203.0
13:28:28.193,6035757.0
13:28:28.233,6035985.0
13:28:28.273,6035265.0
13:28:28.313,6035022.0
13:28:28.353,6035356.0
13:28:28.393,6035658.0
13:28:28.433,6034802.0
13:28:28.473,6034380.0
13:28:28.513,6035245.0
13:28:28.553,6035272.0
13:28:28.593,6034919.0
13:28:28.633,6034948.0
13:28:28.673,6039563.0
13:28:28.713,6032228.0
13:28:28.753,6035037.0
13:28:28.793,6035638.0
13:28:28.833,6035850.0
13:28:28.873,6035260.0
13:28:28.913,6035018.0
13:28:28.953,6034887.0
13:28:28.993,6035058.0
13:28:29.033,6034862.0
13:28:29.073,6033754.0
13:28:29.113,6034687.0
13:28:29.153,6035100.0
13:28:29.193,6034561.0
13:28:29.233,6034721.0
13:28:29.273,6034623.0
13:28:29.313,6035511.0
13:28:29.353,6030232.0
13:28:29.393,6034138.0
13:28:29.433,6035502.0
13:28:29.473,6035688.0
13:28:29.513,6035299.0
13:28:29.553,6034944.0
13:28:29.593,6034785.0
13:28:29.633,6034734.0
13:28:29.673,6035440.0
13:28:29.713,6035011.0
13:28:29.753,6034947.0
13:28:29.793,6035127.0
13:28:29.833,6039894.0
13:28:29.873,6039510.0
13:28:29.913,6028643.0
13:28:29.953,6032619.0
13:28:29.993,6034442.0
13:28:30.782,6033997.0
13:28:30.822,6034523.0
13:28:30.862,6034631.0
13:28:30.902,6034301.0
13:28:30.942,6034737.0
13:28:30.982,6034575.0
13:28:31.022,6034260.0
13:28:31.062,6034051.0
13:28:31.102,6034624.0
13:28:31.142,6034186.0
13:28:31.182,6034228.0
13:28:31.222,6034585.0
13:28:31.262,6034426.0
13:28:31.302,6034284.0
13:28:31.342,6038889.0
13:28:31.382,6031831.0
13:28:31.422,6034673.0
13:28:31.462,6035021.0
13:28:31.502,6035160.0
13:28:31.542,6033969.0
13:28:31.582,6034273.0
13:28:31.622,6034573.0
13:28:31.662,6034951.0
13:28:31.702,6034922.0
13:28:31.742,6034842.0
13:28:31.782,6036059.0
13:28:31.822,6044434.0
13:28:31.862,6035455.0
13:28:31.902,6035855.0
13:28:31.942,6033554.0
13:28:31.982,6033501.0
13:28:32.022,6032954.0
13:28:32.062,6033112.0
13:28:32.102,6034263.0
13:28:32.142,6043347.0
13:28:32.182,6051339.0
13:28:32.222,6033940.0
13:28:32.262,6032057.0
13:28:32.302,6030537.0
13:28:32.342,6029311.0
13:28:32.382,6031781.0
13:28:32.422,6046393.0
13:28:32.462,6039000.0
13:28:32.502,6032359.0
13:28:32.542,6030909.0
13:28:32.582,6029015.0
13:28:32.622,6029629.0
13:28:32.662,6031489.0
13:28:32.702,6033488.0
13:28:32.742,6033981.0
13:28:32.782,6034571.0
13:28:32.822,6034800.0
13:28:32.862,6034665.0
13:28:32.902,6034630.0
13:28:32.942,6034644.0
13:28:32.982,6034778.0
13:28:33.022,6034666.0
13:28:33.062,6034829.0
13:28:33.102,6039705.0
13:28:33.142,6032750.0
13:28:33.182,6035231.0
13:28:33.222,6035533.0
13:28:33.262,6034345.0
13:28:33.302,6034511.0
13:28:33.342,6034419.0
13:28:33.382,6035038.0
13:28:33.422,6035327.0
13:28:33.462,6035454.0
13:28:33.502,6035873.0
13:28:33.542,6036499.0
13:28:33.582,6040086.0
13:28:33.622,6024535.0
13:28:33.662,6034594.0
13:28:33.702,6034973.0
13:28:33.742,6034804.0
13:28:33.782,6035103.0
13:28:33.822,6034346.0
13:28:33.862,6034755.0
13:28:33.902,6034677.0
13:28:33.942,6034874.0
13:28:33.982,6034985.0
13:28:34.022,6034484.0
13:28:34.062,6034312.0
13:28:34.102,6034784.0
13:28:34.142,6034817.0
13:28:34.182,6034539.0
13:28:34.222,6034534.0
13:28:34.262,6040686.0
13:28:34.302,6033493.0
13:28:34.342,6035286.0
13:28:34.382,6035434.0
13:28:34.422,6035242.0
13:28:34.462,6034521.0
13:28:34.502,6033755.0
13:28:34.542,6033494.0
13:28:34.582,6035272.0
13:28:34.622,6035148.0
13:28:34.662,6034948.0
13:28:34.702,6038305.0
13:28:34.742,6054352.0
13:28:34.277,6035784.0
13:28:34.317,6031301.0
13:28:34.357,6033052.0
13:28:34.397,6033637.0
13:28:34.437,6034030.0
13:28:34.477,6033902.0
13:28:34.517,6034008.0
13:28:34.557,6034170.0
13:28:34.597,6034116.0
13:28:34.637,6034258.0
13:28:34.677,6034228.0
13:28:34.717,6034305.0
13:28:34.757,6034416.0
13:28:34.797,6034199.0
13:28:34.837,6034521.0
13:28:34.877,6034704.0
13:28:34.917,6034921.0
13:28:34.957,6034090.0
13:28:34.997,6033589.0
13:28:35.037,6034747.0
13:28:35.077,6035094.0
13:28:35.117,6034334.0
13:28:35.157,6034022.0
13:28:35.197,6033775.0
13:28:35.237,6034306.0
13:28:35.277,6034728.0
13:28:35.317,6034633.0
13:28:35.357,6035243.0
13:28:35.397,6039219.0
13:28:35.437,6040388.0
13:28:35.477,6032742.0
13:28:35.517,6033708.0
13:28:35.557,6033894.0
13:28:35.597,6034157.0
13:28:35.637,6033484.0
13:28:35.677,6034150.0
13:28:35.717,6034245.0
13:28:35.757,6034689.0
13:28:35.797,6034561.0
13:28:35.837,6034538.0
13:28:35.877,6034582.0
13:28:35.917,6034612.0
13:28:35.957,6034471.0
13:28:35.997,6034685.0
13:28:36.037,6034456.0
13:28:36.077,6034245.0
13:28:36.117,6034433.0
13:28:36.157,6034397.0
13:28:36.197,6034361.0
13:28:36.237,6034274.0
13:28:36.277,6034568.0
13:28:36.317,6034512.0
13:28:36.357,6036888.0
13:28:36.397,6028633.0
13:28:36.437,6034650.0
13:28:36.477,6035528.0
13:28:36.517,6034783.0
13:28:36.557,6034622.0
13:28:36.597,6033962.0
13:28:36.637,6033655.0
13:28:36.677,6034563.0
13:28:36.717,6034672.0
13:28:36.757,6034541.0
13:28:36.797,6035721.0
13:28:36.837,6043097.0
13:28:36.877,6037620.0
13:28:36.917,6034254.0
13:28:36.957,6033701.0
13:28:36.997,6033604.0
13:28:37.037,6033420.0
13:28:37.077,6033116.0
13:28:37.117,6033999.0
13:28:37.157,6034662.0
13:28:37.197,6034793.0
13:28:37.237,6035071.0
13:28:37.277,6034811.0
13:28:37.317,6034542.0
13:28:37.357,6034688.0
13:28:37.397,6034936.0
13:28:37.437,6034882.0
13:28:37.477,6034670.0
13:28:37.517,6034426.0
13:28:37.557,6034755.0
13:28:37.597,6034712.0
13:28:37.637,6034378.0
13:28:37.677,6034842.0
13:28:37.717,6034807.0
13:28:37.757,6034667.0
13:28:37.797,6034155.0
13:28:37.837,6038623.0
13:28:37.877,6032572.0
13:28:37.917,6034701.0
13:28:37.957,6034928.0
13:28:37.997,6035051.0
13:28:38.037,6034142.0
13:28:38.077,6033679.0
13:28:38.117,6033481.0
13:28:38.157,6034618.0
13:28:38.197,6034946.0
13:28:38.237,6034859.0
13:28:38.760,6035754.0
13:28:38.800,6032901.0
13:28:38.840,6032312.0
13:28:38.880,6031419.0
13:28:38.920,6032312.0
13:28:38.960,6033370.0
13:28:39.000,6034362.0
13:28:39.040,6034719.0
13:28:39.080,6034692.0
13:28:39.120,6034271.0
13:28:39.160,6034443.0
13:28:39.200,6034542.0
13:28:39.240,6034872.0
13:28:39.280,6034807.0
13:28:39.320,6034703.0
13:28:39.360,6040916.0
13:28:39.400,6033304.0
13:28:39.440,6035246.0
13:28:39.480,6035491.0
13:28:39.520,6035432.0
13:28:39.560,6034857.0
13:28:39.600,6034254.0
13:28:39.640,6034587.0
13:28:39.680,6034832.0
13:28:39.720,6034259.0
13:28:39.760,6034371.0
13:28:39.800,6034855.0
13:28:39.840,6035162.0
13:28:39.880,6034733.0
13:28:39.920,6034426.0
13:28:39.960,6034380.0
13:28:40.000,6035429.0
13:28:40.040,6029081.0
13:28:40.080,6033573.0
13:28:40.120,6035138.0
13:28:40.160,6035763.0
13:28:40.200,6035220.0
13:28:40.240,6035006.0
13:28:40.280,6034962.0
13:28:40.320,6034872.0
13:28:40.360,6034555.0
13:28:40.400,6034247.0
13:28:40.440,6034684.0
13:28:40.480,6034756.0
13:28:40.520,6034387.0
13:28:40.560,6034560.0
13:28:40.600,6034267.0
13:28:40.640,6039544.0
13:28:40.680,6032808.0
13:28:40.720,6035182.0
13:28:40.760,6035315.0
13:28:40.800,6035390.0
13:28:40.840,6035175.0
13:28:40.880,6034902.0
13:28:40.920,6034772.0
13:28:40.960,6034386.0
13:28:41.000,6034943.0
13:28:41.040,6034533.0
13:28:41.080,6034766.0
13:28:41.120,6035086.0
13:28:41.160,6034501.0
13:28:41.200,6034437.0
13:28:41.240,6034136.0
13:28:41.280,6034491.0
13:28:41.320,6034696.0
13:28:41.360,6034542.0
13:28:41.400,6038703.0
13:28:41.440,6031756.0
13:28:41.480,6034867.0
13:28:41.520,6035046.0
13:28:41.560,6035450.0
13:28:41.600,6034737.0
13:28:41.640,6034600.0
13:28:41.680,6034152.0
13:28:41.720,6034576.0
13:28:41.760,6035482.0
13:28:41.800,6034434.0
13:28:41.840,6035267.0
13:28:41.880,6035631.0
13:28:41.920,6034957.0
13:28:41.960,6034400.0
13:28:42.000,6034829.0
13:28:42.040,6034545.0
13:28:42.080,6034564.0
13:28:42.120,6040703.0
13:28:42.160,6033129.0
13:28:42.200,6035193.0
13:28:42.240,6035174.0
13:28:42.280,6035831.0
13:28:42.320,6035638.0
13:28:42.360,6035050.0
13:28:42.400,6035080.0
13:28:42.440,6035864.0
13:28:42.480,6035707.0
13:28:42.520,6035030.0
13:28:42.560,6035440.0
13:28:42.600,6035869.0
13:28:42.640,6035229.0
13:28:42.680,6035781.0
13:28:42.720,6036780.0
13:28:46.640,6028184.0
13:28:46.680,6036842.0
13:28:46.720,6036057.0
13:28:46.760,6036121.0
13:28:46.800,6035947.0
13:28:46.840,6036178.0
13:28:46.880,6036331.0
13:28:46.920,6036522.0
13:28:46.960,6036360.0
13:28:47.000,6036158.0
13:28:47.040,6036526.0
13:28:47.080,6036481.0
13:28:47.120,6036637.0
13:28:47.160,6036515.0
13:28:47.200,6043567.0
13:28:47.240,6035406.0
13:28:47.280,6037345.0
13:28:47.320,6037615.0
13:28:47.360,6038110.0
13:28:47.400,6037556.0
13:28:47.440,6037078.0
13:28:47.480,6036979.0
13:28:47.520,6037817.0
13:28:47.560,6037605.0
13:28:47.600,6037050.0
13:28:47.640,6038252.0
13:28:47.680,6038766.0
13:28:47.720,6047258.0
13:28:47.760,6029681.0
13:28:47.800,6029633.0
13:28:47.840,6036452.0
13:28:47.880,6036558.0
13:28:47.920,6037064.0
13:28:47.960,6038364.0
13:28:48.000,6038880.0
13:28:48.040,6038378.0
13:28:48.080,6037467.0
13:28:48.120,6036939.0
13:28:48.160,6036529.0
13:28:48.200,6036420.0
13:28:48.240,6036307.0
13:28:48.280,6035755.0
13:28:48.320,6035452.0
13:28:48.360,6035366.0
13:28:48.400,6035445.0
13:28:48.440,6035230.0
13:28:48.480,6035069.0
13:28:48.520,6043250.0
13:28:48.560,6033825.0
13:28:48.600,6035365.0
13:28:48.640,6035486.0
13:28:48.680,6035670.0
13:28:48.720,6034922.0
13:28:48.760,6034231.0
13:28:48.800,6034697.0
13:28:48.840,6035531.0
13:28:48.880,6035162.0
13:28:48.920,6035337.0
13:28:48.960,6035985.0
13:28:49.000,6045724.0
13:28:49.040,6039296.0
13:28:49.080,6033351.0
13:28:49.120,6032778.0
13:28:49.160,6032732.0
13:28:49.200,6032077.0
13:28:49.240,6031118.0
13:28:49.280,6032558.0
13:28:49.320,6033467.0
13:28:49.360,6034014.0
13:28:49.400,6034186.0
13:28:49.440,6034480.0
13:28:49.480,6034226.0
13:28:49.520,6033943.0
13:28:49.560,6034175.0
13:28:49.600,6034054.0
13:28:49.640,6033845.0
13:28:49.680,6033800.0
13:28:49.720,6033817.0
13:28:49.760,6033842.0
13:28:49.800,6037640.0
13:28:49.840,6029086.0
13:28:49.880,6033351.0
13:28:49.920,6033486.0
13:28:49.960,6033138.0
13:28:50.000,6032836.0
13:28:50.040,6032278.0
13:28:50.080,6031771.0
13:28:50.120,6032969.0
13:28:50.160,6033217.0
13:28:50.200,6033051.0
13:28:50.240,6034278.0
13:28:50.280,6036487.0
13:28:50.320,6049433.0
13:28:50.360,6050369.0
13:28:50.400,6031561.0
13:28:50.440,6029632.0
13:28:50.480,6028595.0
13:28:50.520,6025958.0
13:28:50.560,6024188.0
13:28:50.600,6026189.0
13:28:48.682,6029786.0
13:28:48.722,6034570.0
13:28:48.762,6034863.0
13:28:48.802,6034846.0
13:28:48.842,6034563.0
13:28:48.882,6034554.0
13:28:48.922,6035150.0
13:28:48.962,6040011.0
13:28:49.002,6032084.0
13:28:49.042,6035427.0
13:28:49.082,6036168.0
13:28:49.122,6035912.0
13:28:49.162,6035118.0
13:28:49.202,6034801.0
13:28:49.242,6035508.0
13:28:49.282,6035537.0
13:28:49.322,6035082.0
13:28:49.362,6035089.0
13:28:49.402,6036974.0
13:28:49.442,6042896.0
13:28:49.482,6033348.0
13:28:49.522,6034303.0
13:28:49.562,6034562.0
13:28:49.602,6035079.0
13:28:49.642,6035147.0
13:28:49.682,6035690.0
13:28:49.722,6035767.0
13:28:49.762,6034995.0
13:28:49.802,6035229.0
13:28:49.842,6035790.0
13:28:49.882,6035361.0
13:28:49.922,6035307.0
13:28:49.962,6035271.0
13:28:50.002,6035266.0
13:28:50.042,6035398.0
13:28:50.082,6035278.0
13:28:50.122,6035008.0
13:28:50.162,6035130.0
13:28:50.202,6035315.0
13:28:50.242,6035224.0
13:28:50.282,6035627.0
13:28:50.322,6037219.0
13:28:50.362,6034346.0
13:28:50.402,6035533.0
13:28:50.442,6035925.0
13:28:50.482,6035723.0
13:28:50.522,6035190.0
13:28:50.562,6034598.0
13:28:50.602,6035310.0
13:28:50.642,6036088.0
13:28:50.682,6035440.0
13:28:50.722,6036024.0
13:28:50.762,6037590.0
13:28:50.802,6047391.0
13:28:50.842,6033120.0
13:28:50.882,6034003.0
13:28:50.922,6033901.0
13:28:50.962,6032885.0
13:28:51.002,6031278.0
13:28:51.042,6030654.0
13:28:51.082,6031913.0
13:28:51.122,6034105.0
13:28:51.162,6035322.0
13:28:51.202,6035641.0
13:28:51.242,6035913.0
13:28:51.282,6035566.0
13:28:51.322,6035704.0
13:28:51.362,6036167.0
13:28:51.402,6035664.0
13:28:51.442,6041957.0
13:28:51.482,6034424.0
13:28:51.522,6036252.0
13:28:51.562,6036449.0
13:28:51.602,6036238.0
13:28:51.642,6035973.0
13:28:51.682,6035476.0
13:28:51.722,6035372.0
13:28:51.762,6036448.0
13:28:51.802,6036244.0
13:28:51.842,6035996.0
13:28:51.882,6036725.0
13:28:51.922,6036432.0
13:28:51.962,6035818.0
13:28:52.002,6035946.0
13:28:52.042,6031346.0
13:28:52.082,6035126.0
13:28:52.122,6036443.0
13:28:52.162,6036767.0
13:28:52.202,6036947.0
13:28:52.242,6036558.0
13:28:52.282,6036368.0
13:28:52.322,6036319.0
13:28:52.362,6036721.0
13:28:52.402,6036329.0
13:28:52.442,6036182.0
13:28:52.482,6036382.0
13:28:52.522,6036021.0
13:28:52.562,6036162.0
13:28:52.602,6036087.0
13:28:52.642,6042136.0
13:28:53.175,6033991.0
13:28:53.215,6036634.0
13:28:53.255,6036552.0
13:28:53.295,6036546.0
13:28:53.335,6036521.0
13:28:53.375,6036578.0
13:28:53.415,6037069.0
13:28:53.455,6036653.0
13:28:53.495,6036760.0
13:28:53.535,6036354.0
13:28:53.575,6036229.0
13:28:53.615,6036336.0
13:28:53.655,6040494.0
13:28:53.695,6031115.0
13:28:53.735,6036531.0
13:28:53.775,6037601.0
13:28:53.815,6037430.0
13:28:53.855,6036487.0
13:28:53.895,6036107.0
13:28:53.935,6036736.0
13:28:53.975,6036854.0
13:28:54.015,6036048.0
13:28:54.055,6036118.0
13:28:54.095,6036737.0
13:28:54.135,6036720.0
13:28:54.175,6036308.0
13:28:54.215,6036397.0
13:28:54.255,6036010.0
13:28:54.295,6035823.0
13:28:54.335,6036188.0
13:28:54.375,6036283.0
13:28:54.415,6039062.0
13:28:54.455,6030772.0
13:28:54.495,6036206.0
13:28:54.535,6036688.0
13:28:54.575,6036711.0
13:28:54.615,6036297.0
13:28:54.655,6035913.0
13:28:54.695,6035760.0
13:28:54.735,6036217.0
13:28:54.775,6036605.0
13:28:54.815,6035939.0
13:28:54.855,6036266.0
13:28:54.895,6036765.0
13:28:54.935,6036158.0
13:28:54.975,6035768.0
13:28:55.015,6035884.0
13:28:55.055,6036032.0
13:28:55.095,6035909.0
13:28:55.135,6035947.0
13:28:55.175,6042764.0
13:28:55.215,6035216.0
13:28:55.255,6036434.0
13:28:55.295,6036825.0
13:28:55.335,6037008.0
13:28:55.375,6036342.0
13:28:55.415,6035728.0
13:28:55.455,6036135.0
13:28:55.495,6035933.0
13:28:55.535,6036572.0
13:28:55.575,6035824.0
13:28:55.615,6036494.0
13:28:55.655,6036165.0
13:28:55.695,6035763.0
13:28:55.735,6035783.0
13:28:55.775,6040645.0
13:28:55.815,6033473.0
13:28:55.855,6035803.0
13:28:55.895,6036443.0
13:28:55.935,6036827.0
13:28:55.975,6036662.0
13:28:56.015,6036559.0
13:28:56.055,6036894.0
13:28:56.095,6036044.0
13:28:56.135,6036231.0
13:28:56.175,6036042.0
13:28:56.215,6035760.0
13:28:56.255,6036027.0
13:28:56.295,6035932.0
13:28:56.335,6036081.0
13:28:56.375,6035595.0
13:28:56.415,6036040.0
13:28:56.455,6035910.0
13:28:56.495,6035798.0
13:28:56.535,6035878.0
13:28:56.575,6043016.0
13:28:56.615,6034271.0
13:28:56.655,6036289.0
13:28:56.695,6037113.0
13:28:56.735,6036757.0
13:28:56.775,6036170.0
13:28:56.815,6035971.0
13:28:56.855,6036256.0
13:28:56.895,6036187.0
13:28:56.935,6036030.0
13:28:56.975,6036122.0
13:28:57.015,6036672.0
13:28:57.055,6036692.0
13:28:57.095,6046544.0
13:28:57.135,6032032.0
13:28:55.899,6035084.0
13:28:55.939,6035909.0
13:28:55.979,6035904.0
13:28:56.019,6035979.0
13:28:56.059,6035989.0
13:28:56.099,6036025.0
13:28:56.139,6038092.0
13:28:56.179,6029919.0
13:28:56.219,6035998.0
13:28:56.259,6036636.0
13:28:56.299,6036627.0
13:28:56.339,6036315.0
13:28:56.379,6036384.0
13:28:56.419,6035958.0
13:28:56.459,6036072.0
13:28:56.499,6036425.0
13:28:56.539,6035671.0
13:28:56.579,6035886.0
13:28:56.619,6036565.0
13:28:56.659,6037267.0
13:28:56.699,6046718.0
13:28:56.739,6055070.0
13:28:56.779,6035132.0
13:28:56.819,6033982.0
13:28:56.859,6033214.0
13:28:56.899,6030458.0
13:28:56.939,6028299.0
13:28:56.979,6029389.0
13:28:57.019,6031615.0
13:28:57.059,6034018.0
13:28:57.099,6035454.0
13:28:57.139,6034906.0
13:28:57.179,6035254.0
13:28:57.219,6035901.0
13:28:57.259,6036090.0
13:28:57.299,6036852.0
13:28:57.339,6030771.0
13:28:57.379,6035786.0
13:28:57.419,6036543.0
13:28:57.459,6037070.0
13:28:57.499,6036749.0
13:28:57.539,6036951.0
13:28:57.579,6037310.0
13:28:57.619,6037271.0
13:28:57.659,6036934.0
13:28:57.699,6036511.0
13:28:57.739,6036469.0
13:28:57.779,6037949.0
13:28:57.819,6049799.0
13:28:57.859,6036601.0
13:28:57.899,6035757.0
13:28:57.939,6033993.0
13:28:57.979,6034091.0
13:28:58.019,6033708.0
13:28:58.059,6033240.0
13:28:58.099,6033943.0
13:28:58.139,6035103.0
13:28:58.179,6035993.0
13:28:58.219,6036314.0
13:28:58.259,6036325.0
13:28:58.299,6036307.0
13:28:58.339,6036292.0
13:28:58.379,6036631.0
13:28:58.419,6036415.0
13:28:58.459,6036404.0
13:28:58.499,6036295.0
13:28:58.539,6036385.0
13:28:58.579,6036661.0
13:28:58.619,6036426.0
13:28:58.659,6036076.0
13:28:58.699,6036541.0
13:28:58.739,6042483.0
13:28:58.779,6034482.0
13:28:58.819,6036806.0
13:28:58.859,6037375.0
13:28:58.899,6036325.0
13:28:58.939,6036272.0
13:28:58.979,6036028.0
13:28:59.019,6036403.0
13:28:59.059,6036648.0
13:28:59.099,6036800.0
13:28:59.139,6036722.0
13:28:59.179,6038681.0
13:28:59.219,6047170.0
13:28:59.259,6036566.0
13:28:59.299,6035895.0
13:28:59.339,6034993.0
13:28:59.379,6035664.0
13:28:59.419,6034915.0
13:28:59.459,6034783.0
13:28:59.499,6035276.0
13:28:59.539,6035830.0
13:28:59.579,6035855.0
13:28:59.619,6036211.0
13:28:59.659,6036416.0
13:28:59.699,6036095.0
13:28:59.739,6036153.0
13:28:59.779,6036095.0
13:28:59.819,6036296.0
13:28:59.859,6036197.0
13:29:00.906,6035819.0
13:29:00.946,6036820.0
13:29:00.986,6036200.0
13:29:01.026,6035761.0
13:29:01.066,6035246.0
13:29:01.106,6035515.0
13:29:01.146,6036623.0
13:29:01.186,6036567.0
13:29:01.226,6036566.0
13:29:01.266,6037902.0
13:29:01.306,6042828.0
13:29:01.346,6054812.0
13:29:01.386,6036131.0
13:29:01.426,6033933.0
13:29:01.466,6032446.0
13:29:01.506,6031483.0
13:29:01.546,6028575.0
13:29:01.586,6027768.0
13:29:01.626,6031383.0
13:29:01.666,6034234.0
13:29:01.706,6035283.0
13:29:01.746,6035578.0
13:29:01.786,6035915.0
13:29:01.826,6036080.0
13:29:01.866,6035975.0
13:29:01.906,6036174.0
13:29:01.946,6035812.0
13:29:01.986,6036100.0
13:29:02.026,6036248.0
13:29:02.066,6036236.0
13:29:02.106,6043032.0
13:29:02.146,6034386.0
13:29:02.186,6036590.0
13:29:02.226,6036987.0
13:29:02.266,6036874.0
13:29:02.306,6036010.0
13:29:02.346,6035937.0
13:29:02.386,6036064.0
13:29:02.426,6037138.0
13:29:02.466,6036713.0
13:29:02.506,6036739.0
13:29:02.546,6038768.0
13:29:02.586,6049996.0
13:29:02.626,6031339.0
13:29:02.666,6035604.0
13:29:02.706,6035126.0
13:29:02.746,6035070.0
13:29:02.786,6034881.0
13:29:02.826,6034848.0
13:29:02.866,6035509.0
13:29:02.906,6036144.0
13:29:02.946,6036856.0
13:29:02.986,6036696.0
13:29:03.026,6036349.0
13:29:03.066,6036270.0
13:29:03.106,6036308.0
13:29:03.146,6036015.0
13:29:03.186,6036377.0
13:29:03.226,6040933.0
13:29:03.266,6032076.0
13:29:03.306,6036656.0
13:29:03.346,6037492.0
13:29:03.386,6037095.0
13:29:03.426,6036394.0
13:29:03.466,6036321.0
13:29:03.506,6036072.0
13:29:03.546,6036499.0
13:29:03.586,6036408.0
13:29:03.626,6035987.0
13:29:03.666,6036866.0
13:29:03.706,6036974.0
13:29:03.746,6036437.0
13:29:03.786,6036467.0
13:29:03.826,6036319.0
13:29:03.866,6036539.0
13:29:03.906,6036398.0
13:29:03.946,6036371.0
13:29:03.986,6041356.0
13:29:04.026,6034279.0
13:29:04.066,6037099.0
13:29:04.106,6037458.0
13:29:04.146,6037207.0
13:29:04.186,6036658.0
13:29:04.226,6036166.0
13:29:04.266,6036534.0
13:29:04.306,6036419.0
13:29:04.346,6036001.0
13:29:04.386,6036115.0
13:29:04.426,6036893.0
13:29:04.466,6036613.0
13:29:04.506,6036560.0
13:29:04.546,6036433.0
13:29:04.586,6036199.0
13:29:04.626,6036190.0
13:29:04.666,6036362.0
13:29:04.706,6038929.0
13:29:04.746,6030345.0
13:29:04.786,6036748.0
13:29:04.826,6037427.0
13:29:04.866,6037608.0
13:29:06.961,6037186.0
13:29:07.001,6037226.0
13:29:07.041,6036547.0
13:29:07.081,6036192.0
13:29:07.121,6036871.0
13:29:07.161,6036280.0
13:29:07.201,6040890.0
13:29:07.241,6034400.0
13:29:07.281,6037502.0
13:29:07.321,6037624.0
13:29:07.361,6037864.0
13:29:07.401,6037901.0
13:29:07.441,6037485.0
13:29:07.481,6037094.0
13:29:07.521,6037134.0
13:29:07.561,6037765.0
13:29:07.601,6036978.0
13:29:07.641,6036594.0
13:29:07.681,6037643.0
13:29:07.721,6036714.0
13:29:07.761,6036317.0
13:29:07.801,6038128.0
13:29:07.841,6031808.0
13:29:07.881,6036615.0
13:29:07.921,6037281.0
13:29:07.961,6037725.0
13:29:08.001,6037779.0
13:29:08.041,6037115.0
13:29:08.081,6037359.0
13:29:08.121,6037511.0
13:29:08.161,6037363.0
13:29:08.201,6036810.0
13:29:08.241,6037014.0
13:29:08.281,6037509.0
13:29:08.321,6036758.0
13:29:08.361,6036749.0
13:29:08.401,6036859.0
13:29:08.441,6036618.0
13:29:08.481,6042389.0
13:29:08.521,6034334.0
13:29:08.561,6037191.0
13:29:08.601,6037360.0
13:29:08.641,6037670.0
13:29:08.681,6037534.0
13:29:08.721,6037173.0
13:29:08.761,6037148.0
13:29:08.801,6037347.0
13:29:08.841,6037288.0
13:29:08.881,6036816.0
13:29:08.921,6037247.0
13:29:08.961,6037238.0
13:29:09.001,6037360.0
13:29:09.041,6037166.0
13:29:09.081,6036944.0
13:29:09.121,6036775.0
13:29:09.161,6038398.0
13:29:09.201,6029942.0
13:29:09.241,6036638.0
13:29:09.281,6037673.0
13:29:09.321,6038106.0
13:29:09.361,6037527.0
13:29:09.401,6037160.0
13:29:09.441,6037361.0
13:29:09.481,6037142.0
13:29:09.521,6037182.0
13:29:09.561,6036364.0
13:29:09.601,6036741.0
13:29:09.641,6037067.0
13:29:09.681,6036856.0
13:29:09.721,6036498.0
13:29:09.761,6036650.0
13:29:09.801,6036781.0
13:29:09.841,6036911.0
13:29:09.881,6043800.0
13:29:09.921,6035316.0
13:29:09.961,6037332.0
13:29:10.001,6037767.0
13:29:10.041,6037685.0
13:29:10.081,6037349.0
13:29:10.121,6037038.0
13:29:10.161,6037353.0
13:29:10.201,6037232.0
13:29:10.241,6036872.0
13:29:10.281,6036400.0
13:29:10.321,6037067.0
13:29:10.361,6037333.0
13:29:10.401,6036815.0
13:29:10.441,6036941.0
13:29:10.481,6036476.0
13:29:10.521,6036709.0
13:29:10.561,6037920.0
13:29:10.601,6031352.0
13:29:10.641,6036383.0
13:29:10.681,6037794.0
13:29:10.721,6037996.0
13:29:10.761,6037280.0
13:29:10.801,6037177.0
13:29:10.841,6037337.0
13:29:10.881,6036925.0
13:29:10.921,6037128.0
13:29:09.530,6037223.0
13:29:09.570,6036441.0
13:29:09.610,6037964.0
13:29:09.650,6032142.0
13:29:09.690,6036022.0
13:29:09.730,6037001.0
13:29:09.770,6037907.0
13:29:09.810,6037605.0
13:29:09.850,6036653.0
13:29:09.890,6036870.0
13:29:09.930,6037067.0
13:29:09.970,6036905.0
13:29:10.010,6036405.0
13:29:10.050,6036559.0
13:29:10.090,6036989.0
13:29:10.130,6036492.0
13:29:10.170,6036374.0
13:29:10.210,6036784.0
13:29:10.250,6041229.0
13:29:10.290,6035564.0
13:29:10.330,6037015.0
13:29:10.370,6037745.0
13:29:10.410,6037759.0
13:29:10.450,6037368.0
13:29:10.490,6037647.0
13:29:10.530,6037625.0
13:29:10.570,6037104.0
13:29:10.610,6036640.0
13:29:10.650,6036636.0
13:29:10.690,6037012.0
13:29:10.730,6036748.0
13:29:10.770,6036890.0
13:29:10.810,6038040.0
13:29:10.850,6029158.0
13:29:10.890,6036670.0
13:29:10.930,6037613.0
13:29:10.970,6037645.0
13:29:11.010,6037357.0
13:29:11.050,6037444.0
13:29:11.090,6037298.0
13:29:11.130,6037115.0
13:29:11.170,6036899.0
13:29:11.210,6036542.0
13:29:11.250,6036491.0
13:29:11.290,6036880.0
13:29:11.330,6036470.0
13:29:11.370,6036939.0
13:29:11.410,6036395.0
13:29:11.450,6037863.0
13:29:11.490,6030124.0
13:29:11.530,6036405.0
13:29:11.570,6037203.0
13:29:11.610,6037010.0
13:29:11.650,6036891.0
13:29:11.690,6037049.0
13:29:11.730,6036668.0
13:29:11.770,6036451.0
13:29:11.810,6036894.0
13:29:11.850,6036243.0
13:29:11.890,6036322.0
13:29:11.930,6037007.0
13:29:11.970,6037043.0
13:29:12.010,6036771.0
13:29:12.050,6039929.0
13:29:12.090,6035655.0
13:29:12.130,6037339.0
13:29:12.170,6037436.0
13:29:12.210,6037410.0
13:29:12.250,6037537.0
13:29:12.290,6037451.0
13:29:12.330,6037219.0
13:29:12.370,6037762.0
13:29:12.410,6037413.0
13:29:12.450,6036981.0
13:29:12.490,6037560.0
13:29:12.530,6037549.0
13:29:12.570,6037527.0
13:29:12.610,6046550.0
13:29:12.650,6035928.0
13:29:12.690,6038004.0
13:29:12.730,6038211.0
13:29:12.770,6038151.0
13:29:12.810,6038084.0
13:29:12.850,6038298.0
13:29:12.890,6038455.0
13:29:12.930,6038682.0
13:29:12.970,6038740.0
13:29:13.010,6038644.0
13:29:13.050,6039191.0
13:29:13.090,6039293.0
13:29:13.130,6039082.0
13:29:13.170,6039147.0
13:29:13.210,6039135.0
13:29:13.250,6038936.0
13:29:13.290,6043970.0
13:29:13.330,6036805.0
13:29:13.370,6039468.0
13:29:13.410,6039602.0
13:29:13.450,6039890.0
13:29:13.490,6039191.0
13:29:13.308,6039079.0
13:29:13.348,6038816.0
13:29:13.388,6038336.0
13:29:13.428,6038548.0
13:29:13.468,6038094.0
13:29:13.508,6037581.0
13:29:13.548,6042816.0
13:29:13.588,6034964.0
13:29:13.628,6038031.0
13:29:13.668,6038164.0
13:29:13.708,6038697.0
13:29:13.748,6038370.0
13:29:13.788,6037777.0
13:29:13.828,6037364.0
13:29:13.868,6037604.0
13:29:13.908,6037469.0
13:29:13.948,6036610.0
13:29:13.988,6037175.0
13:29:14.028,6037815.0
13:29:14.068,6043040.0
13:29:14.108,6035206.0
13:29:14.148,6037386.0
13:29:14.188,6038232.0
13:29:14.228,6038873.0
13:29:14.268,6038370.0
13:29:14.308,6038140.0
13:29:14.348,6038158.0
13:29:14.388,6037665.0
13:29:14.428,6037314.0
13:29:14.468,6037211.0
13:29:14.508,6037375.0
13:29:14.548,6037351.0
13:29:14.588,6037364.0
13:29:14.628,6037069.0
13:29:14.668,6036618.0
13:29:14.708,6041062.0
13:29:14.748,6033484.0
13:29:14.788,6037880.0
13:29:14.828,6038322.0
13:29:14.868,6038256.0
13:29:14.908,6038049.0
13:29:14.948,6037971.0
13:29:14.988,6037510.0
13:29:15.028,6038083.0
13:29:15.068,6038424.0
13:29:15.108,6037782.0
13:29:15.148,6038601.0
13:29:15.188,6043166.0
13:29:15.228,6039968.0
13:29:15.268,6031854.0
13:29:15.308,6030762.0
13:29:15.348,6038038.0
13:29:15.388,6038871.0
13:29:15.428,6039838.0
13:29:15.468,6041265.0
13:29:15.508,6041542.0
13:29:15.548,6040481.0
13:29:15.588,6039288.0
13:29:15.628,6038297.0
13:29:15.668,6037971.0
13:29:15.708,6037687.0
13:29:15.748,6037566.0
13:29:15.788,6037123.0
13:29:15.828,6037469.0
13:29:15.868,6037440.0
13:29:15.908,6037553.0
13:29:15.948,6041761.0
13:29:15.988,6035033.0
13:29:16.028,6037784.0
13:29:16.068,6037878.0
13:29:16.108,6037791.0
13:29:16.148,6037256.0
13:29:16.188,6036893.0
13:29:16.228,6036671.0
13:29:16.268,6037475.0
13:29:16.308,6037826.0
13:29:16.348,6037419.0
13:29:16.388,6038800.0
13:29:16.428,6049074.0
13:29:16.468,6039940.0
13:29:16.508,6035617.0
13:29:16.548,6035558.0
13:29:16.588,6035161.0
13:29:16.628,6034430.0
13:29:16.668,6034444.0
13:29:16.708,6035383.0
13:29:16.748,6036716.0
13:29:16.788,6037413.0
13:29:16.828,6037000.0
13:29:16.868,6037267.0
13:29:16.908,6037533.0
13:29:16.948,6037478.0
13:29:16.988,6037037.0
13:29:17.028,6036980.0
13:29:17.068,6037275.0
13:29:17.108,6037198.0
13:29:17.148,6037126.0
13:29:17.188,6037087.0
13:29:17.228,6039079.0
13:29:17.268,6030311.0
13:29:18.169,6037034.0
13:29:18.209,6037751.0
13:29:18.249,6037296.0
13:29:18.289,6037674.0
13:29:18.329,6038638.0
13:29:18.369,6039865.0
13:29:18.409,6050902.0
13:29:18.449,6049898.0
13:29:18.489,6036171.0
13:29:18.529,6034811.0
13:29:18.569,6033691.0
13:29:18.609,6031631.0
13:29:18.649,6030291.0
13:29:18.689,6031421.0
13:29:18.729,6033903.0
13:29:18.769,6036213.0
13:29:18.809,6036948.0
13:29:18.849,6036754.0
13:29:18.889,6037362.0
13:29:18.929,6037706.0
13:29:18.969,6037375.0
13:29:19.009,6037441.0
13:29:19.049,6037545.0
13:29:19.089,6039643.0
13:29:19.129,6031191.0
13:29:19.169,6037719.0
13:29:19.209,6038859.0
13:29:19.249,6038367.0
13:29:19.289,6037932.0
13:29:19.329,6038202.0
13:29:19.369,6037867.0
13:29:19.409,6037912.0
13:29:19.449,6038474.0
13:29:19.489,6038114.0
13:29:19.529,6038590.0
13:29:19.569,6043013.0
13:29:19.609,6045457.0
13:29:19.649,6036234.0
13:29:19.689,6036442.0
13:29:19.729,6036624.0
13:29:19.769,6036451.0
13:29:19.809,6035831.0
13:29:19.849,6036441.0
13:29:19.889,6037307.0
13:29:19.929,6037784.0
13:29:19.969,6038295.0
13:29:20.009,6037837.0
13:29:20.049,6037539.0
13:29:20.089,6037456.0
13:29:20.129,6037558.0
13:29:20.169,6037416.0
13:29:20.209,6037068.0
13:29:20.249,6036938.0
13:29:20.289,6037183.0
13:29:20.329,6038344.0
13:29:20.369,6031190.0
13:29:20.409,6036268.0
13:29:20.449,6037735.0
13:29:20.489,6037962.0
13:29:20.529,6036867.0
13:29:20.569,6037194.0
13:29:20.609,6037248.0
13:29:20.649,6037998.0
13:29:20.689,6038229.0
13:29:20.729,6037592.0
13:29:20.769,6039176.0
13:29:20.809,6044065.0
13:29:20.849,6054932.0
13:29:20.889,6036839.0
13:29:20.929,6036541.0
13:29:20.969,6035396.0
13:29:21.009,6034584.0
13:29:21.049,6034308.0
13:29:21.089,6034377.0
13:29:21.129,6035898.0
13:29:21.169,6037276.0
13:29:21.209,6038208.0
13:29:21.249,6038209.0
13:29:21.289,6037857.0
13:29:21.329,6038426.0
13:29:21.369,6038924.0
13:29:21.409,6038596.0
13:29:21.449,6038153.0
13:29:21.489,6038377.0
13:29:21.529,6038538.0
13:29:21.569,6038208.0
13:29:21.609,6038506.0
13:29:21.649,6038889.0
13:29:21.689,6045139.0
13:29:21.729,6036842.0
13:29:21.769,6039038.0
13:29:21.809,6039046.0
13:29:21.849,6038738.0
13:29:21.889,6038191.0
13:29:21.929,6037918.0
13:29:21.969,6038526.0
13:29:22.009,6038490.0
13:29:22.049,6038618.0
13:29:22.089,6039196.0
13:29:22.129,6040666.0
13:29:22.264,6046908.0
13:29:22.304,6038638.0
13:29:22.344,6038838.0
13:29:22.384,6038606.0
13:29:22.424,6038733.0
13:29:22.464,6038889.0
13:29:22.504,6038939.0
13:29:22.544,6038647.0
13:29:22.584,6039060.0
13:29:22.624,6039047.0
13:29:22.664,6039063.0
13:29:22.704,6044208.0
13:29:22.744,6037371.0
13:29:22.784,6039590.0
13:29:22.824,6039628.0
13:29:22.864,6038981.0
13:29:22.904,6038950.0
13:29:22.944,6038684.0
13:29:22.984,6037992.0
13:29:23.024,6039119.0
13:29:23.064,6039886.0
13:29:23.104,6039431.0
13:29:23.144,6040590.0
13:29:23.184,6045322.0
13:29:23.224,6059053.0
13:29:23.264,6039888.0
13:29:23.304,6036789.0
13:29:23.344,6035521.0
13:29:23.384,6033930.0
13:29:23.424,6031092.0
13:29:23.464,6030415.0
13:29:23.504,6033348.0
13:29:23.544,6036519.0
13:29:23.584,6037550.0
13:29:23.624,6038458.0
13:29:23.664,6038679.0
13:29:23.704,6038430.0
13:29:23.744,6038988.0
13:29:23.784,6039068.0
13:29:23.824,6039005.0
13:29:23.864,6038943.0
13:29:23.904,6038862.0
13:29:23.944,6042044.0
13:29:23.984,6033087.0
13:29:24.024,6039197.0
13:29:24.064,6039944.0
13:29:24.104,6040464.0
13:29:24.144,6039122.0
13:29:24.184,6039118.0
13:29:24.224,6039417.0
13:29:24.264,6040026.0
13:29:24.304,6039765.0
13:29:24.344,6039451.0
13:29:24.384,6040392.0
13:29:24.424,6047231.0
13:29:24.464,6040568.0
13:29:24.504,6036945.0
13:29:24.544,6038187.0
13:29:24.584,6038702.0
13:29:24.624,6038723.0
13:29:24.664,6038044.0
13:29:24.704,6038704.0
13:29:24.744,6039017.0
13:29:24.784,6039280.0
13:29:24.824,6039469.0
13:29:24.864,6039474.0
13:29:24.904,6039233.0
13:29:24.944,6039141.0
13:29:24.984,6039324.0
13:29:25.024,6039471.0
13:29:25.064,6039269.0
13:29:25.104,6038972.0
13:29:25.144,6038966.0
13:29:25.184,6039260.0
13:29:25.224,6040135.0
13:29:25.264,6031976.0
13:29:25.304,6038342.0
13:29:25.344,6039713.0
13:29:25.384,6039687.0
13:29:25.424,6038846.0
13:29:25.464,6038622.0
13:29:25.504,6038792.0
13:29:25.544,6039165.0
13:29:25.584,6039045.0
13:29:25.624,6039205.0
13:29:25.664,6040231.0
13:29:25.704,6043868.0
13:29:25.744,6045841.0
13:29:25.784,6036944.0
13:29:25.824,6038458.0
13:29:25.864,6038099.0
13:29:25.904,6038486.0
13:29:25.944,6038069.0
13:29:25.984,6038269.0
13:29:26.024,6038794.0
13:29:26.064,6038996.0
13:29:26.104,6039408.0
13:29:26.144,6039292.0
13:29:26.184,6039477.0
13:29:26.224,6039209.0
13:29:27.183,6039312.0
13:29:27.223,6047428.0
13:29:27.263,6038114.0
13:29:27.303,6040168.0
13:29:27.343,6040216.0
13:29:27.383,6039969.0
13:29:27.423,6039658.0
13:29:27.463,6039030.0
13:29:27.503,6039137.0
13:29:27.543,6040106.0
13:29:27.583,6040063.0
13:29:27.623,6040129.0
13:29:27.663,6042475.0
13:29:27.703,6057935.0
13:29:27.743,6037187.0
13:29:27.783,6038347.0
13:29:27.823,6037153.0
13:29:27.863,6036125.0
13:29:27.903,6034785.0
13:29:27.943,6034814.0
13:29:27.983,6036311.0
13:29:28.023,6038285.0
13:29:28.063,6039987.0
13:29:28.103,6039855.0
13:29:28.143,6039386.0
13:29:28.183,6039573.0
13:29:28.223,6040186.0
13:29:28.263,6040180.0
13:29:28.303,6039727.0
13:29:28.343,6039541.0
13:29:28.383,6039746.0
13:29:28.423,6039845.0
13:29:28.463,6039658.0
13:29:28.503,6046726.0
13:29:28.543,6038466.0
13:29:28.583,6040137.0
13:29:28.623,6040343.0
13:29:28.663,6040434.0
13:29:28.703,6040330.0
13:29:28.743,6039693.0
13:29:28.783,6040343.0
13:29:28.823,6041057.0
13:29:28.863,6040830.0
13:29:28.903,6041139.0
13:29:28.943,6042735.0
13:29:28.983,6054479.0
13:29:29.023,6043125.0
13:29:29.063,6041107.0
13:29:29.103,6040001.0
13:29:29.143,6039764.0
13:29:29.183,6038969.0
13:29:29.223,6039186.0
13:29:29.263,6039650.0
13:29:29.303,6040512.0
13:29:29.343,6041093.0
13:29:29.383,6041803.0
13:29:29.423,6041575.0
13:29:29.463,6041338.0
13:29:29.503,6041597.0
13:29:29.543,6041984.0
13:29:29.583,6041619.0
13:29:29.623,6041658.0
13:29:29.663,6041931.0
13:29:29.703,6042126.0
13:29:29.743,6041867.0
13:29:29.783,6043461.0
13:29:29.823,6035577.0
13:29:29.863,6042191.0
13:29:29.903,6042780.0
13:29:29.943,6042911.0
13:29:29.983,6042534.0
13:29:30.023,6042080.0
13:29:30.063,6041991.0
13:29:30.103,6042469.0
13:29:30.143,6043248.0
13:29:30.183,6042952.0
13:29:30.223,6043737.0
13:29:30.263,6049530.0
13:29:30.303,6049276.0
13:29:30.343,6041779.0
13:29:30.383,6042061.0
13:29:30.423,6041816.0
13:29:30.463,6041561.0
13:29:30.503,6041118.0
13:29:30.543,6041371.0
13:29:30.583,6042885.0
13:29:30.623,6043329.0
13:29:30.663,6043920.0
13:29:30.703,6043677.0
13:29:30.743,6043549.0
13:29:30.783,6043312.0
13:29:30.823,6043419.0
13:29:30.863,6043730.0
13:29:30.903,6043643.0
13:29:30.943,6043527.0
13:29:30.983,6043508.0
13:29:31.023,6043740.0
13:29:31.063,6043581.0
13:29:31.103,6050903.0
13:29:31.143,6042359.0
13:29:30.353,6044028.0
13:29:30.393,6044329.0
13:29:30.433,6044101.0
13:29:30.473,6045065.0
13:29:30.513,6049047.0
13:29:30.553,6060719.0
13:29:30.593,6041399.0
13:29:30.633,6042192.0
13:29:30.673,6041807.0
13:29:30.713,6041195.0
13:29:30.753,6040382.0
13:29:30.793,6041076.0
13:29:30.833,6042011.0
13:29:30.873,6042902.0
13:29:30.913,6044526.0
13:29:30.953,6044466.0
13:29:30.993,6044391.0
13:29:31.033,6044979.0
13:29:31.073,6045153.0
13:29:31.113,6045162.0
13:29:31.153,6049451.0
13:29:31.193,6039806.0
13:29:31.233,6046170.0
13:29:31.273,6047208.0
13:29:31.313,6047211.0
13:29:31.353,6046641.0
13:29:31.393,6046657.0
13:29:31.433,6047238.0
13:29:31.473,6047223.0
13:29:31.513,6046520.0
13:29:31.553,6046892.0
13:29:31.593,6047742.0
13:29:31.633,6047614.0
13:29:31.673,6047463.0
13:29:31.713,6047336.0
13:29:31.753,6047083.0
13:29:31.793,6046994.0
13:29:31.833,6047111.0
13:29:31.873,6047627.0
13:29:31.913,6051624.0
13:29:31.953,6043047.0
13:29:31.993,6048402.0
13:29:32.033,6048904.0
13:29:32.073,6048596.0
13:29:32.113,6048243.0
13:29:32.153,6048331.0
13:29:32.193,6048204.0
13:29:32.233,6048167.0
13:29:32.273,6048553.0
13:29:32.313,6048445.0
13:29:32.353,6049162.0
13:29:32.393,6049598.0
13:29:32.433,6048815.0
13:29:32.473,6049195.0
13:29:32.513,6053632.0
13:29:32.553,6046772.0
13:29:32.593,6049479.0
13:29:32.633,6050259.0
13:29:32.673,6050800.0
13:29:32.713,6050100.0
13:29:32.753,6050278.0
13:29:32.793,6050365.0
13:29:32.833,6049950.0
13:29:32.873,6050259.0
13:29:32.913,6049840.0
13:29:32.953,6050035.0
13:29:32.993,6050404.0
13:29:33.033,6049775.0
13:29:33.073,6049797.0
13:29:33.113,6049661.0
13:29:33.153,6057446.0
13:29:33.193,6048645.0
13:29:33.233,6050217.0
13:29:33.273,6050558.0
13:29:33.313,6050807.0
13:29:33.353,6050412.0
13:29:33.393,6050280.0
13:29:33.433,6050393.0
13:29:33.473,6050833.0
13:29:33.513,6051595.0
13:29:33.553,6051326.0
13:29:33.593,6051538.0
13:29:33.633,6051691.0
13:29:33.673,6051818.0
13:29:33.713,6051960.0
13:29:33.753,6051595.0
13:29:33.793,6052223.0
13:29:33.833,6052738.0
13:29:33.873,6052627.0
13:29:33.913,6053312.0
13:29:33.953,6054308.0
13:29:33.993,6052591.0
13:29:34.033,6054031.0
13:29:34.073,6054886.0
13:29:34.113,6055349.0
13:29:34.153,6054579.0
13:29:34.193,6054228.0
13:29:34.233,6054846.0
13:29:34.273,6055608.0
13:29:34.313,6054998.0
13:29:36.358,6055446.0
13:29:36.398,6052327.0
13:29:36.438,6057187.0
13:29:36.478,6057968.0
13:29:36.518,6058553.0
13:29:36.558,6058673.0
13:29:36.598,6058411.0
13:29:36.638,6058392.0
13:29:36.678,6058182.0
13:29:36.718,6057618.0
13:29:36.758,6057696.0
13:29:36.798,6058091.0
13:29:36.838,6058017.0
13:29:36.878,6057986.0
13:29:36.918,6058482.0
13:29:36.958,6058435.0
13:29:36.998,6057601.0
13:29:37.038,6059719.0
13:29:37.078,6060552.0
13:29:37.118,6060219.0
13:29:37.158,6060318.0
13:29:37.198,6060853.0
13:29:37.238,6060948.0
13:29:37.278,6060883.0
13:29:37.318,6061200.0
13:29:37.358,6061406.0
13:29:37.398,6062170.0
13:29:37.438,6062103.0
13:29:37.478,6062601.0
13:29:37.518,6063005.0
13:29:37.558,6062925.0
13:29:37.598,6063313.0
13:29:37.638,6064067.0
13:29:37.678,6070495.0
13:29:37.718,6063061.0
13:29:37.758,6065285.0
13:29:37.798,6066385.0
13:29:37.838,6066558.0
13:29:37.878,6065985.0
13:29:37.918,6066079.0
13:29:37.958,6066660.0
13:29:37.998,6067182.0
13:29:38.038,6067576.0
13:29:38.078,6067769.0
13:29:38.118,6068590.0
13:29:38.158,6068429.0
13:29:38.198,6068067.0
13:29:38.238,6068919.0
13:29:38.278,6068549.0
13:29:38.318,6068775.0
13:29:38.358,6069466.0
13:29:38.398,6069785.0
13:29:38.438,6078862.0
13:29:38.478,6069055.0
13:29:38.518,6071571.0
13:29:38.558,6071612.0
13:29:38.598,6071841.0
13:29:38.638,6071570.0
13:29:38.678,6071681.0
13:29:38.718,6071517.0
13:29:38.758,6072000.0
13:29:38.798,6072976.0
13:29:38.838,6072482.0
13:29:38.878,6072787.0
13:29:38.918,6073199.0
13:29:38.958,6073061.0
13:29:38.998,6073245.0
13:29:39.038,6073409.0
13:29:39.078,6075367.0
13:29:39.118,6072305.0
13:29:39.158,6074286.0
13:29:39.198,6074850.0
13:29:39.238,6074799.0
13:29:39.278,6074695.0
13:29:39.318,6074753.0
13:29:39.358,6074534.0
13:29:39.398,6074346.0
13:29:39.438,6074051.0
13:29:39.478,6070490.0
13:29:39.518,6071573.0
13:29:39.558,6070495.0
13:29:39.598,6075488.0
13:29:39.638,6075680.0
13:29:39.678,6075602.0
13:29:39.718,6076680.0
13:29:39.758,6077063.0
13:29:39.798,6076542.0
13:29:39.838,6075662.0
13:29:39.878,6075191.0
13:29:39.918,6075240.0
13:29:39.958,6074720.0
13:29:39.998,6074798.0
13:29:40.038,6075032.0
13:29:40.078,6075195.0
13:29:40.118,6075400.0
13:29:40.158,6075377.0
13:29:40.198,6075245.0
13:29:40.238,6075079.0
13:29:40.278,6075320.0
13:29:40.318,6075718.0
13:29:39.888,6076063.0
13:29:39.928,6076985.0
13:29:39.968,6076565.0
13:29:40.008,6076567.0
13:29:40.048,6076720.0
13:29:40.088,6076919.0
13:29:40.128,6077421.0
13:29:40.168,6077840.0
13:29:40.208,6077836.0
13:29:40.248,6079785.0
13:29:40.288,6086124.0
13:29:40.328,6075158.0
13:29:40.368,6076923.0
13:29:40.408,6076910.0
13:29:40.448,6077125.0
13:29:40.488,6077475.0
13:29:40.528,6077890.0
13:29:40.568,6078378.0
13:29:40.608,6078766.0
13:29:40.648,6079073.0
13:29:40.688,6078896.0
13:29:40.728,6078753.0
13:29:40.768,6079060.0
13:29:40.808,6079028.0
13:29:40.848,6078683.0
13:29:40.888,6078689.0
13:29:40.928,6078751.0
13:29:40.968,6078581.0
13:29:41.008,6078345.0
13:29:41.048,6083852.0
13:29:41.088,6076669.0
13:29:41.128,6078987.0
13:29:41.168,6079034.0
13:29:41.208,6079407.0
13:29:41.248,6078126.0
13:29:41.288,6077776.0
13:29:41.328,6078493.0
13:29:41.368,6079079.0
13:29:41.408,6078856.0
13:29:41.448,6079502.0
13:29:41.488,6079987.0
13:29:41.528,6081558.0
13:29:41.568,6089472.0
13:29:41.608,6097334.0
13:29:41.648,6078781.0
13:29:41.688,6077253.0
13:29:41.728,6076223.0
13:29:41.768,6074083.0
13:29:41.808,6072312.0
13:29:41.848,6072912.0
13:29:41.888,6075995.0
13:29:41.928,6078664.0
13:29:41.968,6080011.0
13:29:42.008,6079762.0
13:29:42.048,6080005.0
13:29:42.088,6080930.0
13:29:42.128,6081110.0
13:29:42.168,6080881.0
13:29:42.208,6080926.0
13:29:42.248,6081565.0
13:29:42.288,6081552.0
13:29:42.328,6081416.0
13:29:42.368,6082786.0
13:29:42.408,6074451.0
13:29:42.448,6081678.0
13:29:42.488,6082501.0
13:29:42.528,6082364.0
13:29:42.568,6082608.0
13:29:42.608,6081980.0
13:29:42.648,6082153.0
13:29:42.688,6082666.0
13:29:42.728,6082838.0
13:29:42.768,6082629.0
13:29:42.808,6083074.0
13:29:42.848,6089410.0
13:29:42.888,6086030.0
13:29:42.928,6083453.0
13:29:42.968,6081732.0
13:29:43.008,6081983.0
13:29:43.048,6081886.0
13:29:43.088,6082049.0
13:29:43.128,6082252.0
13:29:43.168,6082789.0
13:29:43.208,6083511.0
13:29:43.248,6083759.0
13:29:43.288,6083524.0
13:29:43.328,6083297.0
13:29:43.368,6083259.0
13:29:43.408,6083082.0
13:29:43.448,6083122.0
13:29:43.488,6082913.0
13:29:43.528,6082887.0
13:29:43.568,6091696.0
13:29:43.608,6081427.0
13:29:43.648,6083156.0
13:29:43.688,6083328.0
13:29:43.728,6082753.0
13:29:43.768,6082248.0
13:29:43.808,6081826.0
13:29:43.848,6081666.0
13:29:43.704,6082275.0
13:29:43.744,6079804.0
13:29:43.784,6077762.0
13:29:43.824,6076542.0
13:29:43.864,6074096.0
13:29:43.904,6071816.0
13:29:43.944,6072817.0
13:29:43.984,6076137.0
13:29:44.024,6078490.0
13:29:44.064,6079590.0
13:29:44.104,6079613.0
13:29:44.144,6079992.0
13:29:44.184,6080191.0
13:29:44.224,6080353.0
13:29:44.264,6083158.0
13:29:44.304,6073786.0
13:29:44.344,6080706.0
13:29:44.384,6081828.0
13:29:44.424,6082684.0
13:29:44.464,6081591.0
13:29:44.504,6082185.0
13:29:44.544,6082825.0
13:29:44.584,6082763.0
13:29:44.624,6082191.0
13:29:44.664,6082568.0
13:29:44.704,6082737.0
13:29:44.744,6082687.0
13:29:44.784,6083501.0
13:29:44.824,6091386.0
13:29:44.864,6098423.0
13:29:44.904,6082198.0
13:29:44.944,6080050.0
13:29:44.984,6079151.0
13:29:45.024,6076937.0
13:29:45.064,6074538.0
13:29:45.104,6074008.0
13:29:45.144,6076944.0
13:29:45.184,6079855.0
13:29:45.224,6080742.0
13:29:45.264,6081013.0
13:29:45.304,6081269.0
13:29:45.344,6081309.0
13:29:45.384,6081425.0
13:29:45.424,6080819.0
13:29:45.464,6080500.0
13:29:45.504,6080289.0
13:29:45.544,6079986.0
13:29:45.584,6080841.0
13:29:45.624,6071449.0
13:29:45.664,6078186.0
13:29:45.704,6078507.0
13:29:45.744,6077875.0
13:29:45.784,6076633.0
13:29:45.824,6075856.0
13:29:45.864,6075231.0
13:29:45.904,6074723.0
13:29:45.944,6074619.0
13:29:45.984,6073985.0
13:29:46.024,6074342.0
13:29:46.064,6081477.0
13:29:46.104,6074971.0
13:29:46.144,6072554.0
13:29:46.184,6070795.0
13:29:46.224,6070747.0
13:29:46.264,6070807.0
13:29:46.304,6070615.0
13:29:46.344,6070881.0
13:29:46.384,6070827.0
13:29:46.424,6070758.0
13:29:46.464,6070867.0
13:29:46.504,6070434.0
13:29:46.544,6070306.0
13:29:46.584,6070066.0
13:29:46.624,6069767.0
13:29:46.664,6069702.0
13:29:46.704,6069880.0
13:29:46.744,6069840.0
13:29:46.784,6069945.0
13:29:46.824,6070026.0
13:29:46.864,6070544.0
13:29:46.904,6072837.0
13:29:46.944,6064200.0
13:29:46.984,6070604.0
13:29:47.024,6071355.0
13:29:47.064,6070964.0
13:29:47.104,6069530.0
13:29:47.144,6069028.0
13:29:47.184,6069849.0
13:29:47.224,6069743.0
13:29:47.264,6069664.0
13:29:47.304,6070189.0
13:29:47.344,6070251.0
13:29:47.384,6070989.0
13:29:47.424,6080912.0
13:29:47.464,6073332.0
13:29:47.504,6068476.0
13:29:47.544,6068269.0
13:29:47.584,6068126.0
13:29:47.624,6067115.0
13:29:47.664,6067201.0
13:30:01.957,6141942.0
13:30:01.997,6135767.0
13:30:02.037,6136216.0
13:30:02.077,6136942.0
13:30:02.117,6138375.0
13:30:02.157,6138577.0
13:30:02.197,6138330.0
13:30:02.237,6138197.0
13:30:02.277,6138072.0
13:30:02.317,6138072.0
13:30:02.357,6137571.0
13:30:02.397,6142555.0
13:30:02.437,6134045.0
13:30:02.477,6136400.0
13:30:02.517,6136463.0
13:30:02.557,6135844.0
13:30:02.597,6135335.0
13:30:02.637,6135520.0
13:30:02.677,6135172.0
13:30:02.717,6134666.0
13:30:02.757,6134659.0
13:30:02.797,6134640.0
13:30:02.837,6134905.0
13:30:02.877,6135325.0
13:30:02.917,6135061.0
13:30:02.957,6134572.0
13:30:02.997,6133886.0
13:30:03.037,6133915.0
13:30:03.077,6133120.0
13:30:03.117,6132578.0
13:30:03.157,6133698.0
13:30:03.197,6133674.0
13:30:03.237,6134428.0
13:30:03.277,6134836.0
13:30:03.317,6135151.0
13:30:03.357,6135273.0
13:30:03.397,6134653.0
13:30:03.437,6133632.0
13:30:03.477,6131215.0
13:30:03.517,6125152.0
13:30:03.557,6121363.0
13:30:03.597,6119474.0
13:30:03.637,6118593.0
13:30:03.677,6124328.0
13:30:03.717,6115462.0
13:30:03.757,6116892.0
13:30:03.797,6116820.0
13:30:03.837,6116848.0
13:30:03.877,6116291.0
13:30:03.917,6116265.0
13:30:03.957,6116252.0
13:30:03.997,6116564.0
13:30:04.037,6117129.0
13:30:04.077,6116763.0
13:30:04.117,6116826.0
13:30:04.157,6116952.0
13:30:04.197,6116281.0
13:30:04.237,6116023.0
13:30:04.277,6116033.0
13:30:04.317,6117586.0
13:30:04.357,6110785.0
13:30:04.397,6115439.0
13:30:04.437,6116226.0
13:30:04.477,6116271.0
13:30:04.517,6115930.0
13:30:04.557,6115372.0
13:30:04.597,6115407.0
13:30:04.637,6115146.0
13:30:04.677,6115147.0
13:30:04.717,6114827.0
13:30:04.757,6114471.0
13:30:04.797,6114720.0
13:30:04.837,6114023.0
13:30:04.877,6113837.0
13:30:04.917,6109064.0
13:30:04.957,6110346.0
13:30:04.997,6110723.0
13:30:05.037,6110068.0
13:30:05.077,6109185.0
13:30:05.117,6108726.0
13:30:05.157,6109072.0
13:30:05.197,6109708.0
13:30:05.237,6110006.0
13:30:05.277,6110394.0
13:30:05.317,6110625.0
13:30:05.357,6111653.0
13:30:05.397,6111687.0
13:30:05.437,6111142.0
13:30:05.477,6110763.0
13:30:05.517,6110963.0
13:30:05.557,6112782.0
13:30:05.597,6102513.0
13:30:05.637,6109379.0
13:30:05.677,6110241.0
13:30:05.717,6110041.0
13:30:05.757,6109971.0
13:30:05.797,6110017.0
13:30:05.837,6109815.0
13:30:05.877,6109972.0
13:30:05.917,6111293.0
13:30:08.854,6116081.0
13:30:08.894,6114092.0
13:30:08.934,6114053.0
13:30:08.974,6112751.0
13:30:09.014,6111998.0
13:30:09.054,6112235.0
13:30:09.094,6111949.0
13:30:09.134,6110729.0
13:30:09.174,6109979.0
13:30:09.214,6109848.0
13:30:09.254,6108864.0
13:30:09.294,6108674.0
13:30:09.334,6108567.0
13:30:09.374,6109251.0
13:30:09.414,6111384.0
13:30:09.454,6103873.0
13:30:09.494,6109504.0
13:30:09.534,6111155.0
13:30:09.574,6111150.0
13:30:09.614,6110765.0
13:30:09.654,6111391.0
13:30:09.694,6111691.0
13:30:09.734,6112364.0
13:30:09.774,6113352.0
13:30:09.814,6113188.0
13:30:09.854,6115272.0
13:30:09.894,6118596.0
13:30:09.934,6132141.0
13:30:09.974,6111733.0
13:30:10.014,6115172.0
13:30:10.054,6115737.0
13:30:10.094,6116629.0
13:30:10.134,6116952.0
13:30:10.174,6118571.0
13:30:10.214,6120343.0
13:30:10.254,6122851.0
13:30:10.294,6121137.0
13:30:10.334,6120757.0
13:30:10.374,6122995.0
13:30:10.414,6124577.0
13:30:10.454,6126424.0
13:30:10.494,6127696.0
13:30:10.534,6128490.0
13:30:10.574,6129885.0
13:30:10.614,6131092.0
13:30:10.654,6132425.0
13:30:10.694,6133143.0
13:30:10.734,6135314.0
13:30:10.774,6129060.0
13:30:10.814,6134829.0
13:30:10.854,6136305.0
13:30:10.894,6136387.0
13:30:10.934,6135817.0
13:30:10.974,6134408.0
13:30:11.014,6132674.0
13:30:11.054,6130263.0
13:30:11.094,6129737.0
13:30:11.134,6130295.0
13:30:11.174,6132145.0
13:30:11.214,6139605.0
13:30:11.254,6141944.0
13:30:11.294,6135563.0
13:30:11.334,6135437.0
13:30:11.374,6136934.0
13:30:11.414,6137403.0
13:30:11.454,6137640.0
13:30:11.494,6138246.0
13:30:11.534,6138933.0
13:30:11.574,6139500.0
13:30:11.614,6139295.0
13:30:11.654,6138810.0
13:30:11.694,6138608.0
13:30:11.734,6138558.0
13:30:11.774,6136500.0
13:30:11.814,6133987.0
13:30:11.854,6131308.0
13:30:11.894,6130529.0
13:30:11.934,6130554.0
13:30:11.974,6129738.0
13:30:12.014,6129135.0
13:30:12.054,6124562.0
13:30:12.094,6124865.0
13:30:12.134,6123238.0
13:30:12.174,6123054.0
13:30:12.214,6122369.0
13:30:12.254,6121743.0
13:30:12.294,6121893.0
13:30:12.334,6122394.0
13:30:12.374,6123100.0
13:30:12.414,6122640.0
13:30:12.454,6123219.0
13:30:12.494,6125112.0
13:30:12.534,6133375.0
13:30:12.574,6142919.0
13:30:12.614,6120040.0
13:30:12.654,6117705.0
13:30:12.694,6115637.0
13:30:12.734,6112643.0
13:30:12.774,6109921.0
13:30:12.814,6109796.0
13:30:10.909,6112129.0
13:30:10.949,6111722.0
13:30:10.989,6110770.0
13:30:11.029,6110184.0
13:30:11.069,6109331.0
13:30:11.109,6108613.0
13:30:11.149,6108304.0
13:30:11.189,6107555.0
13:30:11.229,6106918.0
13:30:11.269,6106492.0
13:30:11.309,6110785.0
13:30:11.349,6102468.0
13:30:11.389,6104281.0
13:30:11.429,6104640.0
13:30:11.469,6104341.0
13:30:11.509,6103277.0
13:30:11.549,6102894.0
13:30:11.589,6104012.0
13:30:11.629,6103777.0
13:30:11.669,6103409.0
13:30:11.709,6103582.0
13:30:11.749,6104377.0
13:30:11.789,6111434.0
13:30:11.829,6099326.0
13:30:11.869,6100678.0
13:30:11.909,6098548.0
13:30:11.949,6098819.0
13:30:11.989,6099579.0
13:30:12.029,6100211.0
13:30:12.069,6101216.0
13:30:12.109,6100402.0
13:30:12.149,6099748.0
13:30:12.189,6099788.0
13:30:12.229,6099503.0
13:30:12.269,6100201.0
13:30:12.309,6101860.0
13:30:12.349,6099826.0
13:30:12.389,6092947.0
13:30:12.429,6090802.0
13:30:12.469,6090145.0
13:30:12.509,6089960.0
13:30:12.549,6089220.0
13:30:12.589,6093947.0
13:30:12.629,6086576.0
13:30:12.669,6088452.0
13:30:12.709,6088138.0
13:30:12.749,6087644.0
13:30:12.789,6089017.0
13:30:12.829,6088532.0
13:30:12.869,6088180.0
13:30:12.909,6089127.0
13:30:12.949,6089195.0
13:30:12.989,6089137.0
13:30:13.029,6090336.0
13:30:13.069,6092277.0
13:30:13.109,6107349.0
13:30:13.149,6090630.0
13:30:13.189,6091320.0
13:30:13.229,6090648.0
13:30:13.269,6089778.0
13:30:13.309,6086321.0
13:30:13.349,6084715.0
13:30:13.389,6085382.0
13:30:13.429,6085082.0
13:30:13.469,6083092.0
13:30:13.509,6079560.0
13:30:13.549,6078567.0
13:30:13.589,6079468.0
13:30:13.629,6080136.0
13:30:13.669,6080032.0
13:30:13.709,6082023.0
13:30:13.749,6076020.0
13:30:13.789,6082082.0
13:30:13.829,6082875.0
13:30:13.869,6083666.0
13:30:13.909,6083693.0
13:30:13.949,6083316.0
13:30:13.989,6084288.0
13:30:14.029,6084617.0
13:30:14.069,6084787.0
13:30:14.109,6084540.0
13:30:14.149,6085242.0
13:30:14.189,6084838.0
13:30:14.229,6085941.0
13:30:14.269,6094378.0
13:30:14.309,6095008.0
13:30:14.349,6076816.0
13:30:14.389,6076343.0
13:30:14.429,6076654.0
13:30:14.469,6077515.0
13:30:14.509,6079444.0
13:30:14.549,6084758.0
13:30:14.589,6090863.0
13:30:14.629,6095909.0
13:30:14.669,6100508.0
13:30:14.709,6104069.0
13:30:14.749,6105804.0
13:30:14.789,6107282.0
13:30:14.829,6107951.0
13:30:14.869,6108426.0
13:30:15.080,6108849.0
13:30:15.120,6110324.0
13:30:15.160,6110761.0
13:30:15.200,6111223.0
13:30:15.240,6111604.0
13:30:15.280,6112403.0
13:30:15.320,6111728.0
13:30:15.360,6111477.0
13:30:15.400,6113068.0
13:30:15.440,6120650.0
13:30:15.480,6110588.0
13:30:15.520,6109732.0
13:30:15.560,6107654.0
13:30:15.600,6107377.0
13:30:15.640,6106277.0
13:30:15.680,6105895.0
13:30:15.720,6105736.0
13:30:15.760,6105052.0
13:30:15.800,6104660.0
13:30:15.840,6108825.0
13:30:15.880,6108477.0
13:30:15.920,6108659.0
13:30:15.960,6108297.0
13:30:16.000,6107551.0
13:30:16.040,6106701.0
13:30:16.080,6105686.0
13:30:16.120,6105937.0
13:30:16.160,6106223.0
13:30:16.200,6110289.0
13:30:16.240,6101617.0
13:30:16.280,6105277.0
13:30:16.320,6105665.0
13:30:16.360,6104806.0
13:30:16.400,6103771.0
13:30:16.440,6104059.0
13:30:16.480,6104265.0
13:30:16.520,6105209.0
13:30:16.560,6105479.0
13:30:16.600,6104964.0
13:30:16.640,6105369.0
13:30:16.680,6105311.0
13:30:16.720,6111976.0
13:30:16.760,6125879.0
13:30:16.800,6102898.0
13:30:16.840,6099981.0
13:30:16.880,6096654.0
13:30:16.920,6093040.0
13:30:16.960,6089356.0
13:30:17.000,6088403.0
13:30:17.040,6090463.0
13:30:17.080,6093332.0
13:30:17.120,6093514.0
13:30:17.160,6093590.0
13:30:17.200,6094567.0
13:30:17.240,6094432.0
13:30:17.280,6095645.0
13:30:17.320,6096570.0
13:30:17.360,6097190.0
13:30:17.400,6096172.0
13:30:17.440,6098867.0
13:30:17.480,6089866.0
13:30:17.520,6092757.0
13:30:17.560,6091623.0
13:30:17.600,6091006.0
13:30:17.640,6090271.0
13:30:17.680,6091315.0
13:30:17.720,6092020.0
13:30:17.760,6093506.0
13:30:17.800,6095489.0
13:30:17.840,6100785.0
13:30:17.880,6106409.0
13:30:17.920,6116741.0
13:30:17.960,6108516.0
13:30:18.000,6107941.0
13:30:18.040,6109159.0
13:30:18.080,6111401.0
13:30:18.120,6111655.0
13:30:18.160,6110729.0
13:30:18.200,6112554.0
13:30:18.240,6113405.0
13:30:18.280,6112007.0
13:30:18.320,6113188.0
13:30:18.360,6114941.0
13:30:18.400,6117505.0
13:30:18.440,6118236.0
13:30:18.480,6117699.0
13:30:18.520,6117001.0
13:30:18.560,6116110.0
13:30:18.600,6115711.0
13:30:18.640,6119922.0
13:30:18.680,6111634.0
13:30:18.720,6113962.0
13:30:18.760,6113492.0
13:30:18.800,6112329.0
13:30:18.840,6110817.0
13:30:18.880,6110015.0
13:30:18.920,6109495.0
13:30:18.960,6108124.0
13:30:19.000,6107327.0
13:30:19.040,6106740.0
13:30:19.702,6106095.0
13:30:19.742,6085950.0
13:30:19.782,6084498.0
13:30:19.822,6084935.0
13:30:19.862,6085642.0
13:30:19.902,6084716.0
13:30:19.942,6084777.0
13:30:19.982,6084972.0
13:30:20.022,6084042.0
13:30:20.062,6083718.0
13:30:20.102,6083506.0
13:30:20.142,6083544.0
13:30:20.182,6083450.0
13:30:20.222,6082627.0
13:30:20.262,6082420.0
13:30:20.302,6083927.0
13:30:20.342,6076364.0
13:30:20.382,6081335.0
13:30:20.422,6082177.0
13:30:20.462,6082002.0
13:30:20.502,6081285.0
13:30:20.542,6080995.0
13:30:20.582,6080749.0
13:30:20.622,6081079.0
13:30:20.662,6080805.0
13:30:20.702,6079729.0
13:30:20.742,6080655.0
13:30:20.782,6087566.0
13:30:20.822,6080167.0
13:30:20.862,6076861.0
13:30:20.902,6074973.0
13:30:20.942,6071663.0
13:30:20.982,6071207.0
13:30:21.022,6071499.0
13:30:21.062,6072031.0
13:30:21.102,6072579.0
13:30:21.142,6072841.0
13:30:21.182,6072663.0
13:30:21.222,6071779.0
13:30:21.262,6072027.0
13:30:21.302,6071393.0
13:30:21.342,6071675.0
13:30:21.382,6072471.0
13:30:21.422,6072764.0
13:30:21.462,6074294.0
13:30:21.502,6076188.0
13:30:21.542,6078241.0
13:30:21.582,6080298.0
13:30:21.622,6082480.0
13:30:21.662,6085160.0
13:30:21.702,6088425.0
13:30:21.742,6081352.0
13:30:21.782,6089808.0
13:30:21.822,6093224.0
13:30:21.862,6098993.0
13:30:21.902,6100699.0
13:30:21.942,6101860.0
13:30:21.982,6101412.0
13:30:22.022,6101849.0
13:30:22.062,6102063.0
13:30:22.102,6102999.0
13:30:22.142,6103678.0
13:30:22.182,6100229.0
13:30:22.222,6105929.0
13:30:22.262,6118783.0
13:30:22.302,6099591.0
13:30:22.342,6097636.0
13:30:22.382,6095358.0
13:30:22.422,6090662.0
13:30:22.462,6086884.0
13:30:22.502,6086106.0
13:30:22.542,6087342.0
13:30:22.582,6088226.0
13:30:22.622,6089710.0
13:30:22.662,6093555.0
13:30:22.702,6093994.0
13:30:22.742,6092735.0
13:30:22.782,6091588.0
13:30:22.822,6090581.0
13:30:22.862,6089770.0
13:30:22.902,6088515.0
13:30:22.942,6087214.0
13:30:22.982,6086154.0
13:30:23.022,6086193.0
13:30:23.062,6086182.0
13:30:23.102,6078051.0
13:30:23.142,6081816.0
13:30:23.182,6082225.0
13:30:23.222,6083825.0
13:30:23.262,6084529.0
13:30:23.302,6082724.0
13:30:23.342,6080628.0
13:30:23.382,6079948.0
13:30:23.422,6080506.0
13:30:23.462,6087661.0
13:30:23.502,6090620.0
13:30:23.542,6095167.0
13:30:23.582,6094320.0
13:30:23.622,6088300.0
13:30:23.662,6088699.0
13:30:24.997,6088764.0
13:30:25.037,6092942.0
13:30:25.077,6090447.0
13:30:25.117,6090291.0
13:30:25.157,6090284.0
13:30:25.197,6089021.0
13:30:25.237,6086793.0
13:30:25.277,6084808.0
13:30:25.317,6083058.0
13:30:25.357,6083838.0
13:30:25.397,6084470.0
13:30:25.437,6087894.0
13:30:25.477,6079782.0
13:30:25.517,6083765.0
13:30:25.557,6083919.0
13:30:25.597,6083099.0
13:30:25.637,6081224.0
13:30:25.677,6080184.0
13:30:25.717,6080393.0
13:30:25.757,6079509.0
13:30:25.797,6079812.0
13:30:25.837,6080968.0
13:30:25.877,6082530.0
13:30:25.917,6084146.0
13:30:25.957,6094349.0
13:30:25.997,6109689.0
13:30:26.037,6089517.0
13:30:26.077,6087199.0
13:30:26.117,6086158.0
13:30:26.157,6084650.0
13:30:26.197,6083246.0
13:30:26.237,6083971.0
13:30:26.277,6087171.0
13:30:26.317,6090646.0
13:30:26.357,6090774.0
13:30:26.397,6092039.0
13:30:26.437,6093236.0
13:30:26.477,6094012.0
13:30:26.517,6090439.0
13:30:26.557,6091534.0
13:30:26.597,6093099.0
13:30:26.637,6094794.0
13:30:26.677,6095834.0
13:30:26.717,6096330.0
13:30:26.757,6100885.0
13:30:26.797,6093560.0
13:30:26.837,6096990.0
13:30:26.877,6095199.0
13:30:26.917,6096166.0
13:30:26.957,6096558.0
13:30:26.997,6097391.0
13:30:27.037,6097906.0
13:30:27.077,6098809.0
13:30:27.117,6099164.0
13:30:27.157,6100023.0
13:30:27.197,6101483.0
13:30:27.237,6108391.0
13:30:27.277,6099033.0
13:30:27.317,6099003.0
13:30:27.357,6097628.0
13:30:27.397,6097434.0
13:30:27.437,6097203.0
13:30:27.477,6098029.0
13:30:27.517,6098010.0
13:30:27.557,6098718.0
13:30:27.597,6098683.0
13:30:27.637,6099145.0
13:30:27.677,6099120.0
13:30:27.717,6099733.0
13:30:27.757,6100141.0
13:30:27.797,6100419.0
13:30:27.837,6101602.0
13:30:27.877,6102071.0
13:30:27.917,6102721.0
13:30:27.957,6102681.0
13:30:27.997,6102452.0
13:30:28.037,6100898.0
13:30:28.077,6101935.0
13:30:28.117,6102910.0
13:30:28.157,6103701.0
13:30:28.197,6103519.0
13:30:28.237,6104425.0
13:30:28.277,6105051.0
13:30:28.317,6108010.0
13:30:28.357,6108918.0
13:30:28.397,6108847.0
13:30:28.437,6108387.0
13:30:28.477,6110635.0
13:30:28.517,6101865.0
13:30:28.557,6103091.0
13:30:28.597,6102657.0
13:30:28.637,6103306.0
13:30:28.677,6103610.0
13:30:28.717,6103624.0
13:30:28.757,6104048.0
13:30:28.797,6102826.0
13:30:28.837,6102507.0
13:30:28.877,6103628.0
13:30:28.917,6106376.0
13:30:28.957,6114468.0
13:30:32.046,6097407.0
13:30:32.086,6112425.0
13:30:32.126,6107435.0
13:30:32.166,6110294.0
13:30:32.206,6111860.0
13:30:32.246,6111506.0
13:30:32.286,6110947.0
13:30:32.326,6110388.0
13:30:32.366,6110592.0
13:30:32.406,6110878.0
13:30:32.446,6111146.0
13:30:32.486,6111755.0
13:30:32.526,6112351.0
13:30:32.566,6116292.0
13:30:32.606,6108249.0
13:30:32.646,6105207.0
13:30:32.686,6104041.0
13:30:32.726,6110102.0
13:30:32.766,6111310.0
13:30:32.806,6112151.0
13:30:32.846,6112564.0
13:30:32.886,6112915.0
13:30:32.926,6112712.0
13:30:32.966,6112015.0
13:30:33.006,6111987.0
13:30:33.046,6111385.0
13:30:33.086,6111876.0
13:30:33.126,6114181.0
13:30:33.166,6115978.0
13:30:33.206,6117261.0
13:30:33.246,6118134.0
13:30:33.286,6117649.0
13:30:33.326,6116537.0
13:30:33.366,6115175.0
13:30:33.406,6105449.0
13:30:33.446,6111832.0
13:30:33.486,6112686.0
13:30:33.526,6112323.0
13:30:33.566,6112174.0
13:30:33.606,6111916.0
13:30:33.646,6111099.0
13:30:33.686,6109807.0
13:30:33.726,6109421.0
13:30:33.766,6109701.0
13:30:33.806,6110725.0
13:30:33.846,6111233.0
13:30:33.886,6114766.0
13:30:33.926,6126587.0
13:30:33.966,6112128.0
13:30:34.006,6107333.0
13:30:34.046,6106296.0
13:30:34.086,6104534.0
13:30:34.126,6102204.0
13:30:34.166,6101533.0
13:30:34.206,6102969.0
13:30:34.246,6105949.0
13:30:34.286,6107222.0
13:30:34.326,6106918.0
13:30:34.366,6107519.0
13:30:34.406,6107993.0
13:30:34.446,6108080.0
13:30:34.486,6108023.0
13:30:34.526,6108173.0
13:30:34.566,6108396.0
13:30:34.606,6108673.0
13:30:34.646,6108755.0
13:30:34.686,6108748.0
13:30:34.726,6109537.0
13:30:34.766,6116355.0
13:30:34.806,6108986.0
13:30:34.846,6110679.0
13:30:34.886,6110050.0
13:30:34.926,6109810.0
13:30:34.966,6110025.0
13:30:35.006,6109772.0
13:30:35.046,6109943.0
13:30:35.086,6110420.0
13:30:35.126,6110628.0
13:30:35.166,6110523.0
13:30:35.206,6112219.0
13:30:35.246,6120221.0
13:30:35.286,6104385.0
13:30:35.326,6103688.0
13:30:35.366,6100756.0
13:30:35.406,6100264.0
13:30:35.446,6099917.0
13:30:35.486,6100356.0
13:30:35.526,6101656.0
13:30:35.566,6102401.0
13:30:35.606,6102936.0
13:30:35.646,6103334.0
13:30:35.686,6103918.0
13:30:35.726,6104057.0
13:30:35.766,6104851.0
13:30:35.806,6105073.0
13:30:35.846,6104249.0
13:30:35.886,6104675.0
13:30:35.926,6104204.0
13:30:35.966,6105616.0
13:30:36.006,6110408.0
13:30:33.963,6103416.0
13:30:34.003,6104566.0
13:30:34.043,6104698.0
13:30:34.083,6105232.0
13:30:34.123,6107258.0
13:30:34.163,6107135.0
13:30:34.203,6106945.0
13:30:34.243,6100139.0
13:30:34.283,6105570.0
13:30:34.323,6106436.0
13:30:34.363,6106725.0
13:30:34.403,6107314.0
13:30:34.443,6107454.0
13:30:34.483,6108083.0
13:30:34.523,6108459.0
13:30:34.563,6108281.0
13:30:34.603,6108385.0
13:30:34.643,6109090.0
13:30:34.683,6109261.0
13:30:34.723,6106772.0
13:30:34.763,6106865.0
13:30:34.803,6108639.0
13:30:34.843,6108051.0
13:30:34.883,6108229.0
13:30:34.923,6108638.0
13:30:34.963,6108766.0
13:30:35.003,6108389.0
13:30:35.043,6107386.0
13:30:35.083,6107955.0
13:30:35.123,6107422.0
13:30:35.163,6106889.0
13:30:35.203,6107105.0
13:30:35.243,6106468.0
13:30:35.283,6106239.0
13:30:35.323,6110637.0
13:30:35.363,6099993.0
13:30:35.403,6105713.0
13:30:35.443,6106261.0
13:30:35.483,6106055.0
13:30:35.523,6105217.0
13:30:35.563,6105316.0
13:30:35.603,6105191.0
13:30:35.643,6104912.0
13:30:35.683,6104548.0
13:30:35.723,6104358.0
13:30:35.763,6104616.0
13:30:35.803,6105450.0
13:30:35.843,6104116.0
13:30:35.883,6096479.0
13:30:35.923,6096458.0
13:30:35.963,6099472.0
13:30:36.003,6101616.0
13:30:36.043,6102520.0
13:30:36.083,6102788.0
13:30:36.123,6103362.0
13:30:36.163,6103148.0
13:30:36.203,6102210.0
13:30:36.243,6101478.0
13:30:36.283,6101417.0
13:30:36.323,6100578.0
13:30:36.363,6099366.0
13:30:36.403,6097400.0
13:30:36.443,6094925.0
13:30:36.483,6094333.0
13:30:36.523,6087511.0
13:30:36.563,6092056.0
13:30:36.603,6092428.0
13:30:36.643,6092517.0
13:30:36.683,6091951.0
13:30:36.723,6091930.0
13:30:36.763,6091445.0
13:30:36.803,6091869.0
13:30:36.843,6091947.0
13:30:36.883,6092778.0
13:30:36.923,6093554.0
13:30:36.963,6097638.0
13:30:37.003,6098049.0
13:30:37.043,6087786.0
13:30:37.083,6088601.0
13:30:37.123,6087758.0
13:30:37.163,6087433.0
13:30:37.203,6086462.0
13:30:37.243,6086606.0
13:30:37.283,6086718.0
13:30:37.323,6086930.0
13:30:37.363,6086729.0
13:30:37.403,6086283.0
13:30:37.443,6085907.0
13:30:37.483,6085512.0
13:30:37.523,6084907.0
13:30:37.563,6084671.0
13:30:37.603,6084261.0
13:30:37.643,6084028.0
13:30:37.683,6083501.0
13:30:37.723,6082764.0
13:30:37.763,6082840.0
13:30:37.803,6082751.0
13:30:37.843,6087188.0
13:30:37.883,6079885.0
13:30:37.923,6081673.0
13:30:38.209,6081171.0
13:30:38.249,6079848.0
13:30:38.289,6079918.0
13:30:38.329,6080892.0
13:30:38.369,6085322.0
13:30:38.409,6070555.0
13:30:38.449,6072588.0
13:30:38.489,6077407.0
13:30:38.529,6078917.0
13:30:38.569,6079584.0
13:30:38.609,6080877.0
13:30:38.649,6081377.0
13:30:38.689,6080460.0
13:30:38.729,6079885.0
13:30:38.769,6079822.0
13:30:38.809,6080284.0
13:30:38.849,6081066.0
13:30:38.889,6081486.0
13:30:38.929,6082532.0
13:30:38.969,6088574.0
13:30:39.009,6089024.0
13:30:39.049,6088995.0
13:30:39.089,6089737.0
13:30:39.129,6083983.0
13:30:39.169,6088433.0
13:30:39.209,6089370.0
13:30:39.249,6085917.0
13:30:39.289,6085584.0
13:30:39.329,6086128.0
13:30:39.369,6086573.0
13:30:39.409,6086812.0
13:30:39.449,6087596.0
13:30:39.489,6088017.0
13:30:39.529,6089437.0
13:30:39.569,6090886.0
13:30:39.609,6100966.0
13:30:39.649,6096964.0
13:30:39.689,6091886.0
13:30:39.729,6090467.0
13:30:39.769,6087737.0
13:30:39.809,6086626.0
13:30:39.849,6086380.0
13:30:39.889,6087367.0
13:30:39.929,6088789.0
13:30:39.969,6090276.0
13:30:40.009,6090845.0
13:30:40.049,6091643.0
13:30:40.089,6091730.0
13:30:40.129,6091305.0
13:30:40.169,6090582.0
13:30:40.209,6090492.0
13:30:40.249,6090561.0
13:30:40.289,6090041.0
13:30:40.329,6090577.0
13:30:40.369,6094423.0
13:30:40.409,6086016.0
13:30:40.449,6090790.0
13:30:40.489,6091182.0
13:30:40.529,6090719.0
13:30:40.569,6091163.0
13:30:40.609,6091314.0
13:30:40.649,6091230.0
13:30:40.689,6091769.0
13:30:40.729,6092605.0
13:30:40.769,6093054.0
13:30:40.809,6094030.0
13:30:40.849,6102005.0
13:30:40.889,6092189.0
13:30:40.929,6090060.0
13:30:40.969,6090903.0
13:30:41.009,6090892.0
13:30:41.049,6091061.0
13:30:41.089,6091073.0
13:30:41.129,6091750.0
13:30:41.169,6092527.0
13:30:41.209,6092091.0
13:30:41.249,6091920.0
13:30:41.289,6092074.0
13:30:41.329,6091952.0
13:30:41.369,6091489.0
13:30:41.409,6091660.0
13:30:41.449,6091538.0
13:30:41.489,6091446.0
13:30:41.529,6091459.0
13:30:41.569,6092308.0
13:30:41.609,6094000.0
13:30:41.649,6090695.0
13:30:41.689,6092660.0
13:30:41.729,6093562.0
13:30:41.769,6093484.0
13:30:41.809,6093869.0
13:30:41.849,6094003.0
13:30:41.889,6094923.0
13:30:41.929,6095529.0
13:30:41.969,6095623.0
13:30:42.009,6096322.0
13:30:42.049,6097867.0
13:30:42.089,6105568.0
13:30:42.129,6098261.0
13:30:42.169,6094250.0
13:30:42.665,6094636.0
13:30:42.705,6097526.0
13:30:42.745,6097371.0
13:30:42.785,6097416.0
13:30:42.825,6097194.0
13:30:42.865,6097198.0
13:30:42.905,6096930.0
13:30:42.945,6096886.0
13:30:42.985,6097270.0
13:30:43.025,6096560.0
13:30:43.065,6096582.0
13:30:43.105,6103196.0
13:30:43.145,6094740.0
13:30:43.185,6096240.0
13:30:43.225,6096162.0
13:30:43.265,6095668.0
13:30:43.305,6094994.0
13:30:43.345,6094301.0
13:30:43.385,6094440.0
13:30:43.425,6094525.0
13:30:43.465,6094307.0
13:30:43.505,6094815.0
13:30:43.545,6097606.0
13:30:43.585,6099571.0
13:30:43.625,6090744.0
13:30:43.665,6093299.0
13:30:43.705,6093334.0
13:30:43.745,6093287.0
13:30:43.785,6094418.0
13:30:43.825,6096522.0
13:30:43.865,6096604.0
13:30:43.905,6096195.0
13:30:43.945,6096004.0
13:30:43.985,6094333.0
13:30:44.025,6091955.0
13:30:44.065,6090757.0
13:30:44.105,6089792.0
13:30:44.145,6089006.0
13:30:44.185,6088325.0
13:30:44.225,6088427.0
13:30:44.265,6091958.0
13:30:44.305,6086383.0
13:30:44.345,6087460.0
13:30:44.385,6087641.0
13:30:44.425,6087028.0
13:30:44.465,6087223.0
13:30:44.505,6086929.0
13:30:44.545,6087137.0
13:30:44.585,6087837.0
13:30:44.625,6088131.0
13:30:44.665,6088594.0
13:30:44.705,6088674.0
13:30:44.745,6089058.0
13:30:44.785,6096421.0
13:30:44.825,6108416.0
13:30:44.865,6085465.0
13:30:44.905,6084698.0
13:30:44.945,6083748.0
13:30:44.985,6081007.0
13:30:45.025,6078551.0
13:30:45.065,6078619.0
13:30:45.105,6080735.0
13:30:45.145,6083765.0
13:30:45.185,6085633.0
13:30:45.225,6086081.0
13:30:45.265,6086058.0
13:30:45.305,6086062.0
13:30:45.345,6086368.0
13:30:45.385,6084900.0
13:30:45.425,6084309.0
13:30:45.465,6083976.0
13:30:45.505,6084145.0
13:30:45.545,6084616.0
13:30:45.585,6085268.0
13:30:45.625,6086025.0
13:30:45.665,6093441.0
13:30:45.705,6085136.0
13:30:45.745,6087679.0
13:30:45.785,6088230.0
13:30:45.825,6088688.0
13:30:45.865,6089672.0
13:30:45.905,6090414.0
13:30:45.945,6091452.0
13:30:45.985,6092668.0
13:30:46.025,6093417.0
13:30:46.065,6095062.0
13:30:46.105,6097935.0
13:30:46.145,6101298.0
13:30:46.185,6089619.0
13:30:46.225,6091487.0
13:30:46.265,6097944.0
13:30:46.305,6100970.0
13:30:46.345,6102172.0
13:30:46.385,6104326.0
13:30:46.425,6105467.0
13:30:46.465,6105998.0
13:30:46.505,6105999.0
13:30:46.545,6105596.0
13:30:46.585,6106215.0
13:30:46.625,6106966.0
13:30:48.722,6105046.0
13:30:48.762,6110836.0
13:30:48.802,6111069.0
13:30:48.842,6114495.0
13:30:48.882,6109126.0
13:30:48.922,6115837.0
13:30:48.962,6115643.0
13:30:49.002,6116286.0
13:30:49.042,6116678.0
13:30:49.082,6116111.0
13:30:49.122,6115444.0
13:30:49.162,6116553.0
13:30:49.202,6116490.0
13:30:49.242,6116550.0
13:30:49.282,6117873.0
13:30:49.322,6118477.0
13:30:49.362,6125609.0
13:30:49.402,6138639.0
13:30:49.442,6115557.0
13:30:49.482,6113061.0
13:30:49.522,6111342.0
13:30:49.562,6108990.0
13:30:49.602,6106882.0
13:30:49.642,6107259.0
13:30:49.682,6109526.0
13:30:49.722,6112403.0
13:30:49.762,6112753.0
13:30:49.802,6113003.0
13:30:49.842,6112285.0
13:30:49.882,6111404.0
13:30:49.922,6110857.0
13:30:49.962,6110031.0
13:30:50.002,6109571.0
13:30:50.042,6109172.0
13:30:50.082,6109089.0
13:30:50.122,6119098.0
13:30:50.162,6108004.0
13:30:50.202,6109164.0
13:30:50.242,6109443.0
13:30:50.282,6110102.0
13:30:50.322,6110896.0
13:30:50.362,6110617.0
13:30:50.402,6110632.0
13:30:50.442,6112371.0
13:30:50.482,6113193.0
13:30:50.522,6114565.0
13:30:50.562,6117072.0
13:30:50.602,6127615.0
13:30:50.642,6113753.0
13:30:50.682,6115843.0
13:30:50.722,6117643.0
13:30:50.762,6119187.0
13:30:50.802,6120359.0
13:30:50.842,6121798.0
13:30:50.882,6123227.0
13:30:50.922,6123168.0
13:30:50.962,6123901.0
13:30:51.002,6125574.0
13:30:51.042,6126237.0
13:30:51.082,6128170.0
13:30:51.122,6129265.0
13:30:51.162,6130571.0
13:30:51.202,6131758.0
13:30:51.242,6132795.0
13:30:51.282,6133978.0
13:30:51.322,6135546.0
13:30:51.362,6143396.0
13:30:51.402,6135424.0
13:30:51.442,6137978.0
13:30:51.482,6139294.0
13:30:51.522,6140081.0
13:30:51.562,6141020.0
13:30:51.602,6141833.0
13:30:51.642,6142572.0
13:30:51.682,6142977.0
13:30:51.722,6143385.0
13:30:51.762,6145262.0
13:30:51.802,6146569.0
13:30:51.842,6150993.0
13:30:51.882,6139889.0
13:30:51.922,6139895.0
13:30:51.962,6144555.0
13:30:52.002,6145014.0
13:30:52.042,6146506.0
13:30:52.082,6147658.0
13:30:52.122,6147431.0
13:30:52.162,6146932.0
13:30:52.202,6146326.0
13:30:52.242,6146028.0
13:30:52.282,6146236.0
13:30:52.322,6146090.0
13:30:52.362,6146208.0
13:30:52.402,6145209.0
13:30:52.442,6144932.0
13:30:52.482,6145115.0
13:30:52.522,6144930.0
13:30:52.562,6144338.0
13:30:52.602,6144092.0
13:30:52.642,6149905.0
13:30:52.682,6140911.0
13:30:52.579,6141604.0
13:30:52.619,6137084.0
13:30:52.659,6142657.0
13:30:52.699,6156216.0
13:30:52.739,6135864.0
13:30:52.779,6134387.0
13:30:52.819,6134012.0
13:30:52.859,6133024.0
13:30:52.899,6129095.0
13:30:52.939,6129751.0
13:30:52.979,6132892.0
13:30:53.019,6136425.0
13:30:53.059,6138627.0
13:30:53.099,6140016.0
13:30:53.139,6141972.0
13:30:53.179,6142883.0
13:30:53.219,6144179.0
13:30:53.259,6145669.0
13:30:53.299,6147527.0
13:30:53.339,6148931.0
13:30:53.379,6153000.0
13:30:53.419,6146496.0
13:30:53.459,6153187.0
13:30:53.499,6154150.0
13:30:53.539,6157058.0
13:30:53.579,6159799.0
13:30:53.619,6161595.0
13:30:53.659,6162608.0
13:30:53.699,6164595.0
13:30:53.739,6165724.0
13:30:53.779,6167005.0
13:30:53.819,6169020.0
13:30:53.859,6174803.0
13:30:53.899,6169225.0
13:30:53.939,6166444.0
13:30:53.979,6170865.0
13:30:54.019,6171601.0
13:30:54.059,6173383.0
13:30:54.099,6174779.0
13:30:54.139,6175355.0
13:30:54.179,6175845.0
13:30:54.219,6176219.0
13:30:54.259,6176430.0
13:30:54.299,6176611.0
13:30:54.339,6176684.0
13:30:54.379,6176776.0
13:30:54.419,6176173.0
13:30:54.459,6176245.0
13:30:54.499,6175843.0
13:30:54.539,6176119.0
13:30:54.579,6175845.0
13:30:54.619,6175251.0
13:30:54.659,6175915.0
13:30:54.699,6170543.0
13:30:54.739,6171732.0
13:30:54.779,6171133.0
13:30:54.819,6170771.0
13:30:54.859,6169796.0
13:30:54.899,6169274.0
13:30:54.939,6168447.0
13:30:54.979,6168457.0
13:30:55.019,6168649.0
13:30:55.059,6168279.0
13:30:55.099,6168442.0
13:30:55.139,6168815.0
13:30:55.179,6174870.0
13:30:55.219,6186775.0
13:30:55.259,6163081.0
13:30:55.299,6161781.0
13:30:55.339,6159816.0
13:30:55.379,6157017.0
13:30:55.419,6154522.0
13:30:55.459,6154970.0
13:30:55.499,6157444.0
13:30:55.539,6159357.0
13:30:55.579,6160544.0
13:30:55.619,6160306.0
13:30:55.659,6160016.0
13:30:55.699,6159227.0
13:30:55.739,6159014.0
13:30:55.779,6157920.0
13:30:55.819,6157607.0
13:30:55.859,6157230.0
13:30:55.899,6156799.0
13:30:55.939,6155804.0
13:30:55.979,6155554.0
13:30:56.019,6159442.0
13:30:56.059,6150337.0
13:30:56.099,6153819.0
13:30:56.139,6154007.0
13:30:56.179,6153435.0
13:30:56.219,6152513.0
13:30:56.259,6152426.0
13:30:56.299,6152312.0
13:30:56.339,6152103.0
13:30:56.379,6151249.0
13:30:56.419,6151823.0
13:30:56.459,6153002.0
13:30:56.499,6158003.0
13:30:56.539,6146257.0
13:30:59.855,6143939.0
13:30:59.895,6145542.0
13:30:59.935,6145022.0
13:30:59.975,6144775.0
13:31:00.015,6144034.0
13:31:00.055,6143382.0
13:31:00.095,6143341.0
13:31:00.135,6142653.0
13:31:00.175,6144802.0
13:31:00.215,6136726.0
13:31:00.255,6141416.0
13:31:00.295,6141347.0
13:31:00.335,6141075.0
13:31:00.375,6140702.0
13:31:00.415,6140130.0
13:31:00.455,6139789.0
13:31:00.495,6139548.0
13:31:00.535,6139376.0
13:31:00.575,6139325.0
13:31:00.615,6139532.0
13:31:00.655,6138553.0
13:31:00.695,6137593.0
13:31:00.735,6137131.0
13:31:00.775,6141011.0
13:31:00.815,6134532.0
13:31:00.855,6136226.0
13:31:00.895,6136637.0
13:31:00.935,6137343.0
13:31:00.975,6137547.0
13:31:01.015,6137293.0
13:31:01.055,6136984.0
13:31:01.095,6137137.0
13:31:01.135,6136787.0
13:31:01.175,6136730.0
13:31:01.215,6137308.0
13:31:01.255,6137747.0
13:31:01.295,6136118.0
13:31:01.335,6134789.0
13:31:01.375,6134664.0
13:31:01.415,6134743.0
13:31:01.455,6133986.0
13:31:01.495,6133885.0
13:31:01.535,6128976.0
13:31:01.575,6131605.0
13:31:01.615,6131555.0
13:31:01.655,6131485.0
13:31:01.695,6131273.0
13:31:01.735,6130295.0
13:31:01.775,6129850.0
13:31:01.815,6129868.0
13:31:01.855,6129585.0
13:31:01.895,6128583.0
13:31:01.935,6128474.0
13:31:01.975,6128800.0
13:31:02.015,6134508.0
13:31:02.055,6121425.0
13:31:02.095,6121007.0
13:31:02.135,6125203.0
13:31:02.175,6125132.0
13:31:02.215,6125551.0
13:31:02.255,6125663.0
13:31:02.295,6125521.0
13:31:02.335,6124929.0
13:31:02.375,6123595.0
13:31:02.415,6123263.0
13:31:02.455,6122607.0
13:31:02.495,6122099.0
13:31:02.535,6121481.0
13:31:02.575,6120765.0
13:31:02.615,6120604.0
13:31:02.655,6120314.0
13:31:02.695,6119729.0
13:31:02.735,6119691.0
13:31:02.775,6119467.0
13:31:02.815,6118871.0
13:31:02.855,6118559.0
13:31:02.895,6124296.0
13:31:02.935,6115968.0
13:31:02.975,6117642.0
13:31:03.015,6117445.0
13:31:03.055,6116748.0
13:31:03.095,6116496.0
13:31:03.135,6116261.0
13:31:03.175,6115857.0
13:31:03.215,6115982.0
13:31:03.255,6115583.0
13:31:03.295,6115525.0
13:31:03.335,6116829.0
13:31:03.375,6123525.0
13:31:03.415,6113878.0
13:31:03.455,6113506.0
13:31:03.495,6112132.0
13:31:03.535,6111880.0
13:31:03.575,6111167.0
13:31:03.615,6111412.0
13:31:03.655,6111643.0
13:31:03.695,6111455.0
13:31:03.735,6110992.0
13:31:03.775,6111062.0
13:31:03.815,6110668.0
13:31:03.358,6110024.0
13:31:03.398,6111435.0
13:31:03.438,6112427.0
13:31:03.478,6117239.0
13:31:03.518,6114973.0
13:31:03.558,6108476.0
13:31:03.598,6110435.0
13:31:03.638,6110344.0
13:31:03.678,6110206.0
13:31:03.718,6110603.0
13:31:03.758,6110722.0
13:31:03.798,6110813.0
13:31:03.838,6110594.0
13:31:03.878,6110650.0
13:31:03.918,6111499.0
13:31:03.958,6110965.0
13:31:03.998,6110025.0
13:31:04.038,6110131.0
13:31:04.078,6110269.0
13:31:04.118,6109785.0
13:31:04.158,6109227.0
13:31:04.198,6109535.0
13:31:04.238,6109787.0
13:31:04.278,6109857.0
13:31:04.318,6108388.0
13:31:04.358,6107857.0
13:31:04.398,6109231.0
13:31:04.438,6108512.0
13:31:04.478,6108140.0
13:31:04.518,6107906.0
13:31:04.558,6107549.0
13:31:04.598,6107687.0
13:31:04.638,6107596.0
13:31:04.678,6107599.0
13:31:04.718,6108184.0
13:31:04.758,6108355.0
13:31:04.798,6111621.0
13:31:04.838,6124382.0
13:31:04.878,6114697.0
13:31:04.918,6103740.0
13:31:04.958,6102538.0
13:31:04.998,6100675.0
13:31:05.038,6097734.0
13:31:05.078,6096388.0
13:31:05.118,6098841.0
13:31:05.158,6101679.0
13:31:05.198,6103451.0
13:31:05.238,6103900.0
13:31:05.278,6104238.0
13:31:05.318,6104104.0
13:31:05.358,6104027.0
13:31:05.398,6103867.0
13:31:05.438,6103500.0
13:31:05.478,6103055.0
13:31:05.518,6103304.0
13:31:05.558,6103250.0
13:31:05.598,6111483.0
13:31:05.638,6101035.0
13:31:05.678,6102265.0
13:31:05.718,6102217.0
13:31:05.758,6101525.0
13:31:05.798,6101349.0
13:31:05.838,6101077.0
13:31:05.878,6101360.0
13:31:05.918,6101397.0
13:31:05.958,6101424.0
13:31:05.998,6101909.0
13:31:06.038,6104550.0
13:31:06.078,6109662.0
13:31:06.118,6096395.0
13:31:06.158,6100255.0
13:31:06.198,6101118.0
13:31:06.238,6102153.0
13:31:06.278,6102834.0
13:31:06.318,6103712.0
13:31:06.358,6105005.0
13:31:06.398,6106060.0
13:31:06.438,6106591.0
13:31:06.478,6107535.0
13:31:06.518,6108213.0
13:31:06.558,6108843.0
13:31:06.598,6109635.0
13:31:06.638,6110165.0
13:31:06.678,6111132.0
13:31:06.718,6112032.0
13:31:06.758,6112936.0
13:31:06.798,6114162.0
13:31:06.838,6115122.0
13:31:06.878,6116649.0
13:31:06.918,6117712.0
13:31:06.958,6124185.0
13:31:06.998,6117559.0
13:31:07.038,6121492.0
13:31:07.078,6123695.0
13:31:07.118,6125690.0
13:31:07.158,6126863.0
13:31:07.198,6127835.0
13:31:07.238,6128592.0
13:31:07.278,6129442.0
13:31:07.318,6130522.0
13:31:07.553,6131561.0
13:31:07.593,6131041.0
13:31:07.633,6130621.0
13:31:07.673,6129496.0
13:31:07.713,6130351.0
13:31:07.753,6131778.0
13:31:07.793,6132362.0
13:31:07.833,6132807.0
13:31:07.873,6132929.0
13:31:07.913,6132741.0
13:31:07.953,6132772.0
13:31:07.993,6132648.0
13:31:08.033,6132551.0
13:31:08.073,6132361.0
13:31:08.113,6132130.0
13:31:08.153,6132039.0
13:31:08.193,6137078.0
13:31:08.233,6129259.0
13:31:08.273,6131165.0
13:31:08.313,6130764.0
13:31:08.353,6130041.0
13:31:08.393,6129659.0
13:31:08.433,6129134.0
13:31:08.473,6128295.0
13:31:08.513,6128163.0
13:31:08.553,6128270.0
13:31:08.593,6128581.0
13:31:08.633,6128329.0
13:31:08.673,6131496.0
13:31:08.713,6134139.0
13:31:08.753,6122775.0
13:31:08.793,6125022.0
13:31:08.833,6125150.0
13:31:08.873,6125036.0
13:31:08.913,6124377.0
13:31:08.953,6124676.0
13:31:08.993,6124949.0
13:31:09.033,6124548.0
13:31:09.073,6124119.0
13:31:09.113,6123787.0
13:31:09.153,6123672.0
13:31:09.193,6123023.0
13:31:09.233,6122322.0
13:31:09.273,6121851.0
13:31:09.313,6121599.0
13:31:09.353,6127495.0
13:31:09.393,6120154.0
13:31:09.433,6121366.0
13:31:09.473,6121777.0
13:31:09.513,6122110.0
13:31:09.553,6122288.0
13:31:09.593,6122160.0
13:31:09.633,6122273.0
13:31:09.673,6123530.0
13:31:09.713,6123813.0
13:31:09.753,6124515.0
13:31:09.793,6125510.0
13:31:09.833,6128456.0
13:31:09.873,6139654.0
13:31:09.913,6144598.0
13:31:09.953,6124163.0
13:31:09.993,6123721.0
13:31:10.033,6122666.0
13:31:10.073,6121155.0
13:31:10.113,6120222.0
13:31:10.153,6122662.0
13:31:10.193,6126863.0
13:31:10.233,6130244.0
13:31:10.273,6131780.0
13:31:10.313,6133412.0
13:31:10.353,6134321.0
13:31:10.393,6134788.0
13:31:10.433,6135460.0
13:31:10.473,6135776.0
13:31:10.513,6138974.0
13:31:10.553,6129489.0
13:31:10.593,6137123.0
13:31:10.633,6138896.0
13:31:10.673,6142210.0
13:31:10.713,6143801.0
13:31:10.753,6145905.0
13:31:10.793,6146332.0
13:31:10.833,6147091.0
13:31:10.873,6146855.0
13:31:10.913,6147002.0
13:31:10.953,6146495.0
13:31:10.993,6146721.0
13:31:11.033,6140912.0
13:31:11.073,6138038.0
13:31:11.113,6142706.0
13:31:11.153,6141816.0
13:31:11.193,6142666.0
13:31:11.233,6143490.0
13:31:11.273,6143670.0
13:31:11.313,6143769.0
13:31:11.353,6143579.0
13:31:11.393,6143216.0
13:31:11.433,6143224.0
13:31:11.473,6143210.0
13:31:11.513,6142585.0
13:31:12.398,6142316.0
13:31:12.438,6141592.0
13:31:12.478,6139770.0
13:31:12.518,6139518.0
13:31:12.558,6140524.0
13:31:12.598,6140522.0
13:31:12.638,6140249.0
13:31:12.678,6142274.0
13:31:12.718,6141828.0
13:31:12.758,6141762.0
13:31:12.798,6141442.0
13:31:12.838,6141095.0
13:31:12.878,6141564.0
13:31:12.918,6142885.0
13:31:12.958,6148216.0
13:31:12.998,6138007.0
13:31:13.038,6137488.0
13:31:13.078,6136986.0
13:31:13.118,6136151.0
13:31:13.158,6135541.0
13:31:13.198,6135686.0
13:31:13.238,6136034.0
13:31:13.278,6135937.0
13:31:13.318,6136376.0
13:31:13.358,6136361.0
13:31:13.398,6136028.0
13:31:13.438,6136166.0
13:31:13.478,6136261.0
13:31:13.518,6136385.0
13:31:13.558,6135698.0
13:31:13.598,6139431.0
13:31:13.638,6132064.0
13:31:13.678,6132956.0
13:31:13.718,6132550.0
13:31:13.758,6132050.0
13:31:13.798,6131466.0
13:31:13.838,6130545.0
13:31:13.878,6130288.0
13:31:13.918,6130637.0
13:31:13.958,6130058.0
13:31:13.998,6130120.0
13:31:14.038,6130138.0
13:31:14.078,6131683.0
13:31:14.118,6141837.0
13:31:14.158,6146006.0
13:31:14.198,6124292.0
13:31:14.238,6122269.0
13:31:14.278,6120406.0
13:31:14.318,6117945.0
13:31:14.358,6116265.0
13:31:14.398,6117784.0
13:31:14.438,6120446.0
13:31:14.478,6122589.0
13:31:14.518,6123269.0
13:31:14.558,6123525.0
13:31:14.598,6123320.0
13:31:14.638,6123146.0
13:31:14.678,6122799.0
13:31:14.718,6122094.0
13:31:14.758,6121424.0
13:31:14.798,6121525.0
13:31:14.838,6120909.0
13:31:14.878,6120347.0
13:31:14.918,6120428.0
13:31:14.958,6120168.0
13:31:14.998,6121958.0
13:31:15.038,6112188.0
13:31:15.078,6118538.0
13:31:15.118,6118385.0
13:31:15.158,6117461.0
13:31:15.198,6117669.0
13:31:15.238,6117218.0
13:31:15.278,6116670.0
13:31:15.318,6116423.0
13:31:15.358,6116037.0
13:31:15.398,6116069.0
13:31:15.438,6116830.0
13:31:15.478,6122218.0
13:31:15.518,6111586.0
13:31:15.558,6107262.0
13:31:15.598,6112359.0
13:31:15.638,6112027.0
13:31:15.678,6112107.0
13:31:15.718,6112365.0
13:31:15.758,6112260.0
13:31:15.798,6111881.0
13:31:15.838,6110904.0
13:31:15.878,6110438.0
13:31:15.918,6109978.0
13:31:15.958,6109404.0
13:31:15.998,6108660.0
13:31:16.038,6108523.0
13:31:16.078,6107940.0
13:31:16.118,6107892.0
13:31:16.158,6107221.0
13:31:16.198,6107228.0
13:31:16.238,6107176.0
13:31:16.278,6107310.0
13:31:16.318,6104014.0
13:31:16.358,6105096.0
13:31:16.508,6106079.0
13:31:16.548,6105374.0
13:31:16.588,6105808.0
13:31:16.628,6112248.0
13:31:16.668,6124350.0
13:31:16.708,6102004.0
13:31:16.748,6100215.0
13:31:16.788,6098882.0
13:31:16.828,6096168.0
13:31:16.868,6094164.0
13:31:16.908,6094456.0
13:31:16.948,6097040.0
13:31:16.988,6099901.0
13:31:17.028,6101215.0
13:31:17.068,6101422.0
13:31:17.108,6101665.0
13:31:17.148,6101548.0
13:31:17.188,6101610.0
13:31:17.228,6101317.0
13:31:17.268,6100994.0
13:31:17.308,6100891.0
13:31:17.348,6100768.0
13:31:17.388,6100670.0
13:31:17.428,6106537.0
13:31:17.468,6098812.0
13:31:17.508,6100163.0
13:31:17.548,6099438.0
13:31:17.588,6099280.0
13:31:17.628,6099256.0
13:31:17.668,6098129.0
13:31:17.708,6098363.0
13:31:17.748,6098452.0
13:31:17.788,6097277.0
13:31:17.828,6096772.0
13:31:17.868,6097782.0
13:31:17.908,6104698.0
13:31:17.948,6091745.0
13:31:17.988,6091183.0
13:31:18.028,6093554.0
13:31:18.068,6093778.0
13:31:18.108,6094044.0
13:31:18.148,6094248.0
13:31:18.188,6094704.0
13:31:18.228,6094673.0
13:31:18.268,6094194.0
13:31:18.308,6094168.0
13:31:18.348,6093957.0
13:31:18.388,6093785.0
13:31:18.428,6093512.0
13:31:18.468,6092824.0
13:31:18.508,6092800.0
13:31:18.548,6092761.0
13:31:18.588,6092857.0
13:31:18.628,6092323.0
13:31:18.668,6096683.0
13:31:18.708,6090910.0
13:31:18.748,6091906.0
13:31:18.788,6091864.0
13:31:18.828,6091688.0
13:31:18.868,6091189.0
13:31:18.908,6090470.0
13:31:18.948,6091075.0
13:31:18.988,6090927.0
13:31:19.028,6090225.0
13:31:19.068,6090822.0
13:31:19.108,6091208.0
13:31:19.148,6091165.0
13:31:19.188,6099459.0
13:31:19.228,6106276.0
13:31:19.268,6087920.0
13:31:19.308,6086291.0
13:31:19.348,6084881.0
13:31:19.388,6082542.0
13:31:19.428,6080742.0
13:31:19.468,6081641.0
13:31:19.508,6084060.0
13:31:19.548,6086206.0
13:31:19.588,6086841.0
13:31:19.628,6087195.0
13:31:19.668,6087345.0
13:31:19.708,6086956.0
13:31:19.748,6086706.0
13:31:19.788,6086560.0
13:31:19.828,6086369.0
13:31:19.868,6086118.0
13:31:19.908,6085692.0
13:31:19.948,6085381.0
13:31:19.988,6085300.0
13:31:20.028,6085073.0
13:31:20.068,6084844.0
13:31:20.108,6084279.0
13:31:20.148,6084084.0
13:31:20.188,6085317.0
13:31:20.228,6078470.0
13:31:20.268,6082284.0
13:31:20.308,6082727.0
13:31:20.348,6082650.0
13:31:20.388,6081914.0
13:31:20.428,6081361.0
13:31:20.468,6081256.0
13:31:21.945,6081685.0
13:31:21.985,6082469.0
13:31:22.025,6082712.0
13:31:22.065,6090255.0
13:31:22.105,6085824.0
13:31:22.145,6078882.0
13:31:22.185,6079570.0
13:31:22.225,6078615.0
13:31:22.265,6077911.0
13:31:22.305,6078004.0
13:31:22.345,6078793.0
13:31:22.385,6079913.0
13:31:22.425,6080422.0
13:31:22.465,6080202.0
13:31:22.505,6079156.0
13:31:22.545,6079220.0
13:31:22.585,6078802.0
13:31:22.625,6078537.0
13:31:22.665,6078672.0
13:31:22.705,6078527.0
13:31:22.745,6078372.0
13:31:22.785,6078632.0
13:31:22.825,6079245.0
13:31:22.865,6076287.0
13:31:22.905,6077719.0
13:31:22.945,6079408.0
13:31:22.985,6079705.0
13:31:23.025,6079518.0
13:31:23.065,6079949.0
13:31:23.105,6080448.0
13:31:23.145,6081697.0
13:31:23.185,6081356.0
13:31:23.225,6082305.0
13:31:23.265,6085219.0
13:31:23.305,6086698.0
13:31:23.345,6087561.0
13:31:23.385,6089515.0
13:31:23.425,6091151.0
13:31:23.465,6092050.0
13:31:23.505,6097919.0
13:31:23.545,6092205.0
13:31:23.585,6096386.0
13:31:23.625,6097475.0
13:31:23.665,6098597.0
13:31:23.705,6100027.0
13:31:23.745,6101192.0
13:31:23.785,6101988.0
13:31:23.825,6102662.0
13:31:23.865,6103386.0
13:31:23.905,6104122.0
13:31:23.945,6104643.0
13:31:23.985,6104949.0
13:31:24.025,6105406.0
13:31:24.065,6105524.0
13:31:24.105,6105246.0
13:31:24.145,6106143.0
13:31:24.185,6106369.0
13:31:24.225,6111952.0
13:31:24.265,6105502.0
13:31:24.305,6107096.0
13:31:24.345,6107319.0
13:31:24.385,6107196.0
13:31:24.425,6107656.0
13:31:24.465,6107479.0
13:31:24.505,6107249.0
13:31:24.545,6107829.0
13:31:24.585,6107684.0
13:31:24.625,6108206.0
13:31:24.665,6109054.0
13:31:24.705,6111416.0
13:31:24.745,6123359.0
13:31:24.785,6114288.0
13:31:24.825,6105632.0
13:31:24.865,6104284.0
13:31:24.905,6103011.0
13:31:24.945,6100645.0
13:31:24.985,6099327.0
13:31:25.025,6100319.0
13:31:25.065,6103427.0
13:31:25.105,6105201.0
13:31:25.145,6105377.0
13:31:25.185,6105696.0
13:31:25.225,6105954.0
13:31:25.265,6105491.0
13:31:25.305,6104962.0
13:31:25.345,6104756.0
13:31:25.385,6104705.0
13:31:25.425,6104004.0
13:31:25.465,6103713.0
13:31:25.505,6106547.0
13:31:25.545,6101831.0
13:31:25.585,6102377.0
13:31:25.625,6101974.0
13:31:25.665,6102363.0
13:31:25.705,6101370.0
13:31:25.745,6101140.0
13:31:25.785,6101463.0
13:31:25.825,6101812.0
13:31:25.865,6100681.0
13:31:25.905,6100837.0
13:31:32.450,6104942.0
13:31:32.490,6097228.0
13:31:32.530,6097692.0
13:31:32.570,6098059.0
13:31:32.610,6097676.0
13:31:32.650,6097174.0
13:31:32.690,6097112.0
13:31:32.730,6096483.0
13:31:32.770,6095986.0
13:31:32.810,6096016.0
13:31:32.850,6095730.0
13:31:32.890,6095140.0
13:31:32.930,6099144.0
13:31:32.970,6089039.0
13:31:33.010,6094772.0
13:31:33.050,6094983.0
13:31:33.090,6094493.0
13:31:33.130,6094213.0
13:31:33.170,6093980.0
13:31:33.210,6093759.0
13:31:33.250,6093952.0
13:31:33.290,6094038.0
13:31:33.330,6094290.0
13:31:33.370,6094431.0
13:31:33.410,6094050.0
13:31:33.450,6095482.0
13:31:33.490,6104302.0
13:31:33.530,6107158.0
13:31:33.570,6091433.0
13:31:33.610,6089930.0
13:31:33.650,6088417.0
13:31:33.690,6086275.0
13:31:33.730,6084494.0
13:31:33.770,6085142.0
13:31:33.810,6087816.0
13:31:33.850,6089860.0
13:31:33.890,6090629.0
13:31:33.930,6091085.0
13:31:33.970,6090908.0
13:31:34.010,6090848.0
13:31:34.050,6091091.0
13:31:34.090,6090656.0
13:31:34.130,6090407.0
13:31:34.170,6090340.0
13:31:34.210,6090240.0
13:31:34.250,6090407.0
13:31:34.290,6097005.0
13:31:34.330,6088640.0
13:31:34.370,6089869.0
13:31:34.410,6089370.0
13:31:34.450,6089079.0
13:31:34.490,6089099.0
13:31:34.530,6088739.0
13:31:34.570,6088612.0
13:31:34.610,6089097.0
13:31:34.650,6089151.0
13:31:34.690,6089076.0
13:31:34.730,6091049.0
13:31:34.770,6099093.0
13:31:34.810,6086370.0
13:31:34.850,6087854.0
13:31:34.890,6087206.0
13:31:34.930,6087454.0
13:31:34.970,6087512.0
13:31:35.010,6087121.0
13:31:35.050,6087821.0
13:31:35.090,6088416.0
13:31:35.130,6088192.0
13:31:35.170,6088192.0
13:31:35.210,6088190.0
13:31:35.250,6088086.0
13:31:35.290,6088023.0
13:31:35.330,6088483.0
13:31:35.370,6088794.0
13:31:35.410,6088913.0
13:31:35.450,6089016.0
13:31:35.490,6089689.0
13:31:35.530,6091483.0
13:31:35.570,6084556.0
13:31:35.610,6090503.0
13:31:35.650,6091517.0
13:31:35.690,6092146.0
13:31:35.730,6092914.0
13:31:35.770,6093480.0
13:31:35.810,6093675.0
13:31:35.850,6095094.0
13:31:35.890,6096224.0
13:31:35.930,6096530.0
13:31:35.970,6097664.0
13:31:36.010,6099093.0
13:31:36.050,6105538.0
13:31:36.090,6117786.0
13:31:36.130,6096019.0
13:31:36.170,6095089.0
13:31:36.210,6094048.0
13:31:36.250,6092090.0
13:31:36.290,6090313.0
13:31:36.330,6091262.0
13:31:36.370,6094621.0
13:31:36.410,6097821.0
13:31:34.637,6099122.0
13:31:34.677,6098229.0
13:31:34.717,6098120.0
13:31:34.757,6098251.0
13:31:34.797,6097483.0
13:31:34.837,6096427.0
13:31:34.877,6099916.0
13:31:34.917,6091789.0
13:31:34.957,6094865.0
13:31:34.997,6095116.0
13:31:35.037,6094844.0
13:31:35.077,6094457.0
13:31:35.117,6093871.0
13:31:35.157,6093513.0
13:31:35.197,6094033.0
13:31:35.237,6094586.0
13:31:35.277,6094438.0
13:31:35.317,6094855.0
13:31:35.357,6098893.0
13:31:35.397,6096171.0
13:31:35.437,6088124.0
13:31:35.477,6092292.0
13:31:35.517,6091882.0
13:31:35.557,6091957.0
13:31:35.597,6092033.0
13:31:35.637,6091862.0
13:31:35.677,6092033.0
13:31:35.717,6091691.0
13:31:35.757,6091169.0
13:31:35.797,6090566.0
13:31:35.837,6090774.0
13:31:35.877,6090276.0
13:31:35.917,6089561.0
13:31:35.957,6089212.0
13:31:35.997,6089791.0
13:31:36.037,6089345.0
13:31:36.077,6088974.0
13:31:36.117,6089576.0
13:31:36.157,6089540.0
13:31:36.197,6089010.0
13:31:36.237,6089009.0
13:31:36.277,6089300.0
13:31:36.317,6089419.0
13:31:36.357,6090369.0
13:31:36.397,6087427.0
13:31:36.437,6089014.0
13:31:36.477,6088810.0
13:31:36.517,6088236.0
13:31:36.557,6088292.0
13:31:36.597,6087791.0
13:31:36.637,6088182.0
13:31:36.677,6089136.0
13:31:36.717,6089497.0
13:31:36.757,6090053.0
13:31:36.797,6092359.0
13:31:36.837,6098437.0
13:31:36.877,6087012.0
13:31:36.917,6089275.0
13:31:36.957,6089710.0
13:31:36.997,6090138.0
13:31:37.037,6090393.0
13:31:37.077,6091155.0
13:31:37.117,6092144.0
13:31:37.157,6092745.0
13:31:37.197,6093697.0
13:31:37.237,6094735.0
13:31:37.277,6095730.0
13:31:37.317,6096417.0
13:31:37.357,6098624.0
13:31:37.397,6100268.0
13:31:37.437,6101021.0
13:31:37.477,6100523.0
13:31:37.517,6101849.0
13:31:37.557,6102625.0
13:31:37.597,6103316.0
13:31:37.637,6103733.0
13:31:37.677,6106770.0
13:31:37.717,6098117.0
13:31:37.757,6104654.0
13:31:37.797,6105630.0
13:31:37.837,6106553.0
13:31:37.877,6106703.0
13:31:37.917,6107368.0
13:31:37.957,6107563.0
13:31:37.997,6108753.0
13:31:38.037,6109475.0
13:31:38.077,6110276.0
13:31:38.117,6111326.0
13:31:38.157,6112036.0
13:31:38.197,6115318.0
13:31:38.237,6128497.0
13:31:38.277,6115960.0
13:31:38.317,6109929.0
13:31:38.357,6108916.0
13:31:38.397,6107259.0
13:31:38.437,6104627.0
13:31:38.477,6103655.0
13:31:38.517,6105555.0
13:31:38.557,6108711.0
13:31:38.597,6110762.0
13:31:41.829,6111117.0
13:31:41.869,6099760.0
13:31:41.909,6099688.0
13:31:41.949,6099293.0
13:31:41.989,6098856.0
13:31:42.029,6098660.0
13:31:42.069,6099447.0
13:31:42.109,6099386.0
13:31:42.149,6100131.0
13:31:42.189,6101233.0
13:31:42.229,6100639.0
13:31:42.269,6099762.0
13:31:42.309,6108890.0
13:31:42.349,6098144.0
13:31:42.389,6098760.0
13:31:42.429,6098552.0
13:31:42.469,6099019.0
13:31:42.509,6098240.0
13:31:42.549,6098146.0
13:31:42.589,6098339.0
13:31:42.629,6098267.0
13:31:42.669,6097433.0
13:31:42.709,6097435.0
13:31:42.749,6098606.0
13:31:42.789,6097974.0
13:31:42.829,6097827.0
13:31:42.869,6095109.0
13:31:42.909,6095748.0
13:31:42.949,6097340.0
13:31:42.989,6097316.0
13:31:43.029,6097252.0
13:31:43.069,6097011.0
13:31:43.109,6097108.0
13:31:43.149,6097194.0
13:31:43.189,6097154.0
13:31:43.229,6096412.0
13:31:43.269,6096936.0
13:31:43.309,6096719.0
13:31:43.349,6101251.0
13:31:43.389,6092592.0
13:31:43.429,6095454.0
13:31:43.469,6095298.0
13:31:43.509,6095053.0
13:31:43.549,6095061.0
13:31:43.589,6094850.0
13:31:43.629,6094691.0
13:31:43.669,6094114.0
13:31:43.709,6093555.0
13:31:43.749,6093538.0
13:31:43.789,6093209.0
13:31:43.829,6092738.0
13:31:43.869,6092116.0
13:31:43.909,6091421.0
13:31:43.949,6096298.0
13:31:43.989,6089432.0
13:31:44.029,6091309.0
13:31:44.069,6090982.0
13:31:44.109,6091034.0
13:31:44.149,6091072.0
13:31:44.189,6090968.0
13:31:44.229,6091051.0
13:31:44.269,6091445.0
13:31:44.309,6091035.0
13:31:44.349,6091131.0
13:31:44.389,6091399.0
13:31:44.429,6096276.0
13:31:44.469,6089614.0
13:31:44.509,6085437.0
13:31:44.549,6089713.0
13:31:44.589,6089878.0
13:31:44.629,6089501.0
13:31:44.669,6089290.0
13:31:44.709,6089727.0
13:31:44.749,6089414.0
13:31:44.789,6088820.0
13:31:44.829,6088021.0
13:31:44.869,6088989.0
13:31:44.909,6088615.0
13:31:44.949,6088332.0
13:31:44.989,6088386.0
13:31:45.029,6088483.0
13:31:45.069,6088233.0
13:31:45.109,6088344.0
13:31:45.149,6089461.0
13:31:45.189,6086762.0
13:31:45.229,6087715.0
13:31:45.269,6087505.0
13:31:45.309,6087399.0
13:31:45.349,6087399.0
13:31:45.389,6087103.0
13:31:45.429,6087274.0
13:31:45.469,6088165.0
13:31:45.509,6087622.0
13:31:45.549,6087807.0
13:31:45.589,6090552.0
13:31:45.629,6098807.0
13:31:45.669,6082415.0
13:31:45.709,6085553.0
13:31:45.749,6085317.0
13:31:45.789,6085258.0
13:31:45.681,6084894.0
13:31:45.721,6108789.0
13:31:45.761,6109509.0
13:31:45.801,6110409.0
13:31:45.841,6110425.0
13:31:45.881,6109563.0
13:31:45.921,6108251.0
13:31:45.961,6107752.0
13:31:46.001,6107541.0
13:31:46.041,6106905.0
13:31:46.081,6106184.0
13:31:46.121,6106314.0
13:31:46.161,6106049.0
13:31:46.201,6105671.0
13:31:46.241,6107463.0
13:31:46.281,6098925.0
