Time,Ecg1
11:06:06.229639,6230801.0
11:06:06.269639,6230283.0
11:06:06.309639,6229870.0
11:06:06.349639,6237018.0
11:06:06.389639,6229306.0
11:06:06.429639,6230273.0
11:06:06.469639,6230282.0
11:06:06.509639,6230727.0
11:06:06.549639,6231113.0
11:06:06.589639,6231471.0
11:06:06.629639,6231652.0
11:06:06.669639,6232263.0
11:06:06.709639,6233245.0
11:06:06.749639,6234179.0
11:06:06.789639,6234523.0
11:06:06.829639,6234854.0
11:06:06.869639,6235830.0
11:06:06.909639,6236547.0
11:06:06.949639,6236266.0
11:06:06.989639,6243740.0
11:06:07.029639,6234422.0
11:06:07.069639,6236472.0
11:06:07.109639,6236576.0
11:06:07.149639,6236583.0
11:06:07.189639,6236146.0
11:06:07.229639,6236374.0
11:06:07.269639,6236499.0
11:06:07.309639,6236153.0
11:06:07.349639,6236180.0
11:06:07.389639,6236196.0
11:06:07.429639,6239198.0
11:06:07.469639,6234296.0
11:06:07.509639,6234572.0
11:06:07.549639,6234251.0
11:06:07.589639,6233535.0
11:06:07.629639,6233539.0
11:06:07.669639,6232963.0
11:06:07.709639,6232512.0
11:06:07.749639,6232025.0
11:06:07.789639,6232142.0
11:06:07.829639,6231250.0
11:06:07.869639,6230537.0
11:06:07.909639,6229888.0
11:06:07.949639,6230049.0
11:06:07.989639,6235415.0
11:06:08.029639,6227776.0
11:06:08.069639,6228256.0
11:06:08.109639,6227646.0
11:06:08.149639,6227475.0
11:06:08.189639,6226868.0
11:06:08.229639,6226886.0
11:06:08.269639,6226541.0
11:06:08.309639,6226387.0
11:06:08.349639,6225717.0
11:06:08.389639,6225047.0
11:06:08.429639,6223908.0
11:06:08.469639,6230374.0
11:06:08.509639,6222507.0
11:06:08.549639,6222473.0
11:06:08.589639,6221900.0
11:06:08.629639,6222905.0
11:06:08.669639,6228537.0
11:06:08.709639,6230064.0
11:06:08.749639,6230866.0
11:06:08.789639,6232106.0
11:06:08.829639,6236143.0
11:06:08.869639,6232067.0
11:06:08.909639,6231766.0
11:06:08.949639,6230954.0
11:06:08.989639,6230673.0
11:06:09.029639,6230878.0
11:06:09.069639,6229637.0
11:06:09.109639,6229592.0
11:06:09.149639,6229581.0
11:06:09.189639,6228832.0
11:06:09.229639,6228268.0
11:06:09.269639,6228285.0
11:06:09.309639,6228665.0
11:06:09.349639,6229105.0
11:06:09.389639,6227321.0
11:06:09.429639,6227496.0
11:06:09.469639,6226930.0
11:06:09.509639,6226131.0
11:06:09.549639,6226474.0
11:06:09.589639,6226311.0
11:06:09.629639,6225772.0
11:06:09.669639,6225330.0
11:06:09.709639,6225723.0
11:06:09.749639,6232625.0
11:06:09.789639,6223365.0
11:06:09.829639,6224191.0
11:06:09.869639,6223971.0
11:06:09.909639,6223645.0
11:06:09.949639,6223672.0
11:06:09.989639,6224037.0
11:06:10.029639,6223954.0
11:06:10.069639,6223552.0
11:06:10.109639,6223221.0
11:06:10.149639,6223231.0
11:06:10.189639,6223172.0
11:06:10.378085,6223542.0
11:06:10.418085,6220766.0
11:06:10.458085,6221360.0
11:06:10.498085,6221574.0
11:06:10.538085,6221481.0
11:06:10.578085,6221098.0
11:06:10.618085,6221312.0
11:06:10.658085,6221467.0
11:06:10.698085,6221573.0
11:06:10.738085,6225939.0
11:06:10.778085,6220826.0
11:06:10.818085,6221364.0
11:06:10.858085,6221897.0
11:06:10.898085,6222066.0
11:06:10.938085,6221848.0
11:06:10.978085,6222177.0
11:06:11.018085,6222004.0
11:06:11.058085,6222012.0
11:06:11.098085,6223928.0
11:06:11.138085,6221324.0
11:06:11.178085,6221012.0
11:06:11.218085,6221123.0
11:06:11.258085,6221192.0
11:06:11.298085,6221230.0
11:06:11.338085,6220958.0
11:06:11.378085,6221060.0
11:06:11.418085,6221257.0
11:06:11.458085,6221083.0
11:06:11.498085,6220863.0
11:06:11.538085,6220504.0
11:06:11.578085,6222781.0
11:06:11.618085,6219971.0
11:06:11.658085,6220027.0
11:06:11.698085,6219687.0
11:06:11.738085,6219972.0
11:06:11.778085,6219785.0
11:06:11.818085,6220194.0
11:06:11.858085,6219570.0
11:06:11.898085,6219645.0
11:06:11.938085,6219694.0
11:06:11.978085,6219620.0
11:06:12.018085,6222414.0
11:06:12.058085,6218064.0
11:06:12.098085,6218860.0
11:06:12.138085,6218936.0
11:06:12.178085,6218389.0
11:06:12.218085,6218445.0
11:06:12.258085,6218974.0
11:06:12.298085,6218830.0
11:06:12.338085,6218395.0
11:06:12.378085,6218814.0
11:06:12.418085,6218567.0
11:06:12.458085,6218267.0
11:06:12.498085,6218550.0
11:06:12.538085,6218357.0
11:06:12.578085,6222336.0
11:06:12.618085,6217823.0
11:06:12.658085,6217585.0
11:06:12.698085,6217595.0
11:06:12.738085,6217343.0
11:06:12.778085,6217456.0
11:06:12.818085,6217603.0
11:06:12.858085,6217884.0
11:06:12.898085,6217931.0
11:06:12.938085,6217878.0
11:06:12.978085,6217720.0
11:06:13.018085,6223868.0
11:06:13.058085,6216089.0
11:06:13.098085,6217220.0
11:06:13.138085,6216986.0
11:06:13.178085,6216979.0
11:06:13.218085,6216860.0
11:06:13.258085,6217014.0
11:06:13.298085,6216955.0
11:06:13.338085,6217039.0
11:06:13.378085,6218233.0
11:06:13.418085,6216684.0
11:06:13.458085,6216539.0
11:06:13.498085,6217082.0
11:06:13.538085,6216737.0
11:06:13.578085,6216927.0
11:06:13.618085,6217301.0
11:06:13.658085,6217368.0
11:06:13.698085,6216910.0
11:06:13.738085,6217558.0
11:06:13.778085,6217194.0
11:06:13.818085,6216904.0
11:06:13.858085,6216721.0
11:06:13.898085,6217205.0
11:06:13.938085,6217051.0
11:06:13.978085,6216793.0
11:06:14.018085,6216719.0
11:06:14.058085,6216782.0
11:06:14.098085,6223448.0
11:06:14.138085,6215594.0
11:06:14.178085,6216283.0
11:06:14.218085,6216590.0
11:06:14.258085,6216436.0
11:06:14.298085,6216384.0
11:06:14.338085,6216454.0
11:06:14.653976,6217194.0
11:06:14.693976,6216489.0
11:06:14.733976,6216225.0
11:06:14.773976,6216360.0
11:06:14.813976,6216448.0
11:06:14.853976,6216491.0
11:06:14.893976,6216424.0
11:06:14.933976,6216536.0
11:06:14.973976,6216481.0
11:06:15.013976,6216299.0
11:06:15.053976,6216454.0
11:06:15.093976,6216339.0
11:06:15.133976,6216055.0
11:06:15.173976,6216448.0
11:06:15.213976,6216748.0
11:06:15.253976,6216295.0
11:06:15.293976,6218713.0
11:06:15.333976,6216290.0
11:06:15.373976,6215776.0
11:06:15.413976,6215785.0
11:06:15.453976,6215590.0
11:06:15.493976,6215380.0
11:06:15.533976,6215400.0
11:06:15.573976,6215966.0
11:06:15.613976,6215763.0
11:06:15.653976,6215999.0
11:06:15.693976,6215726.0
11:06:15.733976,6215834.0
11:06:15.773976,6215552.0
11:06:15.813976,6215812.0
11:06:15.853976,6219106.0
11:06:15.893976,6215757.0
11:06:15.933976,6215093.0
11:06:15.973976,6215222.0
11:06:16.013976,6215165.0
11:06:16.053976,6215159.0
11:06:16.093976,6215343.0
11:06:16.133976,6215509.0
11:06:16.173976,6215841.0
11:06:16.213976,6215840.0
11:06:16.253976,6215568.0
11:06:16.293976,6221600.0
11:06:16.333976,6215003.0
11:06:16.373976,6215735.0
11:06:16.413976,6215403.0
11:06:16.453976,6216202.0
11:06:16.493976,6216150.0
11:06:16.533976,6216471.0
11:06:16.573976,6216298.0
11:06:16.613976,6216392.0
11:06:16.653976,6216382.0
11:06:16.693976,6216878.0
11:06:16.733976,6222297.0
11:06:16.773976,6215056.0
11:06:16.813976,6216063.0
11:06:16.853976,6216747.0
11:06:16.893976,6216666.0
11:06:16.933976,6216709.0
11:06:16.973976,6216847.0
11:06:17.013976,6216911.0
11:06:17.053976,6216526.0
11:06:17.093976,6217264.0
11:06:17.133976,6216857.0
11:06:17.173976,6221426.0
11:06:17.213976,6216211.0
11:06:17.253976,6216645.0
11:06:17.293976,6216663.0
11:06:17.333976,6216196.0
11:06:17.373976,6216398.0
11:06:17.413976,6216900.0
11:06:17.453976,6216764.0
11:06:17.493976,6216753.0
11:06:17.533976,6216787.0
11:06:17.573976,6224317.0
11:06:17.613976,6215193.0
11:06:17.653976,6216014.0
11:06:17.693976,6216766.0
11:06:17.733976,6215923.0
11:06:17.773976,6216215.0
11:06:17.813976,6216951.0
11:06:17.853976,6216483.0
11:06:17.893976,6216276.0
11:06:17.933976,6216872.0
11:06:17.973976,6216900.0
11:06:18.013976,6216742.0
11:06:18.053976,6216973.0
11:06:18.093976,6216829.0
11:06:18.133976,6216674.0
11:06:18.173976,6216812.0
11:06:18.213976,6220558.0
11:06:18.253976,6215870.0
11:06:18.293976,6216714.0
11:06:18.333976,6216618.0
11:06:18.373976,6216281.0
11:06:18.413976,6216231.0
11:06:18.453976,6217025.0
11:06:18.493976,6217185.0
11:06:18.533976,6216734.0
11:06:18.573976,6216852.0
11:06:18.613976,6216912.0
11:06:18.968105,6223111.0
11:06:19.008105,6216685.0
11:06:19.048105,6216833.0
11:06:19.088105,6216163.0
11:06:19.128105,6216727.0
11:06:19.168105,6216669.0
11:06:19.208105,6216528.0
11:06:19.248105,6220944.0
11:06:19.288105,6216145.0
11:06:19.328105,6216669.0
11:06:19.368105,6215937.0
11:06:19.408105,6216692.0
11:06:19.448105,6216928.0
11:06:19.488105,6217323.0
11:06:19.528105,6217599.0
11:06:19.568105,6217882.0
11:06:19.608105,6217398.0
11:06:19.648105,6217714.0
11:06:19.688105,6218485.0
11:06:19.728105,6218689.0
11:06:19.768105,6219514.0
11:06:19.808105,6222098.0
11:06:19.848105,6219597.0
11:06:19.888105,6219293.0
11:06:19.928105,6220066.0
11:06:19.968105,6220389.0
11:06:20.008105,6220614.0
11:06:20.048105,6221055.0
11:06:20.088105,6221626.0
11:06:20.128105,6221880.0
11:06:20.168105,6221715.0
11:06:20.208105,6229417.0
11:06:20.248105,6221315.0
11:06:20.288105,6222213.0
11:06:20.328105,6222353.0
11:06:20.368105,6222855.0
11:06:20.408105,6223198.0
11:06:20.448105,6223283.0
11:06:20.488105,6223849.0
11:06:20.528105,6223970.0
11:06:20.568105,6224161.0
11:06:20.608105,6224608.0
11:06:20.648105,6225641.0
11:06:20.688105,6233748.0
11:06:20.728105,6224423.0
11:06:20.768105,6226579.0
11:06:20.808105,6227556.0
11:06:20.848105,6228067.0
11:06:20.888105,6229693.0
11:06:20.928105,6230345.0
11:06:20.968105,6230667.0
11:06:21.008105,6231894.0
11:06:21.048105,6232867.0
11:06:21.088105,6233552.0
11:06:21.128105,6233948.0
11:06:21.168105,6234683.0
11:06:21.208105,6235145.0
11:06:21.248105,6235537.0
11:06:21.288105,6243652.0
11:06:21.328105,6234823.0
11:06:21.368105,6235958.0
11:06:21.408105,6236929.0
11:06:21.448105,6236925.0
11:06:21.488105,6237084.0
11:06:21.528105,6237858.0
11:06:21.568105,6238143.0
11:06:21.608105,6238121.0
11:06:21.648105,6238389.0
11:06:21.688105,6237846.0
11:06:21.728105,6237638.0
11:06:21.768105,6237642.0
11:06:21.808105,6237613.0
11:06:21.848105,6243705.0
11:06:21.888105,6235183.0
11:06:21.928105,6236027.0
11:06:21.968105,6235633.0
11:06:22.008105,6234988.0
11:06:22.048105,6234548.0
11:06:22.088105,6234058.0
11:06:22.128105,6233933.0
11:06:22.168105,6233030.0
11:06:22.208105,6232357.0
11:06:22.248105,6235633.0
11:06:22.288105,6229759.0
11:06:22.328105,6228598.0
11:06:22.368105,6226699.0
11:06:22.408105,6224889.0
11:06:22.448105,6222499.0
11:06:22.488105,6220152.0
11:06:22.528105,6220872.0
11:06:22.568105,6221804.0
11:06:22.608105,6225983.0
11:06:22.648105,6219803.0
11:06:22.688105,6220931.0
11:06:22.728105,6220667.0
11:06:22.768105,6220282.0
11:06:22.808105,6220752.0
11:06:22.848105,6221693.0
11:06:22.888105,6222076.0
11:06:22.928105,6222560.0
11:06:23.273228,6224059.0
11:06:23.313228,6226121.0
11:06:23.353228,6226440.0
11:06:23.393228,6227407.0
11:06:23.433228,6228525.0
11:06:23.473228,6229614.0
11:06:23.513228,6229423.0
11:06:23.553228,6229630.0
11:06:23.593228,6229953.0
11:06:23.633228,6230963.0
11:06:23.673228,6230863.0
11:06:23.713228,6230787.0
11:06:23.753228,6230781.0
11:06:23.793228,6230522.0
11:06:23.833228,6238603.0
11:06:23.873228,6230074.0
11:06:23.913228,6231073.0
11:06:23.953228,6230879.0
11:06:23.993228,6230882.0
11:06:24.033228,6230812.0
11:06:24.073228,6231158.0
11:06:24.113228,6231301.0
11:06:24.153228,6230938.0
11:06:24.193228,6230982.0
11:06:24.233228,6231206.0
11:06:24.273228,6235916.0
11:06:24.313228,6229104.0
11:06:24.353228,6230371.0
11:06:24.393228,6230165.0
11:06:24.433228,6229983.0
11:06:24.473228,6229566.0
11:06:24.513228,6230409.0
11:06:24.553228,6230063.0
11:06:24.593228,6229599.0
11:06:24.633228,6229346.0
11:06:24.673228,6229489.0
11:06:24.713228,6230599.0
11:06:24.753228,6229059.0
11:06:24.793228,6228742.0
11:06:24.833228,6228369.0
11:06:24.873228,6228297.0
11:06:24.913228,6228050.0
11:06:24.953228,6228193.0
11:06:24.993228,6228002.0
11:06:25.033228,6227926.0
11:06:25.073228,6227535.0
11:06:25.113228,6227909.0
11:06:25.153228,6227798.0
11:06:25.193228,6227623.0
11:06:25.233228,6226835.0
11:06:25.273228,6234311.0
11:06:25.313228,6226382.0
11:06:25.353228,6226522.0
11:06:25.393228,6225588.0
11:06:25.433228,6225898.0
11:06:25.473228,6225565.0
11:06:25.513228,6225597.0
11:06:25.553228,6225402.0
11:06:25.593228,6225922.0
11:06:25.633228,6225706.0
11:06:25.673228,6228966.0
11:06:25.713228,6224492.0
11:06:25.753228,6224530.0
11:06:25.793228,6224154.0
11:06:25.833228,6223854.0
11:06:25.873228,6224508.0
11:06:25.913228,6224157.0
11:06:25.953228,6224791.0
11:06:25.993228,6227425.0
11:06:26.033228,6223325.0
11:06:26.073228,6223456.0
11:06:26.113228,6223860.0
11:06:26.153228,6223141.0
11:06:26.193228,6223138.0
11:06:26.233228,6223384.0
11:06:26.273228,6223625.0
11:06:26.313228,6223623.0
11:06:26.353228,6223183.0
11:06:26.393228,6223083.0
11:06:26.433228,6222967.0
11:06:26.473228,6222786.0
11:06:26.513228,6223270.0
11:06:26.553228,6227296.0
11:06:26.593228,6221836.0
11:06:26.633228,6222331.0
11:06:26.673228,6222475.0
11:06:26.713228,6222095.0
11:06:26.753228,6222035.0
11:06:26.793228,6222815.0
11:06:26.833228,6223107.0
11:06:26.873228,6222854.0
11:06:26.913228,6222527.0
11:06:26.953228,6223450.0
11:06:26.993228,6223624.0
11:06:27.033228,6222501.0
11:06:27.073228,6222767.0
11:06:27.113228,6222360.0
11:06:27.153228,6222186.0
11:06:27.193228,6222845.0
11:06:27.233228,6223257.0
11:06:27.556695,6223168.0
11:06:27.596695,6222860.0
11:06:27.636695,6222299.0
11:06:27.676695,6222983.0
11:06:27.716695,6222686.0
11:06:27.756695,6222961.0
11:06:27.796695,6223069.0
11:06:27.836695,6223779.0
11:06:27.876695,6223477.0
11:06:27.916695,6216999.0
11:06:27.956695,6216838.0
11:06:27.996695,6224760.0
11:06:28.036695,6225020.0
11:06:28.076695,6226527.0
11:06:28.116695,6227823.0
11:06:28.156695,6228262.0
11:06:28.196695,6226181.0
11:06:28.236695,6224972.0
11:06:28.276695,6224565.0
11:06:28.316695,6225242.0
11:06:28.356695,6233280.0
11:06:28.396695,6223645.0
11:06:28.436695,6224745.0
11:06:28.476695,6224984.0
11:06:28.516695,6225140.0
11:06:28.556695,6224846.0
11:06:28.596695,6226058.0
11:06:28.636695,6226200.0
11:06:28.676695,6226616.0
11:06:28.716695,6228629.0
11:06:28.756695,6226307.0
11:06:28.796695,6226582.0
11:06:28.836695,6227509.0
11:06:28.876695,6227625.0
11:06:28.916695,6228266.0
11:06:28.956695,6228713.0
11:06:28.996695,6229463.0
11:06:29.036695,6229070.0
11:06:29.076695,6229749.0
11:06:29.116695,6230595.0
11:06:29.156695,6230725.0
11:06:29.196695,6231082.0
11:06:29.236695,6232249.0
11:06:29.276695,6231869.0
11:06:29.316695,6232268.0
11:06:29.356695,6232935.0
11:06:29.396695,6232898.0
11:06:29.436695,6233341.0
11:06:29.476695,6234221.0
11:06:29.516695,6240686.0
11:06:29.556695,6233818.0
11:06:29.596695,6234947.0
11:06:29.636695,6235496.0
11:06:29.676695,6235933.0
11:06:29.716695,6236084.0
11:06:29.756695,6236981.0
11:06:29.796695,6237867.0
11:06:29.836695,6238298.0
11:06:29.876695,6238777.0
11:06:29.916695,6239156.0
11:06:29.956695,6244409.0
11:06:29.996695,6239190.0
11:06:30.036695,6240806.0
11:06:30.076695,6241106.0
11:06:30.116695,6241389.0
11:06:30.156695,6242509.0
11:06:30.196695,6243205.0
11:06:30.236695,6243566.0
11:06:30.276695,6243838.0
11:06:30.316695,6244584.0
11:06:30.356695,6245229.0
11:06:30.396695,6245332.0
11:06:30.436695,6245281.0
11:06:30.476695,6250017.0
11:06:30.516695,6245639.0
11:06:30.556695,6246132.0
11:06:30.596695,6246692.0
11:06:30.636695,6246648.0
11:06:30.676695,6247196.0
11:06:30.716695,6247563.0
11:06:30.756695,6247960.0
11:06:30.796695,6248027.0
11:06:30.836695,6248300.0
11:06:30.876695,6248280.0
11:06:30.916695,6249073.0
11:06:30.956695,6248808.0
11:06:30.996695,6251584.0
11:06:31.036695,6249727.0
11:06:31.076695,6249128.0
11:06:31.116695,6248894.0
11:06:31.156695,6249274.0
11:06:31.196695,6249487.0
11:06:31.236695,6249922.0
11:06:31.276695,6250097.0
11:06:31.316695,6250250.0
11:06:31.356695,6250272.0
11:06:31.396695,6250633.0
11:06:31.436695,6250928.0
11:06:31.476695,6250451.0
11:06:31.516695,6250836.0
11:06:33.914294,6250822.0
11:06:33.954294,6250727.0
11:06:33.994294,6251306.0
11:06:34.034294,6251161.0
11:06:34.074294,6251653.0
11:06:34.114294,6255283.0
11:06:34.154294,6250343.0
11:06:34.194294,6250696.0
11:06:34.234294,6251124.0
11:06:34.274294,6250913.0
11:06:34.314294,6250871.0
11:06:34.354294,6251202.0
11:06:34.394294,6251121.0
11:06:34.434294,6251447.0
11:06:34.474294,6251772.0
11:06:34.514294,6251722.0
11:06:34.554294,6251228.0
11:06:34.594294,6251299.0
11:06:34.634294,6250932.0
11:06:34.674294,6251543.0
11:06:34.714294,6251400.0
11:06:34.754294,6251486.0
11:06:34.794294,6250877.0
11:06:34.834294,6251946.0
11:06:34.874294,6251502.0
11:06:34.914294,6251719.0
11:06:34.954294,6253550.0
11:06:34.994294,6251094.0
11:06:35.034294,6250661.0
11:06:35.074294,6250801.0
11:06:35.114294,6250054.0
11:06:35.154294,6250322.0
11:06:35.194294,6250843.0
11:06:35.234294,6251252.0
11:06:35.274294,6250679.0
11:06:35.314294,6257183.0
11:06:35.354294,6249402.0
11:06:35.394294,6250839.0
11:06:35.434294,6250221.0
11:06:35.474294,6250263.0
11:06:35.514294,6250780.0
11:06:35.554294,6251319.0
11:06:35.594294,6251332.0
11:06:35.634294,6251739.0
11:06:35.674294,6252044.0
11:06:35.714294,6259188.0
11:06:35.754294,6251320.0
11:06:35.794294,6252340.0
11:06:35.834294,6252606.0
11:06:35.874294,6252938.0
11:06:35.914294,6253136.0
11:06:35.954294,6253686.0
11:06:35.994294,6253768.0
11:06:36.034294,6253865.0
11:06:36.074294,6254051.0
11:06:36.114294,6254229.0
11:06:36.154294,6253738.0
11:06:36.194294,6254109.0
11:06:36.234294,6258231.0
11:06:36.274294,6253994.0
11:06:36.314294,6253605.0
11:06:36.354294,6253791.0
11:06:36.394294,6253331.0
11:06:36.434294,6253612.0
11:06:36.474294,6253613.0
11:06:36.514294,6253863.0
11:06:36.554294,6253497.0
11:06:36.594294,6254691.0
11:06:36.634294,6258431.0
11:06:36.674294,6261604.0
11:06:36.714294,6255681.0
11:06:36.754294,6256817.0
11:06:36.794294,6256941.0
11:06:36.834294,6257430.0
11:06:36.874294,6257944.0
11:06:36.914294,6258442.0
11:06:36.954294,6257771.0
11:06:36.994294,6257804.0
11:06:37.034294,6258303.0
11:06:37.074294,6264095.0
11:06:37.114294,6257521.0
11:06:37.154294,6258826.0
11:06:37.194294,6258657.0
11:06:37.234294,6258604.0
11:06:37.274294,6258721.0
11:06:37.314294,6258761.0
11:06:37.354294,6258718.0
11:06:37.394294,6258468.0
11:06:37.434294,6259196.0
11:06:37.474294,6258842.0
11:06:37.514294,6264813.0
11:06:37.554294,6256642.0
11:06:37.594294,6258388.0
11:06:37.634294,6258177.0
11:06:37.674294,6257462.0
11:06:37.714294,6257529.0
11:06:37.754294,6257557.0
11:06:37.794294,6257080.0
11:06:37.834294,6256886.0
11:06:37.874294,6256506.0
11:06:38.415099,6255767.0
11:06:38.455099,6252485.0
11:06:38.495099,6251940.0
11:06:38.535099,6252051.0
11:06:38.575099,6251921.0
11:06:38.615099,6251413.0
11:06:38.655099,6251880.0
11:06:38.695099,6255454.0
11:06:38.735099,6249636.0
11:06:38.775099,6250198.0
11:06:38.815099,6250022.0
11:06:38.855099,6249628.0
11:06:38.895099,6249796.0
11:06:38.935099,6249368.0
11:06:38.975099,6248927.0
11:06:39.015099,6249109.0
11:06:39.055099,6249434.0
11:06:39.095099,6250059.0
11:06:39.135099,6247993.0
11:06:39.175099,6247919.0
11:06:39.215099,6248013.0
11:06:39.255099,6248513.0
11:06:39.295099,6248089.0
11:06:39.335099,6248371.0
11:06:39.375099,6248018.0
11:06:39.415099,6248056.0
11:06:39.455099,6247792.0
11:06:39.495099,6248051.0
11:06:39.535099,6247581.0
11:06:39.575099,6247302.0
11:06:39.615099,6247987.0
11:06:39.655099,6247874.0
11:06:39.695099,6247072.0
11:06:39.735099,6253096.0
11:06:39.775099,6246832.0
11:06:39.815099,6247783.0
11:06:39.855099,6247323.0
11:06:39.895099,6248033.0
11:06:39.935099,6247818.0
11:06:39.975099,6248191.0
11:06:40.015099,6248073.0
11:06:40.055099,6249015.0
11:06:40.095099,6248741.0
11:06:40.135099,6248726.0
11:06:40.175099,6248825.0
11:06:40.215099,6249109.0
11:06:40.255099,6249357.0
11:06:40.295099,6248642.0
11:06:40.335099,6249581.0
11:06:40.375099,6250156.0
11:06:40.415099,6252793.0
11:06:40.455099,6248429.0
11:06:40.495099,6249188.0
11:06:40.535099,6249184.0
11:06:40.575099,6248909.0
11:06:40.615099,6249106.0
11:06:40.655099,6248934.0
11:06:40.695099,6249847.0
11:06:40.735099,6249762.0
11:06:40.775099,6249872.0
11:06:40.815099,6248860.0
11:06:40.855099,6250071.0
11:06:40.895099,6250097.0
11:06:40.935099,6250001.0
11:06:40.975099,6254049.0
11:06:41.015099,6249476.0
11:06:41.055099,6250012.0
11:06:41.095099,6249482.0
11:06:41.135099,6249515.0
11:06:41.175099,6249576.0
11:06:41.215099,6250801.0
11:06:41.255099,6250524.0
11:06:41.295099,6250513.0
11:06:41.335099,6250443.0
11:06:41.375099,6251181.0
11:06:41.415099,6251438.0
11:06:41.455099,6249797.0
11:06:41.495099,6249889.0
11:06:41.535099,6250074.0
11:06:41.575099,6250011.0
11:06:41.615099,6249904.0
11:06:41.655099,6250317.0
11:06:41.695099,6250020.0
11:06:41.735099,6250606.0
11:06:41.775099,6250678.0
11:06:41.815099,6250028.0
11:06:41.855099,6252563.0
11:06:41.895099,6250109.0
11:06:41.935099,6249934.0
11:06:41.975099,6249742.0
11:06:42.015099,6249841.0
11:06:42.055099,6249717.0
11:06:42.095099,6249975.0
11:06:42.135099,6250032.0
11:06:42.175099,6249498.0
11:06:42.215099,6249381.0
11:06:42.255099,6255831.0
11:06:42.295099,6247832.0
11:06:42.335099,6248066.0
11:06:42.375099,6248825.0
11:06:42.504635,6248358.0
11:06:42.544635,6248304.0
11:06:42.584635,6247373.0
11:06:42.624635,6247407.0
11:06:42.664635,6247058.0
11:06:42.704635,6246452.0
11:06:42.744635,6246864.0
11:06:42.784635,6247532.0
11:06:42.824635,6247660.0
11:06:42.864635,6247084.0
11:06:42.904635,6254195.0
11:06:42.944635,6245723.0
11:06:42.984635,6246320.0
11:06:43.024635,6246130.0
11:06:43.064635,6246030.0
11:06:43.104635,6246422.0
11:06:43.144635,6246763.0
11:06:43.184635,6247008.0
11:06:43.224635,6246390.0
11:06:43.264635,6245923.0
11:06:43.304635,6246762.0
11:06:43.344635,6246779.0
11:06:43.384635,6246048.0
11:06:43.424635,6245508.0
11:06:43.464635,6246143.0
11:06:43.504635,6253196.0
11:06:43.544635,6244710.0
11:06:43.584635,6245066.0
11:06:43.624635,6245006.0
11:06:43.664635,6245476.0
11:06:43.704635,6245404.0
11:06:43.744635,6245194.0
11:06:43.784635,6245238.0
11:06:43.824635,6245752.0
11:06:43.864635,6245560.0
11:06:43.904635,6245504.0
11:06:43.944635,6252689.0
11:06:43.984635,6244220.0
11:06:44.024635,6244755.0
11:06:44.064635,6244730.0
11:06:44.104635,6244792.0
11:06:44.144635,6244902.0
11:06:44.184635,6245182.0
11:06:44.224635,6245019.0
11:06:44.264635,6244986.0
11:06:44.304635,6245044.0
11:06:44.344635,6252164.0
11:06:44.384635,6244260.0
11:06:44.424635,6244578.0
11:06:44.464635,6244251.0
11:06:44.504635,6244259.0
11:06:44.544635,6244778.0
11:06:44.584635,6245026.0
11:06:44.624635,6244679.0
11:06:44.664635,6244743.0
11:06:44.704635,6245067.0
11:06:44.744635,6247829.0
11:06:44.784635,6243423.0
11:06:44.824635,6243671.0
11:06:44.864635,6244236.0
11:06:44.904635,6244747.0
11:06:44.944635,6244099.0
11:06:44.984635,6244219.0
11:06:45.024635,6244399.0
11:06:45.064635,6244732.0
11:06:45.104635,6244192.0
11:06:45.144635,6243999.0
11:06:45.184635,6243840.0
11:06:45.224635,6244251.0
11:06:45.264635,6243978.0
11:06:45.304635,6243689.0
11:06:45.344635,6243346.0
11:06:45.384635,6243298.0
11:06:45.424635,6244356.0
11:06:45.464635,6244644.0
11:06:45.504635,6242315.0
11:06:45.544635,6243094.0
11:06:45.584635,6242879.0
11:06:45.624635,6241972.0
11:06:45.664635,6242695.0
11:06:45.704635,6243500.0
11:06:45.744635,6243182.0
11:06:45.784635,6242552.0
11:06:45.824635,6244991.0
11:06:45.864635,6241719.0
11:06:45.904635,6242651.0
11:06:45.944635,6242007.0
11:06:45.984635,6242875.0
11:06:46.024635,6242383.0
11:06:46.064635,6242493.0
11:06:46.104635,6241747.0
11:06:46.144635,6242726.0
11:06:46.184635,6242182.0
11:06:46.224635,6242147.0
11:06:46.264635,6241268.0
11:06:46.304635,6242179.0
11:06:46.344635,6241710.0
11:06:46.384635,6241517.0
11:06:46.424635,6244332.0
11:06:46.464635,6239691.0
11:06:46.807832,6240708.0
11:06:46.847832,6240372.0
11:06:46.887832,6239998.0
11:06:46.927832,6240155.0
11:06:46.967832,6242951.0
11:06:47.007832,6240080.0
11:06:47.047832,6239475.0
11:06:47.087832,6239826.0
11:06:47.127832,6239935.0
11:06:47.167832,6240057.0
11:06:47.207832,6240752.0
11:06:47.247832,6240275.0
11:06:47.287832,6239928.0
11:06:47.327832,6240416.0
11:06:47.367832,6240613.0
11:06:47.407832,6239566.0
11:06:47.447832,6239963.0
11:06:47.487832,6240116.0
11:06:47.527832,6244606.0
11:06:47.567832,6238981.0
11:06:47.607832,6239330.0
11:06:47.647832,6239178.0
11:06:47.687832,6238928.0
11:06:47.727832,6238660.0
11:06:47.767832,6239100.0
11:06:47.807832,6239421.0
11:06:47.847832,6239237.0
11:06:47.887832,6238919.0
11:06:47.927832,6238607.0
11:06:47.967832,6238264.0
11:06:48.007832,6238946.0
11:06:48.047832,6238415.0
11:06:48.087832,6238047.0
11:06:48.127832,6238355.0
11:06:48.167832,6241884.0
11:06:48.207832,6238072.0
11:06:48.247832,6237085.0
11:06:48.287832,6237590.0
11:06:48.327832,6237650.0
11:06:48.367832,6237739.0
11:06:48.407832,6237259.0
11:06:48.447832,6237655.0
11:06:48.487832,6237670.0
11:06:48.527832,6237830.0
11:06:48.567832,6237276.0
11:06:48.607832,6237090.0
11:06:48.647832,6237184.0
11:06:48.687832,6237745.0
11:06:48.727832,6236810.0
11:06:48.767832,6237076.0
11:06:48.807832,6244492.0
11:06:48.847832,6235584.0
11:06:48.887832,6236353.0
11:06:48.927832,6236070.0
11:06:48.967832,6235891.0
11:06:49.007832,6236252.0
11:06:49.047832,6236291.0
11:06:49.087832,6236227.0
11:06:49.127832,6236514.0
11:06:49.167832,6236375.0
11:06:49.207832,6235854.0
11:06:49.247832,6235803.0
11:06:49.287832,6235688.0
11:06:49.327832,6235488.0
11:06:49.367832,6244707.0
11:06:49.407832,6233839.0
11:06:49.447832,6234867.0
11:06:49.487832,6234954.0
11:06:49.527832,6234955.0
11:06:49.567832,6234150.0
11:06:49.607832,6234672.0
11:06:49.647832,6234597.0
11:06:49.687832,6234739.0
11:06:49.727832,6234353.0
11:06:49.767832,6233960.0
11:06:49.807832,6234184.0
11:06:49.847832,6234218.0
11:06:49.887832,6235676.0
11:06:49.927832,6232957.0
11:06:49.967832,6233763.0
11:06:50.007832,6233612.0
11:06:50.047832,6233583.0
11:06:50.087832,6232941.0
11:06:50.127832,6233386.0
11:06:50.167832,6233277.0
11:06:50.207832,6233525.0
11:06:50.247832,6232729.0
11:06:50.287832,6232765.0
11:06:50.327832,6234949.0
11:06:50.367832,6232405.0
11:06:50.407832,6231683.0
11:06:50.447832,6231704.0
11:06:50.487832,6231719.0
11:06:50.527832,6231841.0
11:06:50.567832,6231052.0
11:06:50.607832,6231278.0
11:06:50.647832,6231144.0
11:06:50.687832,6231354.0
11:06:50.727832,6231058.0
11:06:50.767832,6230840.0
11:06:51.107467,6230463.0
11:06:51.147467,6229973.0
11:06:51.187467,6229258.0
11:06:51.227467,6229688.0
11:06:51.267467,6229947.0
11:06:51.307467,6230545.0
11:06:51.347467,6229776.0
11:06:51.387467,6236046.0
11:06:51.427467,6228347.0
11:06:51.467467,6230057.0
11:06:51.507467,6229219.0
11:06:51.547467,6228917.0
11:06:51.587467,6229652.0
11:06:51.627467,6230118.0
11:06:51.667467,6229499.0
11:06:51.707467,6229320.0
11:06:51.747467,6229476.0
11:06:51.787467,6236567.0
11:06:51.827467,6228461.0
11:06:51.867467,6228723.0
11:06:51.907467,6228855.0
11:06:51.947467,6228909.0
11:06:51.987467,6229172.0
11:06:52.027467,6228915.0
11:06:52.067467,6228841.0
11:06:52.107467,6229237.0
11:06:52.147467,6229448.0
11:06:52.187467,6228571.0
11:06:52.227467,6228597.0
11:06:52.267467,6236280.0
11:06:52.307467,6227567.0
11:06:52.347467,6227655.0
11:06:52.387467,6228241.0
11:06:52.427467,6228113.0
11:06:52.467467,6227894.0
11:06:52.507467,6228156.0
11:06:52.547467,6228253.0
11:06:52.587467,6227795.0
11:06:52.627467,6227660.0
11:06:52.667467,6228002.0
11:06:52.707467,6227766.0
11:06:52.747467,6227129.0
11:06:52.787467,6230957.0
11:06:52.827467,6226414.0
11:06:52.867467,6226364.0
11:06:52.907467,6226938.0
11:06:52.947467,6226933.0
11:06:52.987467,6226891.0
11:06:53.027467,6226642.0
11:06:53.067467,6226804.0
11:06:53.107467,6226571.0
11:06:53.147467,6226049.0
11:06:53.187467,6226642.0
11:06:53.227467,6226277.0
11:06:53.267467,6225834.0
11:06:53.307467,6233350.0
11:06:53.347467,6225000.0
11:06:53.387467,6225022.0
11:06:53.427467,6225288.0
11:06:53.467467,6224972.0
11:06:53.507467,6225257.0
11:06:53.547467,6225136.0
11:06:53.587467,6225286.0
11:06:53.627467,6225105.0
11:06:53.667467,6225342.0
11:06:53.707467,6225117.0
11:06:53.747467,6230402.0
11:06:53.787467,6223788.0
11:06:53.827467,6224509.0
11:06:53.867467,6224420.0
11:06:53.907467,6224023.0
11:06:53.947467,6224098.0
11:06:53.987467,6224266.0
11:06:54.027467,6224028.0
11:06:54.067467,6224349.0
11:06:54.107467,6229329.0
11:06:54.147467,6222591.0
11:06:54.187467,6223180.0
11:06:54.227467,6223442.0
11:06:54.267467,6222836.0
11:06:54.307467,6223010.0
11:06:54.347467,6223128.0
11:06:54.387467,6223105.0
11:06:54.427467,6222954.0
11:06:54.467467,6226532.0
11:06:54.507467,6221333.0
11:06:54.547467,6222075.0
11:06:54.587467,6222203.0
11:06:54.627467,6221773.0
11:06:54.667467,6221408.0
11:06:54.707467,6222332.0
11:06:54.747467,6222174.0
11:06:54.787467,6221328.0
11:06:54.827467,6221501.0
11:06:54.867467,6221717.0
11:06:54.907467,6221899.0
11:06:54.947467,6221021.0
11:06:54.987467,6220711.0
11:06:55.027467,6221243.0
11:06:55.067467,6220977.0
11:06:55.394365,6220788.0
11:06:55.434365,6218756.0
11:06:55.474365,6219252.0
11:06:55.514365,6219559.0
11:06:55.554365,6219462.0
11:06:55.594365,6219364.0
11:06:55.634365,6218525.0
11:06:55.674365,6218573.0
11:06:55.714365,6218240.0
11:06:55.754365,6218149.0
11:06:55.794365,6218221.0
11:06:55.834365,6218291.0
11:06:55.874365,6218339.0
11:06:55.914365,6218278.0
11:06:55.954365,6217942.0
11:06:55.994365,6217828.0
11:06:56.034365,6217706.0
11:06:56.074365,6217625.0
11:06:56.114365,6217430.0
11:06:56.154365,6224499.0
11:06:56.194365,6215526.0
11:06:56.234365,6215802.0
11:06:56.274365,6216089.0
11:06:56.314365,6216231.0
11:06:56.354365,6215879.0
11:06:56.394365,6215784.0
11:06:56.434365,6216032.0
11:06:56.474365,6216040.0
11:06:56.514365,6215850.0
11:06:56.554365,6215249.0
11:06:56.594365,6215093.0
11:06:56.634365,6214430.0
11:06:56.674365,6214753.0
11:06:56.714365,6214370.0
11:06:56.754365,6218462.0
11:06:56.794365,6213571.0
11:06:56.834365,6213462.0
11:06:56.874365,6213098.0
11:06:56.914365,6213447.0
11:06:56.954365,6212500.0
11:06:56.994365,6212483.0
11:06:57.034365,6212930.0
11:06:57.074365,6212912.0
11:06:57.114365,6212025.0
11:06:57.154365,6212217.0
11:06:57.194365,6212181.0
11:06:57.234365,6211763.0
11:06:57.274365,6211555.0
11:06:57.314365,6211630.0
11:06:57.354365,6216971.0
11:06:57.394365,6210011.0
11:06:57.434365,6210905.0
11:06:57.474365,6210256.0
11:06:57.514365,6210033.0
11:06:57.554365,6210400.0
11:06:57.594365,6210573.0
11:06:57.634365,6211080.0
11:06:57.674365,6214963.0
11:06:57.714365,6209179.0
11:06:57.754365,6209942.0
11:06:57.794365,6210235.0
11:06:57.834365,6209854.0
11:06:57.874365,6209839.0
11:06:57.914365,6209997.0
11:06:57.954365,6210173.0
11:06:57.994365,6210351.0
11:06:58.034365,6210796.0
11:06:58.074365,6209290.0
11:06:58.114365,6209134.0
11:06:58.154365,6209004.0
11:06:58.194365,6208813.0
11:06:58.234365,6209317.0
11:06:58.274365,6209662.0
11:06:58.314365,6208936.0
11:06:58.354365,6209469.0
11:06:58.394365,6209255.0
11:06:58.434365,6208769.0
11:06:58.474365,6211220.0
11:06:58.514365,6208445.0
11:06:58.554365,6208216.0
11:06:58.594365,6208019.0
11:06:58.634365,6207927.0
11:06:58.674365,6207963.0
11:06:58.714365,6207848.0
11:06:58.754365,6208154.0
11:06:58.794365,6208035.0
11:06:58.834365,6207814.0
11:06:58.874365,6207606.0
11:06:58.914365,6207863.0
11:06:58.954365,6207397.0
11:06:58.994365,6207470.0
11:06:59.034365,6207435.0
11:06:59.074365,6207417.0
11:06:59.114365,6208286.0
11:06:59.154365,6208718.0
11:06:59.194365,6206451.0
11:06:59.234365,6206152.0
11:06:59.274365,6205850.0
11:06:59.314365,6205988.0
11:06:59.354365,6206044.0
11:07:00.927305,6206302.0
11:07:00.967305,6209734.0
11:07:01.007305,6204924.0
11:07:01.047305,6204726.0
11:07:01.087305,6205228.0
11:07:01.127305,6205187.0
11:07:01.167305,6205027.0
11:07:01.207305,6204880.0
11:07:01.247305,6205347.0
11:07:01.287305,6204931.0
11:07:01.327305,6204652.0
11:07:01.367305,6204681.0
11:07:01.407305,6205044.0
11:07:01.447305,6204657.0
11:07:01.487305,6204152.0
11:07:01.527305,6204642.0
11:07:01.567305,6204513.0
11:07:01.607305,6212018.0
11:07:01.647305,6202441.0
11:07:01.687305,6203519.0
11:07:01.727305,6203523.0
11:07:01.767305,6203121.0
11:07:01.807305,6203133.0
11:07:01.847305,6203397.0
11:07:01.887305,6203286.0
11:07:01.927305,6203095.0
11:07:01.967305,6203287.0
11:07:02.007305,6208244.0
11:07:02.047305,6202084.0
11:07:02.087305,6202252.0
11:07:02.127305,6202120.0
11:07:02.167305,6202907.0
11:07:02.207305,6202131.0
11:07:02.247305,6202040.0
11:07:02.287305,6202050.0
11:07:02.327305,6202952.0
11:07:02.367305,6210386.0
11:07:02.407305,6200820.0
11:07:02.447305,6201512.0
11:07:02.487305,6202070.0
11:07:02.527305,6201623.0
11:07:02.567305,6201004.0
11:07:02.607305,6201281.0
11:07:02.647305,6202232.0
11:07:02.687305,6201931.0
11:07:02.727305,6207325.0
11:07:02.767305,6199971.0
11:07:02.807305,6200604.0
11:07:02.847305,6200531.0
11:07:02.887305,6201150.0
11:07:02.927305,6200657.0
11:07:02.967305,6200953.0
11:07:03.007305,6200551.0
11:07:03.047305,6201004.0
11:07:03.087305,6201328.0
11:07:03.127305,6200705.0
11:07:03.167305,6200348.0
11:07:03.207305,6208531.0
11:07:03.247305,6199169.0
11:07:03.287305,6200032.0
11:07:03.327305,6199338.0
11:07:03.367305,6198854.0
11:07:03.407305,6199707.0
11:07:03.447305,6200093.0
11:07:03.487305,6199899.0
11:07:03.527305,6199469.0
11:07:03.567305,6200688.0
11:07:03.607305,6199643.0
11:07:03.647305,6198469.0
11:07:03.687305,6198723.0
11:07:03.727305,6199166.0
11:07:03.767305,6199027.0
11:07:03.807305,6198528.0
11:07:03.847305,6199023.0
11:07:03.887305,6198760.0
11:07:03.927305,6198840.0
11:07:03.967305,6198003.0
11:07:04.007305,6198599.0
11:07:04.047305,6198393.0
11:07:04.087305,6197927.0
11:07:04.127305,6197798.0
11:07:04.167305,6198933.0
11:07:04.207305,6200426.0
11:07:04.247305,6196773.0
11:07:04.287305,6196750.0
11:07:04.327305,6197264.0
11:07:04.367305,6197603.0
11:07:04.407305,6197174.0
11:07:04.447305,6197187.0
11:07:04.487305,6197472.0
11:07:04.527305,6197732.0
11:07:04.567305,6197099.0
11:07:04.607305,6197236.0
11:07:04.647305,6196905.0
11:07:04.687305,6196846.0
11:07:04.727305,6197101.0
11:07:04.767305,6197121.0
11:07:04.807305,6196824.0
11:07:04.847305,6200572.0
11:07:04.887305,6195732.0
11:07:05.063540,6196290.0
11:07:05.103540,6195013.0
11:07:05.143540,6195448.0
11:07:05.183540,6195361.0
11:07:05.223540,6201419.0
11:07:05.263540,6193047.0
11:07:05.303540,6194262.0
11:07:05.343540,6194077.0
11:07:05.383540,6193520.0
11:07:05.423540,6194267.0
11:07:05.463540,6194142.0
11:07:05.503540,6194124.0
11:07:05.543540,6194014.0
11:07:05.583540,6193796.0
11:07:05.623540,6193941.0
11:07:05.663540,6193307.0
11:07:05.703540,6193736.0
11:07:05.743540,6193303.0
11:07:05.783540,6193382.0
11:07:05.823540,6193326.0
11:07:05.863540,6193337.0
11:07:05.903540,6198040.0
11:07:05.943540,6191527.0
11:07:05.983540,6192547.0
11:07:06.023540,6192201.0
11:07:06.063540,6191678.0
11:07:06.103540,6192110.0
11:07:06.143540,6192390.0
11:07:06.183540,6192141.0
11:07:06.223540,6192092.0
11:07:06.263540,6192205.0
11:07:06.303540,6191862.0
11:07:06.343540,6191939.0
11:07:06.383540,6194359.0
11:07:06.423540,6190662.0
11:07:06.463540,6190942.0
11:07:06.503540,6191190.0
11:07:06.543540,6191147.0
11:07:06.583540,6190994.0
11:07:06.623540,6190972.0
11:07:06.663540,6190567.0
11:07:06.703540,6190541.0
11:07:06.743540,6192637.0
11:07:06.783540,6189230.0
11:07:06.823540,6189651.0
11:07:06.863540,6189911.0
11:07:06.903540,6189790.0
11:07:06.943540,6189565.0
11:07:06.983540,6189283.0
11:07:07.023540,6189739.0
11:07:07.063540,6189662.0
11:07:07.103540,6189454.0
11:07:07.143540,6189195.0
11:07:07.183540,6189356.0
11:07:07.223540,6189211.0
11:07:07.263540,6188396.0
11:07:07.303540,6188483.0
11:07:07.343540,6188768.0
11:07:07.383540,6188444.0
11:07:07.423540,6187943.0
11:07:07.463540,6192245.0
11:07:07.503540,6187367.0
11:07:07.543540,6187756.0
11:07:07.583540,6187440.0
11:07:07.623540,6187031.0
11:07:07.663540,6187302.0
11:07:07.703540,6187655.0
11:07:07.743540,6187592.0
11:07:07.783540,6187446.0
11:07:07.823540,6192183.0
11:07:07.863540,6186500.0
11:07:07.903540,6186831.0
11:07:07.943540,6186701.0
11:07:07.983540,6187141.0
11:07:08.023540,6186723.0
11:07:08.063540,6186984.0
11:07:08.103540,6186745.0
11:07:08.143540,6186670.0
11:07:08.183540,6186606.0
11:07:08.223540,6186725.0
11:07:08.263540,6186304.0
11:07:08.303540,6186165.0
11:07:08.343540,6186227.0
11:07:08.383540,6185528.0
11:07:08.423540,6185554.0
11:07:08.463540,6185850.0
11:07:08.503540,6192685.0
11:07:08.543540,6184341.0
11:07:08.583540,6185040.0
11:07:08.623540,6184667.0
11:07:08.663540,6184747.0
11:07:08.703540,6184886.0
11:07:08.743540,6185076.0
11:07:08.783540,6184731.0
11:07:08.823540,6184867.0
11:07:08.863540,6184796.0
11:07:08.903540,6184997.0
11:07:08.943540,6184752.0
11:07:08.983540,6184626.0
11:07:09.023540,6184611.0
11:07:09.322129,6184454.0
11:07:09.362129,6184231.0
11:07:09.402129,6184277.0
11:07:09.442129,6188293.0
11:07:09.482129,6184074.0
11:07:09.522129,6184350.0
11:07:09.562129,6184289.0
11:07:09.602129,6184301.0
11:07:09.642129,6184268.0
11:07:09.682129,6184691.0
11:07:09.722129,6184943.0
11:07:09.762129,6184706.0
11:07:09.802129,6185239.0
11:07:09.842129,6190023.0
11:07:09.882129,6183997.0
11:07:09.922129,6184649.0
11:07:09.962129,6185037.0
11:07:10.002129,6185150.0
11:07:10.042129,6184925.0
11:07:10.082129,6185333.0
11:07:10.122129,6185447.0
11:07:10.162129,6185482.0
11:07:10.202129,6186024.0
11:07:10.242129,6192090.0
11:07:10.282129,6184319.0
11:07:10.322129,6185167.0
11:07:10.362129,6185204.0
11:07:10.402129,6185170.0
11:07:10.442129,6184851.0
11:07:10.482129,6185385.0
11:07:10.522129,6185335.0
11:07:10.562129,6185058.0
11:07:10.602129,6185626.0
11:07:10.642129,6185097.0
11:07:10.682129,6184602.0
11:07:10.722129,6184080.0
11:07:10.762129,6183854.0
11:07:10.802129,6184016.0
11:07:10.842129,6184167.0
11:07:10.882129,6184119.0
11:07:10.922129,6184303.0
11:07:10.962129,6184269.0
11:07:11.002129,6184426.0
11:07:11.042129,6188913.0
11:07:11.082129,6182997.0
11:07:11.122129,6183283.0
11:07:11.162129,6183120.0
11:07:11.202129,6182824.0
11:07:11.242129,6182974.0
11:07:11.282129,6183858.0
11:07:11.322129,6184066.0
11:07:11.362129,6183762.0
11:07:11.402129,6189700.0
11:07:11.442129,6182575.0
11:07:11.482129,6183888.0
11:07:11.522129,6183633.0
11:07:11.562129,6184025.0
11:07:11.602129,6183989.0
11:07:11.642129,6184318.0
11:07:11.682129,6183678.0
11:07:11.722129,6183503.0
11:07:11.762129,6183599.0
11:07:11.802129,6183208.0
11:07:11.842129,6183021.0
11:07:11.882129,6183323.0
11:07:11.922129,6183002.0
11:07:11.962129,6188656.0
11:07:12.002129,6181868.0
11:07:12.042129,6182368.0
11:07:12.082129,6182005.0
11:07:12.122129,6182759.0
11:07:12.162129,6181864.0
11:07:12.202129,6182134.0
11:07:12.242129,6182520.0
11:07:12.282129,6182425.0
11:07:12.322129,6181827.0
11:07:12.362129,6181661.0
11:07:12.402129,6182312.0
11:07:12.442129,6187174.0
11:07:12.482129,6181299.0
11:07:12.522129,6181561.0
11:07:12.562129,6181633.0
11:07:12.602129,6181432.0
11:07:12.642129,6181468.0
11:07:12.682129,6182109.0
11:07:12.722129,6181638.0
11:07:12.762129,6182002.0
11:07:12.802129,6182099.0
11:07:12.842129,6182070.0
11:07:12.882129,6181852.0
11:07:12.922129,6185525.0
11:07:12.962129,6182029.0
11:07:13.002129,6181634.0
11:07:13.042129,6181694.0
11:07:13.082129,6181686.0
11:07:13.122129,6181650.0
11:07:13.162129,6182439.0
11:07:13.202129,6182454.0
11:07:13.242129,6182207.0
11:07:13.282129,6181877.0
11:07:13.623020,6182531.0
11:07:13.663020,6181820.0
11:07:13.703020,6181869.0
11:07:13.743020,6181557.0
11:07:13.783020,6182108.0
11:07:13.823020,6181961.0
11:07:13.863020,6181894.0
11:07:13.903020,6181872.0
11:07:13.943020,6186742.0
11:07:13.983020,6180843.0
11:07:14.023020,6181685.0
11:07:14.063020,6181667.0
11:07:14.103020,6181369.0
11:07:14.143020,6181264.0
11:07:14.183020,6181518.0
11:07:14.223020,6181763.0
11:07:14.263020,6182232.0
11:07:14.303020,6181334.0
11:07:14.343020,6181217.0
11:07:14.383020,6187429.0
11:07:14.423020,6180739.0
11:07:14.463020,6180732.0
11:07:14.503020,6180730.0
11:07:14.543020,6181059.0
11:07:14.583020,6181120.0
11:07:14.623020,6181544.0
11:07:14.663020,6181063.0
11:07:14.703020,6180924.0
11:07:14.743020,6181041.0
11:07:14.783020,6181813.0
11:07:14.823020,6181286.0
11:07:14.863020,6188297.0
11:07:14.903020,6179832.0
11:07:14.943020,6180842.0
11:07:14.983020,6180633.0
11:07:15.023020,6180323.0
11:07:15.063020,6180402.0
11:07:15.103020,6180538.0
11:07:15.143020,6180972.0
11:07:15.183020,6184498.0
11:07:15.223020,6178841.0
11:07:15.263020,6180278.0
11:07:15.303020,6180730.0
11:07:15.343020,6180283.0
11:07:15.383020,6180184.0
11:07:15.423020,6180483.0
11:07:15.463020,6180601.0
11:07:15.503020,6180626.0
11:07:15.543020,6185102.0
11:07:15.583020,6179715.0
11:07:15.623020,6180003.0
11:07:15.663020,6180105.0
11:07:15.703020,6179685.0
11:07:15.743020,6179648.0
11:07:15.783020,6179924.0
11:07:15.823020,6180629.0
11:07:15.863020,6180476.0
11:07:15.903020,6184940.0
11:07:15.943020,6179479.0
11:07:15.983020,6179495.0
11:07:16.023020,6179387.0
11:07:16.063020,6179010.0
11:07:16.103020,6179406.0
11:07:16.143020,6179567.0
11:07:16.183020,6179680.0
11:07:16.223020,6181682.0
11:07:16.263020,6178008.0
11:07:16.303020,6178958.0
11:07:16.343020,6179398.0
11:07:16.383020,6178635.0
11:07:16.423020,6178742.0
11:07:16.463020,6179193.0
11:07:16.503020,6178963.0
11:07:16.543020,6179286.0
11:07:16.583020,6178963.0
11:07:16.623020,6178560.0
11:07:16.663020,6178500.0
11:07:16.703020,6178869.0
11:07:16.743020,6178273.0
11:07:16.783020,6178393.0
11:07:16.823020,6178963.0
11:07:16.863020,6178702.0
11:07:16.903020,6178866.0
11:07:16.943020,6181935.0
11:07:16.983020,6177512.0
11:07:17.023020,6178029.0
11:07:17.063020,6177754.0
11:07:17.103020,6177727.0
11:07:17.143020,6177843.0
11:07:17.183020,6178223.0
11:07:17.223020,6178105.0
11:07:17.263020,6178060.0
11:07:17.303020,6177953.0
11:07:17.343020,6177968.0
11:07:17.383020,6177658.0
11:07:17.423020,6183440.0
11:07:17.463020,6176662.0
11:07:17.503020,6177309.0
11:07:17.543020,6176753.0
11:07:17.583020,6176952.0
11:07:35.949241,6149211.0
11:07:35.989241,6149087.0
11:07:36.029241,6148698.0
11:07:36.069241,6149090.0
11:07:36.109241,6148784.0
11:07:36.149241,6149156.0
11:07:36.189241,6149254.0
11:07:36.229241,6149176.0
11:07:36.269241,6148716.0
11:07:36.309241,6149617.0
11:07:36.349241,6149080.0
11:07:36.389241,6148920.0
11:07:36.429241,6156897.0
11:07:36.469241,6147762.0
11:07:36.509241,6149043.0
11:07:36.549241,6148390.0
11:07:36.589241,6147963.0
11:07:36.629241,6148813.0
11:07:36.669241,6149149.0
11:07:36.709241,6149358.0
11:07:36.749241,6148717.0
11:07:36.789241,6148989.0
11:07:36.829241,6148935.0
11:07:36.869241,6148947.0
11:07:36.909241,6150596.0
11:07:36.949241,6149155.0
11:07:36.989241,6148358.0
11:07:37.029241,6147995.0
11:07:37.069241,6148480.0
11:07:37.109241,6148376.0
11:07:37.149241,6148423.0
11:07:37.189241,6148896.0
11:07:37.229241,6148896.0
11:07:37.269241,6148723.0
11:07:37.309241,6148367.0
11:07:37.349241,6149059.0
11:07:37.389241,6148598.0
11:07:37.429241,6148373.0
11:07:37.469241,6147744.0
11:07:37.509241,6147868.0
11:07:37.549241,6153843.0
11:07:37.589241,6147504.0
11:07:37.629241,6147721.0
11:07:37.669241,6147832.0
11:07:37.709241,6147051.0
11:07:37.749241,6147739.0
11:07:37.789241,6148042.0
11:07:37.829241,6150977.0
11:07:37.869241,6145377.0
11:07:37.909241,6147559.0
11:07:37.949241,6147642.0
11:07:37.989241,6147833.0
11:07:38.029241,6147054.0
11:07:38.069241,6147913.0
11:07:38.109241,6148010.0
11:07:38.149241,6147788.0
11:07:38.189241,6147519.0
11:07:38.229241,6147998.0
11:07:38.269241,6147530.0
11:07:38.309241,6147453.0
11:07:38.349241,6147811.0
11:07:38.389241,6154271.0
11:07:38.429241,6145858.0
11:07:38.469241,6147219.0
11:07:38.509241,6146911.0
11:07:38.549241,6146870.0
11:07:38.589241,6146906.0
11:07:38.629241,6147483.0
11:07:38.669241,6147219.0
11:07:38.709241,6147026.0
11:07:38.749241,6147369.0
11:07:38.789241,6147451.0
11:07:38.829241,6146718.0
11:07:38.869241,6146481.0
11:07:38.909241,6147030.0
11:07:38.949241,6147897.0
11:07:38.989241,6148588.0
11:07:39.029241,6145988.0
11:07:39.069241,6145649.0
11:07:39.109241,6146297.0
11:07:39.149241,6146272.0
11:07:39.189241,6146083.0
11:07:39.229241,6146106.0
11:07:39.269241,6146426.0
11:07:39.309241,6146694.0
11:07:39.349241,6146692.0
11:07:39.389241,6147723.0
11:07:39.429241,6145327.0
11:07:39.469241,6145892.0
11:07:39.509241,6146057.0
11:07:39.549241,6145461.0
11:07:39.589241,6145306.0
11:07:39.629241,6145996.0
11:07:39.669241,6146185.0
11:07:39.709241,6145762.0
11:07:39.749241,6145693.0
11:07:39.789241,6149460.0
11:07:39.829241,6144966.0
11:07:39.869241,6145110.0
11:07:39.909241,6144969.0
11:07:44.551762,6144656.0
11:07:44.591762,6144934.0
11:07:44.631762,6148317.0
11:07:44.671762,6143215.0
11:07:44.711762,6144283.0
11:07:44.751762,6144472.0
11:07:44.791762,6144389.0
11:07:44.831762,6144121.0
11:07:44.871762,6145201.0
11:07:44.911762,6144716.0
11:07:44.951762,6144461.0
11:07:44.991762,6143885.0
11:07:45.031762,6150958.0
11:07:45.071762,6142921.0
11:07:45.111762,6144000.0
11:07:45.151762,6143870.0
11:07:45.191762,6144339.0
11:07:45.231762,6143701.0
11:07:45.271762,6143578.0
11:07:45.311762,6144330.0
11:07:45.351762,6144494.0
11:07:45.391762,6144113.0
11:07:45.431762,6143474.0
11:07:45.471762,6144279.0
11:07:45.511762,6145326.0
11:07:45.551762,6143359.0
11:07:45.591762,6142946.0
11:07:45.631762,6143618.0
11:07:45.671762,6143396.0
11:07:45.711762,6143384.0
11:07:45.751762,6143175.0
11:07:45.791762,6143577.0
11:07:45.831762,6143602.0
11:07:45.871762,6143667.0
11:07:45.911762,6143089.0
11:07:45.951762,6146994.0
11:07:45.991762,6142280.0
11:07:46.031762,6143299.0
11:07:46.071762,6142783.0
11:07:46.111762,6142727.0
11:07:46.151762,6143123.0
11:07:46.191762,6143241.0
11:07:46.231762,6142645.0
11:07:46.271762,6142837.0
11:07:46.311762,6143248.0
11:07:46.351762,6143216.0
11:07:46.391762,6145561.0
11:07:46.431762,6142078.0
11:07:46.471762,6142772.0
11:07:46.511762,6142280.0
11:07:46.551762,6142262.0
11:07:46.591762,6141719.0
11:07:46.631762,6142755.0
11:07:46.671762,6142632.0
11:07:46.711762,6142688.0
11:07:46.751762,6141986.0
11:07:46.791762,6142808.0
11:07:46.831762,6142461.0
11:07:46.871762,6142504.0
11:07:46.911762,6141618.0
11:07:46.951762,6148243.0
11:07:46.991762,6141233.0
11:07:47.031762,6141561.0
11:07:47.071762,6141594.0
11:07:47.111762,6141780.0
11:07:47.151762,6141652.0
11:07:47.191762,6141841.0
11:07:47.231762,6142121.0
11:07:47.271762,6141975.0
11:07:47.311762,6141734.0
11:07:47.351762,6142519.0
11:07:47.391762,6146608.0
11:07:47.431762,6141106.0
11:07:47.471762,6141589.0
11:07:47.511762,6141774.0
11:07:47.551762,6142147.0
11:07:47.591762,6141789.0
11:07:47.631762,6142442.0
11:07:47.671762,6142463.0
11:07:47.711762,6142300.0
11:07:47.751762,6142702.0
11:07:47.791762,6142694.0
11:07:47.831762,6142656.0
11:07:47.871762,6142546.0
11:07:47.911762,6143341.0
11:07:47.951762,6143357.0
11:07:47.991762,6142333.0
11:07:48.031762,6142354.0
11:07:48.071762,6142755.0
11:07:48.111762,6142652.0
11:07:48.151762,6142913.0
11:07:48.191762,6143179.0
11:07:48.231762,6143618.0
11:07:48.271762,6143160.0
11:07:48.311762,6143263.0
11:07:48.351762,6143142.0
11:07:48.391762,6143321.0
11:07:48.431762,6143428.0
11:07:48.471762,6143610.0
11:07:48.511762,6143518.0
11:07:48.851314,6147984.0
11:07:48.891314,6142414.0
11:07:48.931314,6148176.0
11:07:48.971314,6140605.0
11:07:49.011314,6141888.0
11:07:49.051314,6141551.0
11:07:49.091314,6141760.0
11:07:49.131314,6141701.0
11:07:49.171314,6142009.0
11:07:49.211314,6141695.0
11:07:49.251314,6142117.0
11:07:49.291314,6141934.0
11:07:49.331314,6141856.0
11:07:49.371314,6141803.0
11:07:49.411314,6141975.0
11:07:49.451314,6141647.0
11:07:49.491314,6141715.0
11:07:49.531314,6146438.0
11:07:49.571314,6140826.0
11:07:49.611314,6141121.0
11:07:49.651314,6141577.0
11:07:49.691314,6141680.0
11:07:49.731314,6141559.0
11:07:49.771314,6141572.0
11:07:49.811314,6141907.0
11:07:49.851314,6141670.0
11:07:49.891314,6141914.0
11:07:49.931314,6143649.0
11:07:49.971314,6140496.0
11:07:50.011314,6140877.0
11:07:50.051314,6141357.0
11:07:50.091314,6140962.0
11:07:50.131314,6141045.0
11:07:50.171314,6141305.0
11:07:50.211314,6141490.0
11:07:50.251314,6141255.0
11:07:50.291314,6141675.0
11:07:50.331314,6141442.0
11:07:50.371314,6141117.0
11:07:50.411314,6140790.0
11:07:50.451314,6144999.0
11:07:50.491314,6140571.0
11:07:50.531314,6140820.0
11:07:50.571314,6140393.0
11:07:50.611314,6140964.0
11:07:50.651314,6140746.0
11:07:50.691314,6140775.0
11:07:50.731314,6140973.0
11:07:50.771314,6141532.0
11:07:50.811314,6145357.0
11:07:50.851314,6139216.0
11:07:50.891314,6140652.0
11:07:50.931314,6140588.0
11:07:50.971314,6140265.0
11:07:51.011314,6140543.0
11:07:51.051314,6140407.0
11:07:51.091314,6140147.0
11:07:51.131314,6140478.0
11:07:51.171314,6140632.0
11:07:51.211314,6143616.0
11:07:51.251314,6139358.0
11:07:51.291314,6139776.0
11:07:51.331314,6139445.0
11:07:51.371314,6139121.0
11:07:51.411314,6139556.0
11:07:51.451314,6140106.0
11:07:51.491314,6139871.0
11:07:51.531314,6139787.0
11:07:51.571314,6139905.0
11:07:51.611314,6140283.0
11:07:51.651314,6139580.0
11:07:51.691314,6139646.0
11:07:51.731314,6139720.0
11:07:51.771314,6139538.0
11:07:51.811314,6139393.0
11:07:51.851314,6139511.0
11:07:51.891314,6146632.0
11:07:51.931314,6137875.0
11:07:51.971314,6139329.0
11:07:52.011314,6138816.0
11:07:52.051314,6138697.0
11:07:52.091314,6138658.0
11:07:52.131314,6139161.0
11:07:52.171314,6139057.0
11:07:52.211314,6139315.0
11:07:52.251314,6144239.0
11:07:52.291314,6137205.0
11:07:52.331314,6138913.0
11:07:52.371314,6138873.0
11:07:52.411314,6138800.0
11:07:52.451314,6138941.0
11:07:52.491314,6139449.0
11:07:52.531314,6139211.0
11:07:52.571314,6139915.0
11:07:52.611314,6141199.0
11:07:52.651314,6138759.0
11:07:52.691314,6138914.0
11:07:52.731314,6139098.0
11:07:52.771314,6139088.0
11:07:52.811314,6139163.0
11:07:53.152394,6139980.0
11:07:53.192394,6139499.0
11:07:53.232394,6139624.0
11:07:53.272394,6140158.0
11:07:53.312394,6139663.0
11:07:53.352394,6139685.0
11:07:53.392394,6139767.0
11:07:53.432394,6139714.0
11:07:53.472394,6140004.0
11:07:53.512394,6145846.0
11:07:53.552394,6138458.0
11:07:53.592394,6139456.0
11:07:53.632394,6139165.0
11:07:53.672394,6139374.0
11:07:53.712394,6139462.0
11:07:53.752394,6140118.0
11:07:53.792394,6140227.0
11:07:53.832394,6140047.0
11:07:53.872394,6140593.0
11:07:53.912394,6140099.0
11:07:53.952394,6147914.0
11:07:53.992394,6138875.0
11:07:54.032394,6139847.0
11:07:54.072394,6139689.0
11:07:54.112394,6139475.0
11:07:54.152394,6139547.0
11:07:54.192394,6140446.0
11:07:54.232394,6140658.0
11:07:54.272394,6140111.0
11:07:54.312394,6139875.0
11:07:54.352394,6140388.0
11:07:54.392394,6140406.0
11:07:54.432394,6147303.0
11:07:54.472394,6138533.0
11:07:54.512394,6139671.0
11:07:54.552394,6140164.0
11:07:54.592394,6140177.0
11:07:54.632394,6139253.0
11:07:54.672394,6139890.0
11:07:54.712394,6140343.0
11:07:54.752394,6139978.0
11:07:54.792394,6139360.0
11:07:54.832394,6139775.0
11:07:54.872394,6140164.0
11:07:54.912394,6140037.0
11:07:54.952394,6144802.0
11:07:54.992394,6138373.0
11:07:55.032394,6139441.0
11:07:55.072394,6139367.0
11:07:55.112394,6138999.0
11:07:55.152394,6139043.0
11:07:55.192394,6139718.0
11:07:55.232394,6139735.0
11:07:55.272394,6139527.0
11:07:55.312394,6140760.0
11:07:55.352394,6138095.0
11:07:55.392394,6138793.0
11:07:55.432394,6138942.0
11:07:55.472394,6139053.0
11:07:55.512394,6138988.0
11:07:55.552394,6139121.0
11:07:55.592394,6139423.0
11:07:55.632394,6139042.0
11:07:55.672394,6138934.0
11:07:55.712394,6139585.0
11:07:55.752394,6140531.0
11:07:55.792394,6138395.0
11:07:55.832394,6138628.0
11:07:55.872394,6138426.0
11:07:55.912394,6138353.0
11:07:55.952394,6138652.0
11:07:55.992394,6138742.0
11:07:56.032394,6138907.0
11:07:56.072394,6139197.0
11:07:56.112394,6139042.0
11:07:56.152394,6138595.0
11:07:56.192394,6138567.0
11:07:56.232394,6138642.0
11:07:56.272394,6143370.0
11:07:56.312394,6137538.0
11:07:56.352394,6137899.0
11:07:56.392394,6138269.0
11:07:56.432394,6138367.0
11:07:56.472394,6138522.0
11:07:56.512394,6138480.0
11:07:56.552394,6138570.0
11:07:56.592394,6138737.0
11:07:56.632394,6139218.0
11:07:56.672394,6138314.0
11:07:56.712394,6138168.0
11:07:56.752394,6138455.0
11:07:56.792394,6138676.0
11:07:56.832394,6140984.0
11:07:56.872394,6138397.0
11:07:56.912394,6137942.0
11:07:56.952394,6137985.0
11:07:56.992394,6137905.0
11:07:57.032394,6137589.0
11:07:57.072394,6137773.0
11:07:57.112394,6138412.0
11:07:57.454724,6138555.0
11:07:57.494724,6137605.0
11:07:57.534724,6137771.0
11:07:57.574724,6137816.0
11:07:57.614724,6137998.0
11:07:57.654724,6137634.0
11:07:57.694724,6137976.0
11:07:57.734724,6137888.0
11:07:57.774724,6140823.0
11:07:57.814724,6136989.0
11:07:57.854724,6137738.0
11:07:57.894724,6137356.0
11:07:57.934724,6137810.0
11:07:57.974724,6137270.0
11:07:58.014724,6137755.0
11:07:58.054724,6138111.0
11:07:58.094724,6137881.0
11:07:58.134724,6137548.0
11:07:58.174724,6137927.0
11:07:58.214724,6138247.0
11:07:58.254724,6137731.0
11:07:58.294724,6137714.0
11:07:58.334724,6137759.0
11:07:58.374724,6137874.0
11:07:58.414724,6137693.0
11:07:58.454724,6137796.0
11:07:58.494724,6137941.0
11:07:58.534724,6144211.0
11:07:58.574724,6137110.0
11:07:58.614724,6137343.0
11:07:58.654724,6137119.0
11:07:58.694724,6137374.0
11:07:58.734724,6137162.0
11:07:58.774724,6137469.0
11:07:58.814724,6138100.0
11:07:58.854724,6138303.0
11:07:58.894724,6137716.0
11:07:58.934724,6138290.0
11:07:58.974724,6138123.0
11:07:59.014724,6138018.0
11:07:59.054724,6138013.0
11:07:59.094724,6138030.0
11:07:59.134724,6138013.0
11:07:59.174724,6138220.0
11:07:59.214724,6138487.0
11:07:59.254724,6140990.0
11:07:59.294724,6137356.0
11:07:59.334724,6137668.0
11:07:59.374724,6137851.0
11:07:59.414724,6137621.0
11:07:59.454724,6137908.0
11:07:59.494724,6138211.0
11:07:59.534724,6138444.0
11:07:59.574724,6138101.0
11:07:59.614724,6138238.0
11:07:59.654724,6138382.0
11:07:59.694724,6138316.0
11:07:59.734724,6138049.0
11:07:59.774724,6138413.0
11:07:59.814724,6138071.0
11:07:59.854724,6140932.0
11:07:59.894724,6138384.0
11:07:59.934724,6137726.0
11:07:59.974724,6137439.0
11:08:00.014724,6137898.0
11:08:00.054724,6137409.0
11:08:00.094724,6137572.0
11:08:00.134724,6138271.0
11:08:00.174724,6137970.0
11:08:00.214724,6138657.0
11:08:00.254724,6140124.0
11:08:00.294724,6137658.0
11:08:00.334724,6137383.0
11:08:00.374724,6137451.0
11:08:00.414724,6138070.0
11:08:00.454724,6138157.0
11:08:00.494724,6138039.0
11:08:00.534724,6138269.0
11:08:00.574724,6138119.0
11:08:00.614724,6137727.0
11:08:00.654724,6138112.0
11:08:00.694724,6138330.0
11:08:00.734724,6138073.0
11:08:00.774724,6137864.0
11:08:00.814724,6138218.0
11:08:00.854724,6142794.0
11:08:00.894724,6136877.0
11:08:00.934724,6137752.0
11:08:00.974724,6137758.0
11:08:01.014724,6137339.0
11:08:01.054724,6137918.0
11:08:01.094724,6137777.0
11:08:01.134724,6138012.0
11:08:01.174724,6138334.0
11:08:01.214724,6138059.0
11:08:01.254724,6144324.0
11:08:01.294724,6136914.0
11:08:01.334724,6137959.0
11:08:01.374724,6137610.0
11:08:01.414724,6137530.0
11:08:01.662430,6137743.0
11:08:01.702430,6137521.0
11:08:01.742430,6137483.0
11:08:01.782430,6138075.0
11:08:01.822430,6137211.0
11:08:01.862430,6137419.0
11:08:01.902430,6137842.0
11:08:01.942430,6140827.0
11:08:01.982430,6135847.0
11:08:02.022430,6137217.0
11:08:02.062430,6137631.0
11:08:02.102430,6137388.0
11:08:02.142430,6137692.0
11:08:02.182430,6137747.0
11:08:02.222430,6137687.0
11:08:02.262430,6137496.0
11:08:02.302430,6138029.0
11:08:02.342430,6137954.0
11:08:02.382430,6140092.0
11:08:02.422430,6137050.0
11:08:02.462430,6137175.0
11:08:02.502430,6136937.0
11:08:02.542430,6137141.0
11:08:02.582430,6137681.0
11:08:02.622430,6137809.0
11:08:02.662430,6137755.0
11:08:02.702430,6137609.0
11:08:02.742430,6137536.0
11:08:02.782430,6138000.0
11:08:02.822430,6137564.0
11:08:02.862430,6137268.0
11:08:02.902430,6137504.0
11:08:02.942430,6137855.0
11:08:02.982430,6137598.0
11:08:03.022430,6137375.0
11:08:03.062430,6137470.0
11:08:03.102430,6138216.0
11:08:03.142430,6139484.0
11:08:03.182430,6136591.0
11:08:03.222430,6137111.0
11:08:03.262430,6137284.0
11:08:03.302430,6137170.0
11:08:03.342430,6137099.0
11:08:03.382430,6137799.0
11:08:03.422430,6137909.0
11:08:03.462430,6137668.0
11:08:03.502430,6139082.0
11:08:03.542430,6136663.0
11:08:03.582430,6137319.0
11:08:03.622430,6137545.0
11:08:03.662430,6138053.0
11:08:03.702430,6137927.0
11:08:03.742430,6137857.0
11:08:03.782430,6138608.0
11:08:03.822430,6138806.0
11:08:03.862430,6138518.0
11:08:03.902430,6139286.0
11:08:03.942430,6146091.0
11:08:03.982430,6138537.0
11:08:04.022430,6139845.0
11:08:04.062430,6139881.0
11:08:04.102430,6140375.0
11:08:04.142430,6141040.0
11:08:04.182430,6141826.0
11:08:04.222430,6142215.0
11:08:04.262430,6142952.0
11:08:04.302430,6143236.0
11:08:04.342430,6143705.0
11:08:04.382430,6150943.0
11:08:04.422430,6143727.0
11:08:04.462430,6145955.0
11:08:04.502430,6146950.0
11:08:04.542430,6148337.0
11:08:04.582430,6150042.0
11:08:04.622430,6151543.0
11:08:04.662430,6150835.0
11:08:04.702430,6150627.0
11:08:04.742430,6150319.0
11:08:04.782430,6155609.0
11:08:04.822430,6147683.0
11:08:04.862430,6148230.0
11:08:04.902430,6146988.0
11:08:04.942430,6146439.0
11:08:04.982430,6146489.0
11:08:05.022430,6147634.0
11:08:05.062430,6147890.0
11:08:05.102430,6149006.0
11:08:05.142430,6149385.0
11:08:05.182430,6149391.0
11:08:05.222430,6149984.0
11:08:05.262430,6150406.0
11:08:05.302430,6154940.0
11:08:05.342430,6149105.0
11:08:05.382430,6149943.0
11:08:05.422430,6149978.0
11:08:05.462430,6149507.0
11:08:05.502430,6149762.0
11:08:05.542430,6149661.0
11:08:05.582430,6149704.0
11:08:05.622430,6149273.0
11:08:06.054386,6149339.0
11:08:06.094386,6147714.0
11:08:06.134386,6147158.0
11:08:06.174386,6147224.0
11:08:06.214386,6147604.0
11:08:06.254386,6147164.0
11:08:06.294386,6147368.0
11:08:06.334386,6147170.0
11:08:06.374386,6146445.0
11:08:06.414386,6146160.0
11:08:06.454386,6151166.0
11:08:06.494386,6146001.0
11:08:06.534386,6145272.0
11:08:06.574386,6145473.0
11:08:06.614386,6145035.0
11:08:06.654386,6145050.0
11:08:06.694386,6145792.0
11:08:06.734386,6145314.0
11:08:06.774386,6144833.0
11:08:06.814386,6144869.0
11:08:06.854386,6145346.0
11:08:06.894386,6145277.0
11:08:06.934386,6144498.0
11:08:06.974386,6149577.0
11:08:07.014386,6144006.0
11:08:07.054386,6143692.0
11:08:07.094386,6143855.0
11:08:07.134386,6143924.0
11:08:07.174386,6143892.0
11:08:07.214386,6144041.0
11:08:07.254386,6144249.0
11:08:07.294386,6143676.0
11:08:07.334386,6143606.0
11:08:07.374386,6144051.0
11:08:07.414386,6143820.0
11:08:07.454386,6143930.0
11:08:07.494386,6143564.0
11:08:07.534386,6143521.0
11:08:07.574386,6152038.0
11:08:07.614386,6142744.0
11:08:07.654386,6144033.0
11:08:07.694386,6143405.0
11:08:07.734386,6143586.0
11:08:07.774386,6144010.0
11:08:07.814386,6143757.0
11:08:07.854386,6144439.0
11:08:07.894386,6144045.0
11:08:07.934386,6144695.0
11:08:07.974386,6143679.0
11:08:08.014386,6144161.0
11:08:08.054386,6143630.0
11:08:08.094386,6143991.0
11:08:08.134386,6144168.0
11:08:08.174386,6144308.0
11:08:08.214386,6144435.0
11:08:08.254386,6144028.0
11:08:08.294386,6144080.0
11:08:08.334386,6149697.0
11:08:08.374386,6142929.0
11:08:08.414386,6143455.0
11:08:08.454386,6143249.0
11:08:08.494386,6143133.0
11:08:08.534386,6142838.0
11:08:08.574386,6143195.0
11:08:08.614386,6143437.0
11:08:08.654386,6143430.0
11:08:08.694386,6143490.0
11:08:08.734386,6145924.0
11:08:08.774386,6142439.0
11:08:08.814386,6142674.0
11:08:08.854386,6142707.0
11:08:08.894386,6142134.0
11:08:08.934386,6142699.0
11:08:08.974386,6142991.0
11:08:09.014386,6143047.0
11:08:09.054386,6142532.0
11:08:09.094386,6143078.0
11:08:09.134386,6142867.0
11:08:09.174386,6142598.0
11:08:09.214386,6142055.0
11:08:09.254386,6142934.0
11:08:09.294386,6142756.0
11:08:09.334386,6147789.0
11:08:09.374386,6141536.0
11:08:09.414386,6141999.0
11:08:09.454386,6141891.0
11:08:09.494386,6141917.0
11:08:09.534386,6141854.0
11:08:09.574386,6142495.0
11:08:09.614386,6142749.0
11:08:09.654386,6142790.0
11:08:09.694386,6147819.0
11:08:09.734386,6141325.0
11:08:09.774386,6142688.0
11:08:09.814386,6143024.0
11:08:09.854386,6143640.0
11:08:09.894386,6143629.0
11:08:09.934386,6143998.0
11:08:09.974386,6143777.0
11:08:10.014386,6144250.0
11:08:10.359256,6143923.0
11:08:10.399256,6145305.0
11:08:10.439256,6145506.0
11:08:10.479256,6145567.0
11:08:10.519256,6145767.0
11:08:10.559256,6146540.0
11:08:10.599256,6146282.0
11:08:10.639256,6146710.0
11:08:10.679256,6146772.0
11:08:10.719256,6146541.0
11:08:10.759256,6146164.0
11:08:10.799256,6146372.0
11:08:10.839256,6146275.0
11:08:10.879256,6146215.0
11:08:10.919256,6151353.0
11:08:10.959256,6144507.0
11:08:10.999256,6145293.0
11:08:11.039256,6145361.0
11:08:11.079256,6145218.0
11:08:11.119256,6144764.0
11:08:11.159256,6145679.0
11:08:11.199256,6145730.0
11:08:11.239256,6145446.0
11:08:11.279256,6146291.0
11:08:11.319256,6144611.0
11:08:11.359256,6145125.0
11:08:11.399256,6144885.0
11:08:11.439256,6144909.0
11:08:11.479256,6145625.0
11:08:11.519256,6145477.0
11:08:11.559256,6145215.0
11:08:11.599256,6145607.0
11:08:11.639256,6146521.0
11:08:11.679256,6146847.0
11:08:11.719256,6147094.0
11:08:11.759256,6146161.0
11:08:11.799256,6146173.0
11:08:11.839256,6145883.0
11:08:11.879256,6146135.0
11:08:11.919256,6146601.0
11:08:11.959256,6146969.0
11:08:11.999256,6146941.0
11:08:12.039256,6146958.0
11:08:12.079256,6146929.0
11:08:12.119256,6151780.0
11:08:12.159256,6145903.0
11:08:12.199256,6146798.0
11:08:12.239256,6146137.0
11:08:12.279256,6146213.0
11:08:12.319256,6146243.0
11:08:12.359256,6146706.0
11:08:12.399256,6146484.0
11:08:12.439256,6146479.0
11:08:12.479256,6146808.0
11:08:12.519256,6146019.0
11:08:12.559256,6146082.0
11:08:12.599256,6145702.0
11:08:12.639256,6145755.0
11:08:12.679256,6146218.0
11:08:12.719256,6146375.0
11:08:12.759256,6145983.0
11:08:12.799256,6145946.0
11:08:12.839256,6145948.0
11:08:12.879256,6145736.0
11:08:12.919256,6146091.0
11:08:12.959256,6146183.0
11:08:12.999256,6146203.0
11:08:13.039256,6146044.0
11:08:13.079256,6146112.0
11:08:13.119256,6146082.0
11:08:13.159256,6146446.0
11:08:13.199256,6146437.0
11:08:13.239256,6147663.0
11:08:13.279256,6146322.0
11:08:13.319256,6146295.0
11:08:13.359256,6146457.0
11:08:13.399256,6146495.0
11:08:13.439256,6147158.0
11:08:13.479256,6147485.0
11:08:13.519256,6147911.0
11:08:13.559256,6147746.0
11:08:13.599256,6148455.0
11:08:13.639256,6148197.0
11:08:13.679256,6148338.0
11:08:13.719256,6148248.0
11:08:13.759256,6148728.0
11:08:13.799256,6148645.0
11:08:13.839256,6148552.0
11:08:13.879256,6150196.0
11:08:13.919256,6149370.0
11:08:13.959256,6148464.0
11:08:13.999256,6148063.0
11:08:14.039256,6148345.0
11:08:14.079256,6148866.0
11:08:14.119256,6149164.0
11:08:14.159256,6148987.0
11:08:14.199256,6149055.0
11:08:14.239256,6149310.0
11:08:14.279256,6148961.0
11:08:14.319256,6156088.0
11:08:16.090243,6148115.0
11:08:16.130243,6150761.0
11:08:16.170243,6150407.0
11:08:16.210243,6150589.0
11:08:16.250243,6150182.0
11:08:16.290243,6151545.0
11:08:16.330243,6155231.0
11:08:16.370243,6150706.0
11:08:16.410243,6150916.0
11:08:16.450243,6151252.0
11:08:16.490243,6151457.0
11:08:16.530243,6151385.0
11:08:16.570243,6151869.0
11:08:16.610243,6152140.0
11:08:16.650243,6152522.0
11:08:16.690243,6152581.0
11:08:16.730243,6152559.0
11:08:16.770243,6155433.0
11:08:16.810243,6152553.0
11:08:16.850243,6152902.0
11:08:16.890243,6153757.0
11:08:16.930243,6154144.0
11:08:16.970243,6155046.0
11:08:17.010243,6155633.0
11:08:17.050243,6155785.0
11:08:17.090243,6158419.0
11:08:17.130243,6155466.0
11:08:17.170243,6157454.0
11:08:17.210243,6157724.0
11:08:17.250243,6158312.0
11:08:17.290243,6159784.0
11:08:17.330243,6161002.0
11:08:17.370243,6161389.0
11:08:17.410243,6161811.0
11:08:17.450243,6162721.0
11:08:17.490243,6162991.0
11:08:17.530243,6163179.0
11:08:17.570243,6164078.0
11:08:17.610243,6164207.0
11:08:17.650243,6163887.0
11:08:17.690243,6163307.0
11:08:17.730243,6163915.0
11:08:17.770243,6163942.0
11:08:17.810243,6167906.0
11:08:17.850243,6163805.0
11:08:17.890243,6164813.0
11:08:17.930243,6165120.0
11:08:17.970243,6165319.0
11:08:18.010243,6166567.0
11:08:18.050243,6166840.0
11:08:18.090243,6166814.0
11:08:18.130243,6167754.0
11:08:18.170243,6168339.0
11:08:18.210243,6168857.0
11:08:18.250243,6168718.0
11:08:18.290243,6169285.0
11:08:18.330243,6172391.0
11:08:18.370243,6171149.0
11:08:18.410243,6173239.0
11:08:18.450243,6173862.0
11:08:18.490243,6174521.0
11:08:18.530243,6175346.0
11:08:18.570243,6176555.0
11:08:18.610243,6176330.0
11:08:18.650243,6176086.0
11:08:18.690243,6180206.0
11:08:18.730243,6174831.0
11:08:18.770243,6176357.0
11:08:18.810243,6175409.0
11:08:18.850243,6175625.0
11:08:18.890243,6175727.0
11:08:18.930243,6176117.0
11:08:18.970243,6176255.0
11:08:19.010243,6175571.0
11:08:19.050243,6176047.0
11:08:19.090243,6176897.0
11:08:19.130243,6179381.0
11:08:19.170243,6175417.0
11:08:19.210243,6176352.0
11:08:19.250243,6176419.0
11:08:19.290243,6176114.0
11:08:19.330243,6177037.0
11:08:19.370243,6177305.0
11:08:19.410243,6177340.0
11:08:19.450243,6176725.0
11:08:19.490243,6177249.0
11:08:19.530243,6181730.0
11:08:19.570243,6175500.0
11:08:19.610243,6175768.0
11:08:19.650243,6176328.0
11:08:19.690243,6175986.0
11:08:19.730243,6176583.0
11:08:19.770243,6177109.0
11:08:19.810243,6177281.0
11:08:19.850243,6176991.0
11:08:19.890243,6183282.0
11:08:19.930243,6175867.0
11:08:19.970243,6177000.0
11:08:20.010243,6176548.0
11:08:20.050243,6176383.0
11:08:21.420216,6177024.0
11:08:21.460216,6178765.0
11:08:21.500216,6179579.0
11:08:21.540216,6185164.0
11:08:21.580216,6177550.0
11:08:21.620216,6178073.0
11:08:21.660216,6178703.0
11:08:21.700216,6179162.0
11:08:21.740216,6178379.0
11:08:21.780216,6178256.0
11:08:21.820216,6179044.0
11:08:21.860216,6179303.0
11:08:21.900216,6179157.0
11:08:21.940216,6179370.0
11:08:21.980216,6179326.0
11:08:22.020216,6179636.0
11:08:22.060216,6179582.0
11:08:22.100216,6179491.0
11:08:22.140216,6179565.0
11:08:22.180216,6182402.0
11:08:22.220216,6179655.0
11:08:22.260216,6179603.0
11:08:22.300216,6179662.0
11:08:22.340216,6179902.0
11:08:22.380216,6179809.0
11:08:22.420216,6180396.0
11:08:22.460216,6180411.0
11:08:22.500216,6180563.0
11:08:22.540216,6186606.0
11:08:22.580216,6179963.0
11:08:22.620216,6180893.0
11:08:22.660216,6181082.0
11:08:22.700216,6180997.0
11:08:22.740216,6181685.0
11:08:22.780216,6181707.0
11:08:22.820216,6181859.0
11:08:22.860216,6181568.0
11:08:22.900216,6182419.0
11:08:22.940216,6182438.0
11:08:22.980216,6182415.0
11:08:23.020216,6181871.0
11:08:23.060216,6182273.0
11:08:23.100216,6190290.0
11:08:23.140216,6180724.0
11:08:23.180216,6182305.0
11:08:23.220216,6182122.0
11:08:23.260216,6182103.0
11:08:23.300216,6182002.0
11:08:23.340216,6182235.0
11:08:23.380216,6182648.0
11:08:23.420216,6183303.0
11:08:23.460216,6189240.0
11:08:23.500216,6181691.0
11:08:23.540216,6182975.0
11:08:23.580216,6183424.0
11:08:23.620216,6184048.0
11:08:23.660216,6183690.0
11:08:23.700216,6184329.0
11:08:23.740216,6184917.0
11:08:23.780216,6185422.0
11:08:23.820216,6184819.0
11:08:23.860216,6185896.0
11:08:23.900216,6187159.0
11:08:23.940216,6186227.0
11:08:23.980216,6185517.0
11:08:24.020216,6186635.0
11:08:24.060216,6186753.0
11:08:24.100216,6187273.0
11:08:24.140216,6187322.0
11:08:24.180216,6188527.0
11:08:24.220216,6188598.0
11:08:24.260216,6188715.0
11:08:24.300216,6188720.0
11:08:24.340216,6189678.0
11:08:24.380216,6193007.0
11:08:24.420216,6189451.0
11:08:24.460216,6190212.0
11:08:24.500216,6190554.0
11:08:24.540216,6191011.0
11:08:24.580216,6191471.0
11:08:24.620216,6191444.0
11:08:24.660216,6192011.0
11:08:24.700216,6192237.0
11:08:24.740216,6192503.0
11:08:24.780216,6196501.0
11:08:24.820216,6191847.0
11:08:24.860216,6192835.0
11:08:24.900216,6193269.0
11:08:24.940216,6192912.0
11:08:24.980216,6193717.0
11:08:25.020216,6194018.0
11:08:25.060216,6194524.0
11:08:25.100216,6194911.0
11:08:25.140216,6201064.0
11:08:25.180216,6195269.0
11:08:25.220216,6195998.0
11:08:25.260216,6196151.0
11:08:25.300216,6197379.0
11:08:25.340216,6197794.0
11:08:25.380216,6198634.0
11:08:26.125105,6198550.0
11:08:26.165105,6207303.0
11:08:26.205105,6200238.0
11:08:26.245105,6200975.0
11:08:26.285105,6201633.0
11:08:26.325105,6201584.0
11:08:26.365105,6201336.0
11:08:26.405105,6201977.0
11:08:26.445105,6202392.0
11:08:26.485105,6208509.0
11:08:26.525105,6200188.0
11:08:26.565105,6201445.0
11:08:26.605105,6201322.0
11:08:26.645105,6200188.0
11:08:26.685105,6200882.0
11:08:26.725105,6201033.0
11:08:26.765105,6200873.0
11:08:26.805105,6199923.0
11:08:26.845105,6200445.0
11:08:26.885105,6200329.0
11:08:26.925105,6200106.0
11:08:26.965105,6199465.0
11:08:27.005105,6205288.0
11:08:27.045105,6199084.0
11:08:27.085105,6199464.0
11:08:27.125105,6199078.0
11:08:27.165105,6199348.0
11:08:27.205105,6199232.0
11:08:27.245105,6199356.0
11:08:27.285105,6198712.0
11:08:27.325105,6199144.0
11:08:27.365105,6199191.0
11:08:27.405105,6199116.0
11:08:27.445105,6198473.0
11:08:27.485105,6198961.0
11:08:27.525105,6206157.0
11:08:27.565105,6197412.0
11:08:27.605105,6198154.0
11:08:27.645105,6197922.0
11:08:27.685105,6197616.0
11:08:27.725105,6197760.0
11:08:27.765105,6198167.0
11:08:27.805105,6198142.0
11:08:27.845105,6197659.0
11:08:27.885105,6197908.0
11:08:27.925105,6203593.0
11:08:27.965105,6196826.0
11:08:28.005105,6197310.0
11:08:28.045105,6197938.0
11:08:28.085105,6198152.0
11:08:28.125105,6197800.0
11:08:28.165105,6198170.0
11:08:28.205105,6197998.0
11:08:28.245105,6198011.0
11:08:28.285105,6203477.0
11:08:28.325105,6197395.0
11:08:28.365105,6198283.0
11:08:28.405105,6198443.0
11:08:28.445105,6199103.0
11:08:28.485105,6199316.0
11:08:28.525105,6199906.0
11:08:28.565105,6200421.0
11:08:28.605105,6200682.0
11:08:28.645105,6200632.0
11:08:28.685105,6201371.0
11:08:28.725105,6201615.0
11:08:28.765105,6201528.0
11:08:28.805105,6207484.0
11:08:28.845105,6201307.0
11:08:28.885105,6201723.0
11:08:28.925105,6201768.0
11:08:28.965105,6202283.0
11:08:29.005105,6202311.0
11:08:29.045105,6203012.0
11:08:29.085105,6203157.0
11:08:29.125105,6202904.0
11:08:29.165105,6202855.0
11:08:29.205105,6203941.0
11:08:29.245105,6203604.0
11:08:29.285105,6203907.0
11:08:29.325105,6205561.0
11:08:29.365105,6203730.0
11:08:29.405105,6203576.0
11:08:29.445105,6203409.0
11:08:29.485105,6204121.0
11:08:29.525105,6204431.0
11:08:29.565105,6204095.0
11:08:29.605105,6203930.0
11:08:29.645105,6204437.0
11:08:29.685105,6204374.0
11:08:29.725105,6203829.0
11:08:29.765105,6204570.0
11:08:29.805105,6208765.0
11:08:29.845105,6204398.0
11:08:29.885105,6203544.0
11:08:29.925105,6204107.0
11:08:29.965105,6204239.0
11:08:30.005105,6204419.0
11:08:30.045105,6203730.0
11:08:30.085105,6204295.0
11:08:28.992791,6204505.0
11:08:29.032791,6203722.0
11:08:29.072791,6203853.0
11:08:29.112791,6203571.0
11:08:29.152791,6203965.0
11:08:29.192791,6203759.0
11:08:29.232791,6203569.0
11:08:29.272791,6203538.0
11:08:29.312791,6203766.0
11:08:29.352791,6203193.0
11:08:29.392791,6205331.0
11:08:29.432791,6203357.0
11:08:29.472791,6201999.0
11:08:29.512791,6203182.0
11:08:29.552791,6202790.0
11:08:29.592791,6202482.0
11:08:29.632791,6202555.0
11:08:29.672791,6203028.0
11:08:29.712791,6202907.0
11:08:29.752791,6202669.0
11:08:29.792791,6202634.0
11:08:29.832791,6202812.0
11:08:29.872791,6202972.0
11:08:29.912791,6202471.0
11:08:29.952791,6202326.0
11:08:29.992791,6202898.0
11:08:30.032791,6204936.0
11:08:30.072791,6202155.0
11:08:30.112791,6201960.0
11:08:30.152791,6202031.0
11:08:30.192791,6202593.0
11:08:30.232791,6202762.0
11:08:30.272791,6202385.0
11:08:30.312791,6202695.0
11:08:30.352791,6203100.0
11:08:30.392791,6202943.0
11:08:30.432791,6202704.0
11:08:30.472791,6203317.0
11:08:30.512791,6208138.0
11:08:30.552791,6202496.0
11:08:30.592791,6202836.0
11:08:30.632791,6203082.0
11:08:30.672791,6203278.0
11:08:30.712791,6203418.0
11:08:30.752791,6203354.0
11:08:30.792791,6203922.0
11:08:30.832791,6209787.0
11:08:30.872791,6202392.0
11:08:30.912791,6203173.0
11:08:30.952791,6204233.0
11:08:30.992791,6204013.0
11:08:31.032791,6203845.0
11:08:31.072791,6204127.0
11:08:31.112791,6204310.0
11:08:31.152791,6204022.0
11:08:31.192791,6203969.0
11:08:31.232791,6204523.0
11:08:31.272791,6204369.0
11:08:31.312791,6204252.0
11:08:31.352791,6204988.0
11:08:31.392791,6204571.0
11:08:31.432791,6203547.0
11:08:31.472791,6204181.0
11:08:31.512791,6204124.0
11:08:31.552791,6203778.0
11:08:31.592791,6203810.0
11:08:31.632791,6204422.0
11:08:31.672791,6204683.0
11:08:31.712791,6203873.0
11:08:31.752791,6203821.0
11:08:31.792791,6207253.0
11:08:31.832791,6203412.0
11:08:31.872791,6203790.0
11:08:31.912791,6203483.0
11:08:31.952791,6203702.0
11:08:31.992791,6204017.0
11:08:32.032791,6204652.0
11:08:32.072791,6203861.0
11:08:32.112791,6204411.0
11:08:32.152791,6204480.0
11:08:32.192791,6209776.0
11:08:32.232791,6202573.0
11:08:32.272791,6203862.0
11:08:32.312791,6203907.0
11:08:32.352791,6203682.0
11:08:32.392791,6204537.0
11:08:32.432791,6204338.0
11:08:32.472791,6204398.0
11:08:32.512791,6204177.0
11:08:32.552791,6204654.0
11:08:32.592791,6204304.0
11:08:32.632791,6203837.0
11:08:32.672791,6207435.0
11:08:32.712791,6204028.0
11:08:32.752791,6204487.0
11:08:32.792791,6203999.0
11:08:32.832791,6203706.0
11:08:32.872791,6204465.0
11:08:32.912791,6204642.0
11:08:32.952791,6204837.0
11:08:33.294363,6204106.0
11:08:33.334363,6204030.0
11:08:33.374363,6203380.0
11:08:33.414363,6203907.0
11:08:33.454363,6204554.0
11:08:33.494363,6204386.0
11:08:33.534363,6204031.0
11:08:33.574363,6203913.0
11:08:33.614363,6204787.0
11:08:33.654363,6204674.0
11:08:33.694363,6204206.0
11:08:33.734363,6204716.0
11:08:33.774363,6205006.0
11:08:33.814363,6204639.0
11:08:33.854363,6204481.0
11:08:33.894363,6204828.0
11:08:33.934363,6204643.0
11:08:33.974363,6204564.0
11:08:34.014363,6208280.0
11:08:34.054363,6203749.0
11:08:34.094363,6204297.0
11:08:34.134363,6204292.0
11:08:34.174363,6204304.0
11:08:34.214363,6204456.0
11:08:34.254363,6204432.0
11:08:34.294363,6205139.0
11:08:34.334363,6204763.0
11:08:34.374363,6209196.0
11:08:34.414363,6202804.0
11:08:34.454363,6204511.0
11:08:34.494363,6204854.0
11:08:34.534363,6204487.0
11:08:34.574363,6204246.0
11:08:34.614363,6204576.0
11:08:34.654363,6204642.0
11:08:34.694363,6204448.0
11:08:34.734363,6204693.0
11:08:34.774363,6205017.0
11:08:34.814363,6206644.0
11:08:34.854363,6203834.0
11:08:34.894363,6204199.0
11:08:34.934363,6203869.0
11:08:34.974363,6204259.0
11:08:35.014363,6204000.0
11:08:35.054363,6204175.0
11:08:35.094363,6204209.0
11:08:35.134363,6210601.0
11:08:35.174363,6202818.0
11:08:35.214363,6203788.0
11:08:35.254363,6203703.0
11:08:35.294363,6203675.0
11:08:35.334363,6203705.0
11:08:35.374363,6204079.0
11:08:35.414363,6205480.0
11:08:35.454363,6202044.0
11:08:35.494363,6203699.0
11:08:35.534363,6203113.0
11:08:35.574363,6202997.0
11:08:35.614363,6203321.0
11:08:35.654363,6203437.0
11:08:35.694363,6203875.0
11:08:35.734363,6203451.0
11:08:35.774363,6203276.0
11:08:35.814363,6203078.0
11:08:35.854363,6203085.0
11:08:35.894363,6202905.0
11:08:35.934363,6202571.0
11:08:35.974363,6207705.0
11:08:36.014363,6201496.0
11:08:36.054363,6201711.0
11:08:36.094363,6202163.0
11:08:36.134363,6202251.0
11:08:36.174363,6202086.0
11:08:36.214363,6202421.0
11:08:36.254363,6202543.0
11:08:36.294363,6202371.0
11:08:36.334363,6202424.0
11:08:36.374363,6202286.0
11:08:36.414363,6202154.0
11:08:36.454363,6202368.0
11:08:36.494363,6202571.0
11:08:36.534363,6201778.0
11:08:36.574363,6203136.0
11:08:36.614363,6203137.0
11:08:36.654363,6201576.0
11:08:36.694363,6201445.0
11:08:36.734363,6201368.0
11:08:36.774363,6201164.0
11:08:36.814363,6201863.0
11:08:36.854363,6201801.0
11:08:36.894363,6201735.0
11:08:36.934363,6201811.0
11:08:36.974363,6201681.0
11:08:37.014363,6201462.0
11:08:37.054363,6202006.0
11:08:37.094363,6201803.0
11:08:37.134363,6205120.0
11:08:37.174363,6201593.0
11:08:37.214363,6202204.0
11:08:37.254363,6202267.0
11:08:37.591206,6202617.0
11:08:37.631206,6204588.0
11:08:37.671206,6204988.0
11:08:37.711206,6205699.0
11:08:37.751206,6205890.0
11:08:37.791206,6206296.0
11:08:37.831206,6206834.0
11:08:37.871206,6213957.0
11:08:37.911206,6206061.0
11:08:37.951206,6207557.0
11:08:37.991206,6207720.0
11:08:38.031206,6207826.0
11:08:38.071206,6208170.0
11:08:38.111206,6208281.0
11:08:38.151206,6208556.0
11:08:38.191206,6209250.0
11:08:38.231206,6209770.0
11:08:38.271206,6209444.0
11:08:38.311206,6209820.0
11:08:38.351206,6210387.0
11:08:38.391206,6210384.0
11:08:38.431206,6210078.0
11:08:38.471206,6218338.0
11:08:38.511206,6209767.0
11:08:38.551206,6210236.0
11:08:38.591206,6211335.0
11:08:38.631206,6210868.0
11:08:38.671206,6210813.0
11:08:38.711206,6210734.0
11:08:38.751206,6210558.0
11:08:38.791206,6209986.0
11:08:38.831206,6209023.0
11:08:38.871206,6209056.0
11:08:38.911206,6208000.0
11:08:38.951206,6207441.0
11:08:38.991206,6210849.0
11:08:39.031206,6207029.0
11:08:39.071206,6206613.0
11:08:39.111206,6206659.0
11:08:39.151206,6206017.0
11:08:39.191206,6206212.0
11:08:39.231206,6206051.0
11:08:39.271206,6205899.0
11:08:39.311206,6206597.0
11:08:39.351206,6205626.0
11:08:39.391206,6205285.0
11:08:39.431206,6205324.0
11:08:39.471206,6211795.0
11:08:39.511206,6203150.0
11:08:39.551206,6204701.0
11:08:39.591206,6204585.0
11:08:39.631206,6203585.0
11:08:39.671206,6204073.0
11:08:39.711206,6203538.0
11:08:39.751206,6203589.0
11:08:39.791206,6203758.0
11:08:39.831206,6203796.0
11:08:39.871206,6202891.0
11:08:39.911206,6202609.0
11:08:39.951206,6202579.0
11:08:39.991206,6202975.0
11:08:40.031206,6202982.0
11:08:40.071206,6202244.0
11:08:40.111206,6202490.0
11:08:40.151206,6202799.0
11:08:40.191206,6202789.0
11:08:40.231206,6208293.0
11:08:40.271206,6201175.0
11:08:40.311206,6201583.0
11:08:40.351206,6201519.0
11:08:40.391206,6201643.0
11:08:40.431206,6201338.0
11:08:40.471206,6201301.0
11:08:40.511206,6201674.0
11:08:40.551206,6201506.0
11:08:40.591206,6201862.0
11:08:40.631206,6207353.0
11:08:40.671206,6200686.0
11:08:40.711206,6200741.0
11:08:40.751206,6200952.0
11:08:40.791206,6200755.0
11:08:40.831206,6200749.0
11:08:40.871206,6200859.0
11:08:40.911206,6200567.0
11:08:40.951206,6200473.0
11:08:40.991206,6206973.0
11:08:41.031206,6199555.0
11:08:41.071206,6199970.0
11:08:41.111206,6199498.0
11:08:41.151206,6199945.0
11:08:41.191206,6200076.0
11:08:41.231206,6199909.0
11:08:41.271206,6200100.0
11:08:41.311206,6200265.0
11:08:41.351206,6200434.0
11:08:41.391206,6203893.0
11:08:41.431206,6200182.0
11:08:41.471206,6200493.0
11:08:41.511206,6200714.0
11:08:41.551206,6200874.0
11:08:41.891864,6201143.0
11:08:41.931864,6202609.0
11:08:41.971864,6201749.0
11:08:42.011864,6202407.0
11:08:42.051864,6202372.0
11:08:42.091864,6202069.0
11:08:42.131864,6204373.0
11:08:42.171864,6202588.0
11:08:42.211864,6201745.0
11:08:42.251864,6201967.0
11:08:42.291864,6202425.0
11:08:42.331864,6201789.0
11:08:42.371864,6202083.0
11:08:42.411864,6202280.0
11:08:42.451864,6202314.0
11:08:42.491864,6207208.0
11:08:42.531864,6201078.0
11:08:42.571864,6201382.0
11:08:42.611864,6201803.0
11:08:42.651864,6201833.0
11:08:42.691864,6201621.0
11:08:42.731864,6202070.0
11:08:42.771864,6202501.0
11:08:42.811864,6201780.0
11:08:42.851864,6202337.0
11:08:42.891864,6202475.0
11:08:42.931864,6202095.0
11:08:42.971864,6201671.0
11:08:43.011864,6202315.0
11:08:43.051864,6202024.0
11:08:43.091864,6201867.0
11:08:43.131864,6206618.0
11:08:43.171864,6200821.0
11:08:43.211864,6200958.0
11:08:43.251864,6201307.0
11:08:43.291864,6201481.0
11:08:43.331864,6201535.0
11:08:43.371864,6201295.0
11:08:43.411864,6201682.0
11:08:43.451864,6201661.0
11:08:43.491864,6201171.0
11:08:43.531864,6201319.0
11:08:43.571864,6201506.0
11:08:43.611864,6202475.0
11:08:43.651864,6200101.0
11:08:43.691864,6200908.0
11:08:43.731864,6200386.0
11:08:43.771864,6200105.0
11:08:43.811864,6200156.0
11:08:43.851864,6200726.0
11:08:43.891864,6200050.0
11:08:43.931864,6199766.0
11:08:43.971864,6199977.0
11:08:44.011864,6200172.0
11:08:44.051864,6206755.0
11:08:44.091864,6198018.0
11:08:44.131864,6198813.0
11:08:44.171864,6198793.0
11:08:44.211864,6198041.0
11:08:44.251864,6198268.0
11:08:44.291864,6198749.0
11:08:44.331864,6198952.0
11:08:44.371864,6198301.0
11:08:44.411864,6198827.0
11:08:44.451864,6200425.0
11:08:44.491864,6197121.0
11:08:44.531864,6197983.0
11:08:44.571864,6198462.0
11:08:44.611864,6198087.0
11:08:44.651864,6198153.0
11:08:44.691864,6197948.0
11:08:44.731864,6198051.0
11:08:44.771864,6197891.0
11:08:44.811864,6198508.0
11:08:44.851864,6198351.0
11:08:44.891864,6198065.0
11:08:44.931864,6197613.0
11:08:44.971864,6198310.0
11:08:45.011864,6197966.0
11:08:45.051864,6197836.0
11:08:45.091864,6197325.0
11:08:45.131864,6198133.0
11:08:45.171864,6197948.0
11:08:45.211864,6197286.0
11:08:45.251864,6197883.0
11:08:45.291864,6197447.0
11:08:45.331864,6204817.0
11:08:45.371864,6196258.0
11:08:45.411864,6197208.0
11:08:45.451864,6196930.0
11:08:45.491864,6197113.0
11:08:45.531864,6196790.0
11:08:45.571864,6197035.0
11:08:45.611864,6196990.0
11:08:45.651864,6197332.0
11:08:45.691864,6197074.0
11:08:45.731864,6197523.0
11:08:45.771864,6199484.0
11:08:45.811864,6196369.0
11:08:45.851864,6196552.0
11:08:46.193022,6196717.0
11:08:46.233022,6196186.0
11:08:46.273022,6202237.0
11:08:46.313022,6194665.0
11:08:46.353022,6195653.0
11:08:46.393022,6195057.0
11:08:46.433022,6195125.0
11:08:46.473022,6195328.0
11:08:46.513022,6195606.0
11:08:46.553022,6195143.0
11:08:46.593022,6195346.0
11:08:46.633022,6195250.0
11:08:46.673022,6194852.0
11:08:46.713022,6195327.0
11:08:46.753022,6194875.0
11:08:46.793022,6202848.0
11:08:46.833022,6192979.0
11:08:46.873022,6194795.0
11:08:46.913022,6194036.0
11:08:46.953022,6193878.0
11:08:46.993022,6194334.0
11:08:47.033022,6194256.0
11:08:47.073022,6194564.0
11:08:47.113022,6194013.0
11:08:47.153022,6193960.0
11:08:47.193022,6194017.0
11:08:47.233022,6195430.0
11:08:47.273022,6193406.0
11:08:47.313022,6193212.0
11:08:47.353022,6193560.0
11:08:47.393022,6193451.0
11:08:47.433022,6193060.0
11:08:47.473022,6193129.0
11:08:47.513022,6193515.0
11:08:47.553022,6193428.0
11:08:47.593022,6193593.0
11:08:47.633022,6198297.0
11:08:47.673022,6191776.0
11:08:47.713022,6192887.0
11:08:47.753022,6192834.0
11:08:47.793022,6192894.0
11:08:47.833022,6192190.0
11:08:47.873022,6192524.0
11:08:47.913022,6192834.0
11:08:47.953022,6192697.0
11:08:47.993022,6193940.0
11:08:48.033022,6191889.0
11:08:48.073022,6191947.0
11:08:48.113022,6192043.0
11:08:48.153022,6191999.0
11:08:48.193022,6191592.0
11:08:48.233022,6192061.0
11:08:48.273022,6191790.0
11:08:48.313022,6191439.0
11:08:48.353022,6193863.0
11:08:48.393022,6190807.0
11:08:48.433022,6191023.0
11:08:48.473022,6191151.0
11:08:48.513022,6190948.0
11:08:48.553022,6190531.0
11:08:48.593022,6190969.0
11:08:48.633022,6190947.0
11:08:48.673022,6190862.0
11:08:48.713022,6190876.0
11:08:48.753022,6190640.0
11:08:48.793022,6190137.0
11:08:48.833022,6190258.0
11:08:48.873022,6189789.0
11:08:48.913022,6190149.0
11:08:48.953022,6189377.0
11:08:48.993022,6190191.0
11:08:49.033022,6189856.0
11:08:49.073022,6189457.0
11:08:49.113022,6189299.0
11:08:49.153022,6192376.0
11:08:49.193022,6189459.0
11:08:49.233022,6188834.0
11:08:49.273022,6188634.0
11:08:49.313022,6188830.0
11:08:49.353022,6188868.0
11:08:49.393022,6188489.0
11:08:49.433022,6188770.0
11:08:49.473022,6189031.0
11:08:49.513022,6189244.0
11:08:49.553022,6193272.0
11:08:49.593022,6188179.0
11:08:49.633022,6188450.0
11:08:49.673022,6188489.0
11:08:49.713022,6187803.0
11:08:49.753022,6188277.0
11:08:49.793022,6188543.0
11:08:49.833022,6188301.0
11:08:49.873022,6188078.0
11:08:49.913022,6189929.0
11:08:49.953022,6187240.0
11:08:49.993022,6187394.0
11:08:50.033022,6187020.0
11:08:50.073022,6187349.0
11:08:50.113022,6187259.0
11:08:50.153022,6187299.0
11:08:50.699317,6186898.0
11:08:50.739317,6194111.0
11:08:50.779317,6184856.0
11:08:50.819317,6185129.0
11:08:50.859317,6186002.0
11:08:50.899317,6185471.0
11:08:50.939317,6185543.0
11:08:50.979317,6184946.0
11:08:51.019317,6185880.0
11:08:51.059317,6185378.0
11:08:51.099317,6185688.0
11:08:51.139317,6188088.0
11:08:51.179317,6184586.0
11:08:51.219317,6184199.0
11:08:51.259317,6184233.0
11:08:51.299317,6183460.0
11:08:51.339317,6184235.0
11:08:51.379317,6184074.0
11:08:51.419317,6183659.0
11:08:51.459317,6183210.0
11:08:51.499317,6184062.0
11:08:51.539317,6186791.0
11:08:51.579317,6182687.0
11:08:51.619317,6181830.0
11:08:51.659317,6182284.0
11:08:51.699317,6182563.0
11:08:51.739317,6182229.0
11:08:51.779317,6181800.0
11:08:51.819317,6182042.0
11:08:51.859317,6181942.0
11:08:51.899317,6181539.0
11:08:51.939317,6181393.0
11:08:51.979317,6181204.0
11:08:52.019317,6181314.0
11:08:52.059317,6180931.0
11:08:52.099317,6180834.0
11:08:52.139317,6187288.0
11:08:52.179317,6179355.0
11:08:52.219317,6180099.0
11:08:52.259317,6179716.0
11:08:52.299317,6179213.0
11:08:52.339317,6179307.0
11:08:52.379317,6179566.0
11:08:52.419317,6179659.0
11:08:52.459317,6179434.0
11:08:52.499317,6179508.0
11:08:52.539317,6179457.0
11:08:52.579317,6179232.0
11:08:52.619317,6183790.0
11:08:52.659317,6177042.0
11:08:52.699317,6178522.0
11:08:52.739317,6178457.0
11:08:52.779317,6178180.0
11:08:52.819317,6177914.0
11:08:52.859317,6178491.0
11:08:52.899317,6178060.0
11:08:52.939317,6177758.0
11:08:52.979317,6177760.0
11:08:53.019317,6177644.0
11:08:53.059317,6181860.0
11:08:53.099317,6176506.0
11:08:53.139317,6176979.0
11:08:53.179317,6176649.0
11:08:53.219317,6176807.0
11:08:53.259317,6176667.0
11:08:53.299317,6176490.0
11:08:53.339317,6176218.0
11:08:53.379317,6176462.0
11:08:53.419317,6176629.0
11:08:53.459317,6176328.0
11:08:53.499317,6176091.0
11:08:53.539317,6175494.0
11:08:53.579317,6179353.0
11:08:53.619317,6175780.0
11:08:53.659317,6175338.0
11:08:53.699317,6174875.0
11:08:53.739317,6174735.0
11:08:53.779317,6175185.0
11:08:53.819317,6175466.0
11:08:53.859317,6174927.0
11:08:53.899317,6174609.0
11:08:53.939317,6174877.0
11:08:53.979317,6174779.0
11:08:54.019317,6174067.0
11:08:54.059317,6173648.0
11:08:54.099317,6179295.0
11:08:54.139317,6173103.0
11:08:54.179317,6173798.0
11:08:54.219317,6172801.0
11:08:54.259317,6172839.0
11:08:54.299317,6173153.0
11:08:54.339317,6173591.0
11:08:54.379317,6172567.0
11:08:54.419317,6172770.0
11:08:54.459317,6174054.0
11:08:54.499317,6172702.0
11:08:54.539317,6171853.0
11:08:54.579317,6171876.0
11:08:54.619317,6172044.0
11:08:54.659317,6171886.0
11:08:55.002848,6179405.0
11:08:55.042848,6170645.0
11:08:55.082848,6169953.0
11:08:55.122848,6170123.0
11:08:55.162848,6170127.0
11:08:55.202848,6169787.0
11:08:55.242848,6176400.0
11:08:55.282848,6167543.0
11:08:55.322848,6169256.0
11:08:55.362848,6169140.0
11:08:55.402848,6168882.0
11:08:55.442848,6168746.0
11:08:55.482848,6168859.0
11:08:55.522848,6168847.0
11:08:55.562848,6168562.0
11:08:55.602848,6167736.0
11:08:55.642848,6171525.0
11:08:55.682848,6167923.0
11:08:55.722848,6167918.0
11:08:55.762848,6167452.0
11:08:55.802848,6167472.0
11:08:55.842848,6167313.0
11:08:55.882848,6167533.0
11:08:55.922848,6167441.0
11:08:55.962848,6167113.0
11:08:56.002848,6167524.0
11:08:56.042848,6167395.0
11:08:56.082848,6167059.0
11:08:56.122848,6166598.0
11:08:56.162848,6166851.0
11:08:56.202848,6166714.0
11:08:56.242848,6166079.0
11:08:56.282848,6166030.0
11:08:56.322848,6166237.0
11:08:56.362848,6166460.0
11:08:56.402848,6169270.0
11:08:56.442848,6165218.0
11:08:56.482848,6165243.0
11:08:56.522848,6165013.0
11:08:56.562848,6164925.0
11:08:56.602848,6164218.0
11:08:56.642848,6165151.0
11:08:56.682848,6164979.0
11:08:56.722848,6164799.0
11:08:56.762848,6164119.0
11:08:56.802848,6165748.0
11:08:56.842848,6163736.0
11:08:56.882848,6163974.0
11:08:56.922848,6163123.0
11:08:56.962848,6163679.0
11:08:57.002848,6163524.0
11:08:57.042848,6163649.0
11:08:57.082848,6163159.0
11:08:57.122848,6163437.0
11:08:57.162848,6163275.0
11:08:57.202848,6163220.0
11:08:57.242848,6162256.0
11:08:57.282848,6162663.0
11:08:57.322848,6162730.0
11:08:57.362848,6162518.0
11:08:57.402848,6166614.0
11:08:57.442848,6161706.0
11:08:57.482848,6161894.0
11:08:57.522848,6161585.0
11:08:57.562848,6161094.0
11:08:57.602848,6160936.0
11:08:57.642848,6160897.0
11:08:57.682848,6161101.0
11:08:57.722848,6160844.0
11:08:57.762848,6162197.0
11:08:57.802848,6160317.0
11:08:57.842848,6160335.0
11:08:57.882848,6160028.0
11:08:57.922848,6160357.0
11:08:57.962848,6160759.0
11:08:58.002848,6160062.0
11:08:58.042848,6159867.0
11:08:58.082848,6160001.0
11:08:58.122848,6160413.0
11:08:58.162848,6159696.0
11:08:58.202848,6158854.0
11:08:58.242848,6159551.0
11:08:58.282848,6159135.0
11:08:58.322848,6162552.0
11:08:58.362848,6157900.0
11:08:58.402848,6158332.0
11:08:58.442848,6158351.0
11:08:58.482848,6158090.0
11:08:58.522848,6157521.0
11:08:58.562848,6157732.0
11:08:58.602848,6157838.0
11:08:58.642848,6157622.0
11:08:58.682848,6157229.0
11:08:58.722848,6162493.0
11:08:58.762848,6156251.0
11:08:58.802848,6156732.0
11:08:58.842848,6156401.0
11:08:58.882848,6156267.0
11:08:58.922848,6156206.0
11:08:58.962848,6155982.0
11:08:59.303778,6156180.0
11:08:59.343778,6154759.0
11:08:59.383778,6154469.0
11:08:59.423778,6155135.0
11:08:59.463778,6155147.0
11:08:59.503778,6154899.0
11:08:59.543778,6154506.0
11:08:59.583778,6154774.0
11:08:59.623778,6160991.0
11:08:59.663778,6152584.0
11:08:59.703778,6153508.0
11:08:59.743778,6154135.0
11:08:59.783778,6153645.0
11:08:59.823778,6153483.0
11:08:59.863778,6153188.0
11:08:59.903778,6153570.0
11:08:59.943778,6153253.0
11:08:59.983778,6153472.0
11:09:00.023778,6156667.0
11:09:00.063778,6152506.0
11:09:00.103778,6152398.0
11:09:00.143778,6151666.0
11:09:00.183778,6151110.0
11:09:00.223778,6151579.0
11:09:00.263778,6152288.0
11:09:00.303778,6151855.0
11:09:00.343778,6151653.0
11:09:00.383778,6151641.0
11:09:00.423778,6151956.0
11:09:00.463778,6151566.0
11:09:00.503778,6157320.0
11:09:00.543778,6149889.0
11:09:00.583778,6150877.0
11:09:00.623778,6150191.0
11:09:00.663778,6150010.0
11:09:00.703778,6149956.0
11:09:00.743778,6150640.0
11:09:00.783778,6150298.0
11:09:00.823778,6149798.0
11:09:00.863778,6150028.0
11:09:00.903778,6150018.0
11:09:00.943778,6149784.0
11:09:00.983778,6148691.0
11:09:01.023778,6149411.0
11:09:01.063778,6155168.0
11:09:01.103778,6148037.0
11:09:01.143778,6148560.0
11:09:01.183778,6148655.0
11:09:01.223778,6148371.0
11:09:01.263778,6148451.0
11:09:01.303778,6148842.0
11:09:01.343778,6148953.0
11:09:01.383778,6148848.0
11:09:01.423778,6148734.0
11:09:01.463778,6148891.0
11:09:01.503778,6149024.0
11:09:01.543778,6153758.0
11:09:01.583778,6147922.0
11:09:01.623778,6148788.0
11:09:01.663778,6149700.0
11:09:01.703778,6149459.0
11:09:01.743778,6149940.0
11:09:01.783778,6150405.0
11:09:01.823778,6150955.0
11:09:01.863778,6150699.0
11:09:01.903778,6150818.0
11:09:01.943778,6151362.0
11:09:01.983778,6153129.0
11:09:02.023778,6151995.0
11:09:02.063778,6151460.0
11:09:02.103778,6151749.0
11:09:02.143778,6152672.0
11:09:02.183778,6152940.0
11:09:02.223778,6153045.0
11:09:02.263778,6152800.0
11:09:02.303778,6153873.0
11:09:02.343778,6153840.0
11:09:02.383778,6153769.0
11:09:02.423778,6153753.0
11:09:02.463778,6154367.0
11:09:02.503778,6162129.0
11:09:02.543778,6153178.0
11:09:02.583778,6154282.0
11:09:02.623778,6154496.0
11:09:02.663778,6153903.0
11:09:02.703778,6154136.0
11:09:02.743778,6154504.0
11:09:02.783778,6155353.0
11:09:02.823778,6155234.0
11:09:02.863778,6155285.0
11:09:02.903778,6155164.0
11:09:02.943778,6155043.0
11:09:02.983778,6155504.0
11:09:03.023778,6158743.0
11:09:03.063778,6155378.0
11:09:03.103778,6154280.0
11:09:03.143778,6155848.0
11:09:03.183778,6155025.0
11:09:03.223778,6154837.0
11:09:03.263778,6155048.0
11:09:03.605848,6155438.0
11:09:03.645848,6155738.0
11:09:03.685848,6155894.0
11:09:03.725848,6155856.0
11:09:03.765848,6156489.0
11:09:03.805848,6156558.0
11:09:03.845848,6157109.0
11:09:03.885848,6162260.0
11:09:03.925848,6156270.0
11:09:03.965848,6156456.0
11:09:04.005848,6156347.0
11:09:04.045848,6156113.0
11:09:04.085848,6156429.0
11:09:04.125848,6156792.0
11:09:04.165848,6156116.0
11:09:04.205848,6156250.0
11:09:04.245848,6157595.0
11:09:04.285848,6156356.0
11:09:04.325848,6155537.0
11:09:04.365848,6154989.0
11:09:04.405848,6155489.0
11:09:04.445848,6155973.0
11:09:04.485848,6155593.0
11:09:04.525848,6155008.0
11:09:04.565848,6155568.0
11:09:04.605848,6155289.0
11:09:04.645848,6154664.0
11:09:04.685848,6154623.0
11:09:04.725848,6158070.0
11:09:04.765848,6154618.0
11:09:04.805848,6154412.0
11:09:04.845848,6153700.0
11:09:04.885848,6153998.0
11:09:04.925848,6153969.0
11:09:04.965848,6154066.0
11:09:05.005848,6153746.0
11:09:05.045848,6154105.0
11:09:05.085848,6153994.0
11:09:05.125848,6153972.0
11:09:05.165848,6153620.0
11:09:05.205848,6153746.0
11:09:05.245848,6153475.0
11:09:05.285848,6153386.0
11:09:05.325848,6153060.0
11:09:05.365848,6155931.0
11:09:05.405848,6153265.0
11:09:05.445848,6152473.0
11:09:05.485848,6153057.0
11:09:05.525848,6152604.0
11:09:05.565848,6152156.0
11:09:05.605848,6152209.0
11:09:05.645848,6153019.0
11:09:05.685848,6153306.0
11:09:05.725848,6154891.0
11:09:05.765848,6151525.0
11:09:05.805848,6152302.0
11:09:05.845848,6151962.0
11:09:05.885848,6151500.0
11:09:05.925848,6151502.0
11:09:05.965848,6152702.0
11:09:06.005848,6152245.0
11:09:06.045848,6151323.0
11:09:06.085848,6151324.0
11:09:06.125848,6156818.0
11:09:06.165848,6150182.0
11:09:06.205848,6150470.0
11:09:06.245848,6151191.0
11:09:06.285848,6151089.0
11:09:06.325848,6150919.0
11:09:06.365848,6150717.0
11:09:06.405848,6150963.0
11:09:06.445848,6150867.0
11:09:06.485848,6150834.0
11:09:06.525848,6155563.0
11:09:06.565848,6149729.0
11:09:06.605848,6150501.0
11:09:06.645848,6150406.0
11:09:06.685848,6150024.0
11:09:06.725848,6150456.0
11:09:06.765848,6150438.0
11:09:06.805848,6150254.0
11:09:06.845848,6150169.0
11:09:06.885848,6150432.0
11:09:06.925848,6150719.0
11:09:06.965848,6156546.0
11:09:07.005848,6149113.0
11:09:07.045848,6150103.0
11:09:07.085848,6150213.0
11:09:07.125848,6149672.0
11:09:07.165848,6149649.0
11:09:07.205848,6150479.0
11:09:07.245848,6150566.0
11:09:07.285848,6150472.0
11:09:07.325848,6150266.0
11:09:07.365848,6154300.0
11:09:07.405848,6150267.0
11:09:07.445848,6150147.0
11:09:07.485848,6150425.0
11:09:07.525848,6150955.0
11:09:07.565848,6151427.0
11:09:09.134585,6151391.0
11:09:09.174585,6152290.0
11:09:09.214585,6152001.0
11:09:09.254585,6152723.0
11:09:09.294585,6153145.0
11:09:09.334585,6153641.0
11:09:09.374585,6153256.0
11:09:09.414585,6154327.0
11:09:09.454585,6154195.0
11:09:09.494585,6154009.0
11:09:09.534585,6154581.0
11:09:09.574585,6163434.0
11:09:09.614585,6153313.0
11:09:09.654585,6154649.0
11:09:09.694585,6155003.0
11:09:09.734585,6155101.0
11:09:09.774585,6155115.0
11:09:09.814585,6155351.0
11:09:09.854585,6156298.0
11:09:09.894585,6161560.0
11:09:09.934585,6154100.0
11:09:09.974585,6155672.0
11:09:10.014585,6156429.0
11:09:10.054585,6156226.0
11:09:10.094585,6156641.0
11:09:10.134585,6157065.0
11:09:10.174585,6157151.0
11:09:10.214585,6156758.0
11:09:10.254585,6156761.0
11:09:10.294585,6157574.0
11:09:10.334585,6157510.0
11:09:10.374585,6156944.0
11:09:10.414585,6157241.0
11:09:10.454585,6157402.0
11:09:10.494585,6157345.0
11:09:10.534585,6157454.0
11:09:10.574585,6164173.0
11:09:10.614585,6156400.0
11:09:10.654585,6156951.0
11:09:10.694585,6157661.0
11:09:10.734585,6157360.0
11:09:10.774585,6157231.0
11:09:10.814585,6157534.0
11:09:10.854585,6158129.0
11:09:10.894585,6157812.0
11:09:10.934585,6157418.0
11:09:10.974585,6157946.0
11:09:11.014585,6158184.0
11:09:11.054585,6157474.0
11:09:11.094585,6157783.0
11:09:11.134585,6158077.0
11:09:11.174585,6157696.0
11:09:11.214585,6157334.0
11:09:11.254585,6161034.0
11:09:11.294585,6157357.0
11:09:11.334585,6157373.0
11:09:11.374585,6156847.0
11:09:11.414585,6157022.0
11:09:11.454585,6157018.0
11:09:11.494585,6157385.0
11:09:11.534585,6157408.0
11:09:11.574585,6157503.0
11:09:11.614585,6157323.0
11:09:11.654585,6157371.0
11:09:11.694585,6157379.0
11:09:11.734585,6157036.0
11:09:11.774585,6157258.0
11:09:11.814585,6157325.0
11:09:11.854585,6165836.0
11:09:11.894585,6155646.0
11:09:11.934585,6156313.0
11:09:11.974585,6156576.0
11:09:12.014585,6156561.0
11:09:12.054585,6156724.0
11:09:12.094585,6156707.0
11:09:12.134585,6156700.0
11:09:12.174585,6156710.0
11:09:12.214585,6157284.0
11:09:12.254585,6156798.0
11:09:12.294585,6156240.0
11:09:12.334585,6156709.0
11:09:12.374585,6156802.0
11:09:12.414585,6159489.0
11:09:12.454585,6155435.0
11:09:12.494585,6156258.0
11:09:12.534585,6156004.0
11:09:12.574585,6155863.0
11:09:12.614585,6155937.0
11:09:12.654585,6156392.0
11:09:12.694585,6156464.0
11:09:12.734585,6155927.0
11:09:12.774585,6156174.0
11:09:12.814585,6155874.0
11:09:12.854585,6155606.0
11:09:12.894585,6155383.0
11:09:12.934585,6163319.0
11:09:12.974585,6154497.0
11:09:13.014585,6155259.0
11:09:13.054585,6154737.0
11:09:13.094585,6155191.0
11:09:12.207328,6155201.0
11:09:12.247328,6154792.0
11:09:12.287328,6154941.0
11:09:12.327328,6154814.0
11:09:12.367328,6155174.0
11:09:12.407328,6155391.0
11:09:12.447328,6154785.0
11:09:12.487328,6154812.0
11:09:12.527328,6155244.0
11:09:12.567328,6160869.0
11:09:12.607328,6153467.0
11:09:12.647328,6153927.0
11:09:12.687328,6154498.0
11:09:12.727328,6154483.0
11:09:12.767328,6154586.0
11:09:12.807328,6153959.0
11:09:12.847328,6154805.0
11:09:12.887328,6154884.0
11:09:12.927328,6154467.0
11:09:12.967328,6155761.0
11:09:13.007328,6154766.0
11:09:13.047328,6153964.0
11:09:13.087328,6153629.0
11:09:13.127328,6154287.0
11:09:13.167328,6153832.0
11:09:13.207328,6153962.0
11:09:13.247328,6154128.0
11:09:13.287328,6154676.0
11:09:13.327328,6153921.0
11:09:13.367328,6153593.0
11:09:13.407328,6153619.0
11:09:13.447328,6157134.0
11:09:13.487328,6153740.0
11:09:13.527328,6153481.0
11:09:13.567328,6153629.0
11:09:13.607328,6153268.0
11:09:13.647328,6153196.0
11:09:13.687328,6153236.0
11:09:13.727328,6153615.0
11:09:13.767328,6153864.0
11:09:13.807328,6153335.0
11:09:13.847328,6153067.0
11:09:13.887328,6153208.0
11:09:13.927328,6155913.0
11:09:13.967328,6152290.0
11:09:14.007328,6152130.0
11:09:14.047328,6152127.0
11:09:14.087328,6151955.0
11:09:14.127328,6152396.0
11:09:14.167328,6152449.0
11:09:14.207328,6152470.0
11:09:14.247328,6157226.0
11:09:14.287328,6150329.0
11:09:14.327328,6152172.0
11:09:14.367328,6152015.0
11:09:14.407328,6151996.0
11:09:14.447328,6151964.0
11:09:14.487328,6152518.0
11:09:14.527328,6152313.0
11:09:14.567328,6152284.0
11:09:14.607328,6151807.0
11:09:14.647328,6152435.0
11:09:14.687328,6152988.0
11:09:14.727328,6152128.0
11:09:14.767328,6151248.0
11:09:14.807328,6151825.0
11:09:14.847328,6151935.0
11:09:14.887328,6151913.0
11:09:14.927328,6152440.0
11:09:14.967328,6152528.0
11:09:15.007328,6152882.0
11:09:15.047328,6153213.0
11:09:15.087328,6153275.0
11:09:15.127328,6159290.0
11:09:15.167328,6152166.0
11:09:15.207328,6153335.0
11:09:15.247328,6154066.0
11:09:15.287328,6154448.0
11:09:15.327328,6154819.0
11:09:15.367328,6155272.0
11:09:15.407328,6155598.0
11:09:15.447328,6156100.0
11:09:15.487328,6156240.0
11:09:15.527328,6155992.0
11:09:15.567328,6157339.0
11:09:15.607328,6157489.0
11:09:15.647328,6157357.0
11:09:15.687328,6156841.0
11:09:15.727328,6158115.0
11:09:15.767328,6158645.0
11:09:15.807328,6157912.0
11:09:15.847328,6165043.0
11:09:15.887328,6156836.0
11:09:15.927328,6158966.0
11:09:15.967328,6158886.0
11:09:16.007328,6158861.0
11:09:16.047328,6159181.0
11:09:16.087328,6160617.0
11:09:16.127328,6160624.0
11:09:16.167328,6161143.0
11:09:16.504138,6161517.0
11:09:16.544138,6162036.0
11:09:16.584138,6162625.0
11:09:16.624138,6163325.0
11:09:16.664138,6162288.0
11:09:16.704138,6162615.0
11:09:16.744138,6162986.0
11:09:16.784138,6163790.0
11:09:16.824138,6165728.0
11:09:16.864138,6162673.0
11:09:16.904138,6162723.0
11:09:16.944138,6162785.0
11:09:16.984138,6163044.0
11:09:17.024138,6163071.0
11:09:17.064138,6163113.0
11:09:17.104138,6163685.0
11:09:17.144138,6164161.0
11:09:17.184138,6163441.0
11:09:17.224138,6163427.0
11:09:17.264138,6163900.0
11:09:17.304138,6163819.0
11:09:17.344138,6163332.0
11:09:17.384138,6163794.0
11:09:17.424138,6169815.0
11:09:17.464138,6162357.0
11:09:17.504138,6163040.0
11:09:17.544138,6163065.0
11:09:17.584138,6162788.0
11:09:17.624138,6162976.0
11:09:17.664138,6163522.0
11:09:17.704138,6163944.0
11:09:17.744138,6163228.0
11:09:17.784138,6163530.0
11:09:17.824138,6163679.0
11:09:17.864138,6163435.0
11:09:17.904138,6163948.0
11:09:17.944138,6163467.0
11:09:17.984138,6167277.0
11:09:18.024138,6163498.0
11:09:18.064138,6163137.0
11:09:18.104138,6162748.0
11:09:18.144138,6163085.0
11:09:18.184138,6163001.0
11:09:18.224138,6163243.0
11:09:18.264138,6163773.0
11:09:18.304138,6163728.0
11:09:18.344138,6164059.0
11:09:18.384138,6169184.0
11:09:18.424138,6162359.0
11:09:18.464138,6163142.0
11:09:18.504138,6163853.0
11:09:18.544138,6164121.0
11:09:18.584138,6163675.0
11:09:18.624138,6164057.0
11:09:18.664138,6164475.0
11:09:18.704138,6163870.0
11:09:18.744138,6164097.0
11:09:18.784138,6165941.0
11:09:18.824138,6163196.0
11:09:18.864138,6162995.0
11:09:18.904138,6163239.0
11:09:18.944138,6163697.0
11:09:18.984138,6163422.0
11:09:19.024138,6164008.0
11:09:19.064138,6164291.0
11:09:19.104138,6164718.0
11:09:19.144138,6169279.0
11:09:19.184138,6164001.0
11:09:19.224138,6164234.0
11:09:19.264138,6163952.0
11:09:19.304138,6164291.0
11:09:19.344138,6164503.0
11:09:19.384138,6164643.0
11:09:19.424138,6164167.0
11:09:19.464138,6164317.0
11:09:19.504138,6164809.0
11:09:19.544138,6164582.0
11:09:19.584138,6164087.0
11:09:19.624138,6163962.0
11:09:19.664138,6164628.0
11:09:19.704138,6168777.0
11:09:19.744138,6163208.0
11:09:19.784138,6163402.0
11:09:19.824138,6163738.0
11:09:19.864138,6163699.0
11:09:19.904138,6163604.0
11:09:19.944138,6163886.0
11:09:19.984138,6163750.0
11:09:20.024138,6163819.0
11:09:20.064138,6169478.0
11:09:20.104138,6162827.0
11:09:20.144138,6163612.0
11:09:20.184138,6163353.0
11:09:20.224138,6163418.0
11:09:20.264138,6163012.0
11:09:20.304138,6163509.0
11:09:20.344138,6163293.0
11:09:20.384138,6163180.0
11:09:20.424138,6162730.0
11:09:20.464138,6165957.0
11:09:20.806503,6162482.0
11:09:20.846503,6162159.0
11:09:20.886503,6163009.0
11:09:20.926503,6163161.0
11:09:20.966503,6169729.0
11:09:21.006503,6160942.0
11:09:21.046503,6162193.0
11:09:21.086503,6161904.0
11:09:21.126503,6161617.0
11:09:21.166503,6161236.0
11:09:21.206503,6162039.0
11:09:21.246503,6162325.0
11:09:21.286503,6164977.0
11:09:21.326503,6160964.0
11:09:21.366503,6160818.0
11:09:21.406503,6160429.0
11:09:21.446503,6160917.0
11:09:21.486503,6161338.0
11:09:21.526503,6160959.0
11:09:21.566503,6160683.0
11:09:21.606503,6160705.0
11:09:21.646503,6160822.0
11:09:21.686503,6165194.0
11:09:21.726503,6159526.0
11:09:21.766503,6159844.0
11:09:21.806503,6159977.0
11:09:21.846503,6159586.0
11:09:21.886503,6159946.0
11:09:21.926503,6160394.0
11:09:21.966503,6159905.0
11:09:22.006503,6160073.0
11:09:22.046503,6160384.0
11:09:22.086503,6160025.0
11:09:22.126503,6159706.0
11:09:22.166503,6165236.0
11:09:22.206503,6159205.0
11:09:22.246503,6159180.0
11:09:22.286503,6159044.0
11:09:22.326503,6159271.0
11:09:22.366503,6158999.0
11:09:22.406503,6159071.0
11:09:22.446503,6159868.0
11:09:22.486503,6159713.0
11:09:22.526503,6159394.0
11:09:22.566503,6159118.0
11:09:22.606503,6164298.0
11:09:22.646503,6158693.0
11:09:22.686503,6158540.0
11:09:22.726503,6158633.0
11:09:22.766503,6158899.0
11:09:22.806503,6158687.0
11:09:22.846503,6158770.0
11:09:22.886503,6159162.0
11:09:22.926503,6158911.0
11:09:22.966503,6158530.0
11:09:23.006503,6159325.0
11:09:23.046503,6159168.0
11:09:23.086503,6158508.0
11:09:23.126503,6158880.0
11:09:23.166503,6158897.0
11:09:23.206503,6166413.0
11:09:23.246503,6157275.0
11:09:23.286503,6158199.0
11:09:23.326503,6158014.0
11:09:23.366503,6158011.0
11:09:23.406503,6158132.0
11:09:23.446503,6158305.0
11:09:23.486503,6158312.0
11:09:23.526503,6158559.0
11:09:23.566503,6158319.0
11:09:23.606503,6158079.0
11:09:23.646503,6158810.0
11:09:23.686503,6160963.0
11:09:23.726503,6157625.0
11:09:23.766503,6158175.0
11:09:23.806503,6157996.0
11:09:23.846503,6157665.0
11:09:23.886503,6157853.0
11:09:23.926503,6158226.0
11:09:23.966503,6157988.0
11:09:24.006503,6157775.0
11:09:24.046503,6157590.0
11:09:24.086503,6157518.0
11:09:24.126503,6161531.0
11:09:24.166503,6157285.0
11:09:24.206503,6157259.0
11:09:24.246503,6157156.0
11:09:24.286503,6157541.0
11:09:24.326503,6157355.0
11:09:24.366503,6157225.0
11:09:24.406503,6157444.0
11:09:24.446503,6157526.0
11:09:24.486503,6157467.0
11:09:24.526503,6157709.0
11:09:24.566503,6165299.0
11:09:24.606503,6176603.0
11:09:24.646503,6156487.0
11:09:24.686503,6153831.0
11:09:24.726503,6153504.0
11:09:24.766503,6151790.0
11:09:26.951834,6151843.0
11:09:26.991834,6154599.0
11:09:27.031834,6156634.0
11:09:27.071834,6156647.0
11:09:27.111834,6156489.0
11:09:27.151834,6156585.0
11:09:27.191834,6156976.0
11:09:27.231834,6156266.0
11:09:27.271834,6156191.0
11:09:27.311834,6155806.0
11:09:27.351834,6163008.0
11:09:27.391834,6154644.0
11:09:27.431834,6155502.0
11:09:27.471834,6154958.0
11:09:27.511834,6155564.0
11:09:27.551834,6155138.0
11:09:27.591834,6155184.0
11:09:27.631834,6155192.0
11:09:27.671834,6155143.0
11:09:27.711834,6155773.0
11:09:27.751834,6155239.0
11:09:27.791834,6155136.0
11:09:27.831834,6154819.0
11:09:27.871834,6155024.0
11:09:27.911834,6154646.0
11:09:27.951834,6154482.0
11:09:27.991834,6160090.0
11:09:28.031834,6153947.0
11:09:28.071834,6154483.0
11:09:28.111834,6153582.0
11:09:28.151834,6153735.0
11:09:28.191834,6154575.0
11:09:28.231834,6154406.0
11:09:28.271834,6154245.0
11:09:28.311834,6153986.0
11:09:28.351834,6157757.0
11:09:28.391834,6153612.0
11:09:28.431834,6153759.0
11:09:28.471834,6153793.0
11:09:28.511834,6152859.0
11:09:28.551834,6153743.0
11:09:28.591834,6153988.0
11:09:28.631834,6153805.0
11:09:28.671834,6152828.0
11:09:28.711834,6153598.0
11:09:28.751834,6153679.0
11:09:28.791834,6153453.0
11:09:28.831834,6152363.0
11:09:28.871834,6153039.0
11:09:28.911834,6153256.0
11:09:28.951834,6156646.0
11:09:28.991834,6151919.0
11:09:29.031834,6152342.0
11:09:29.071834,6152181.0
11:09:29.111834,6151792.0
11:09:29.151834,6151913.0
11:09:29.191834,6152706.0
11:09:29.231834,6152173.0
11:09:29.271834,6151803.0
11:09:29.311834,6152112.0
11:09:29.351834,6157747.0
11:09:29.391834,6149944.0
11:09:29.431834,6151250.0
11:09:29.471834,6151347.0
11:09:29.511834,6151114.0
11:09:29.551834,6151156.0
11:09:29.591834,6150945.0
11:09:29.631834,6150835.0
11:09:29.671834,6150989.0
11:09:29.711834,6155114.0
11:09:29.751834,6150385.0
11:09:29.791834,6150015.0
11:09:29.831834,6150391.0
11:09:29.871834,6150665.0
11:09:29.911834,6150378.0
11:09:29.951834,6150211.0
11:09:29.991834,6150424.0
11:09:30.031834,6150027.0
11:09:30.071834,6150096.0
11:09:30.111834,6150376.0
11:09:30.151834,6149877.0
11:09:30.191834,6149524.0
11:09:30.231834,6149734.0
11:09:30.271834,6153648.0
11:09:30.311834,6148318.0
11:09:30.351834,6148726.0
11:09:30.391834,6149103.0
11:09:30.431834,6148565.0
11:09:30.471834,6148602.0
11:09:30.511834,6149042.0
11:09:30.551834,6149206.0
11:09:30.591834,6148850.0
11:09:30.631834,6148190.0
11:09:30.671834,6145664.0
11:09:30.711834,6146682.0
11:09:30.751834,6148911.0
11:09:30.791834,6148714.0
11:09:30.831834,6149097.0
11:09:30.871834,6149887.0
11:09:30.911834,6149252.0
11:09:32.686866,6148233.0
11:09:32.726866,6145046.0
11:09:32.766866,6145156.0
11:09:32.806866,6151532.0
11:09:32.846866,6144036.0
11:09:32.886866,6145092.0
11:09:32.926866,6144974.0
11:09:32.966866,6145130.0
11:09:33.006866,6145000.0
11:09:33.046866,6145967.0
11:09:33.086866,6145963.0
11:09:33.126866,6145742.0
11:09:33.166866,6145732.0
11:09:33.206866,6146391.0
11:09:33.246866,6146028.0
11:09:33.286866,6145410.0
11:09:33.326866,6146235.0
11:09:33.366866,6146182.0
11:09:33.406866,6153122.0
11:09:33.446866,6144650.0
11:09:33.486866,6145991.0
11:09:33.526866,6146022.0
11:09:33.566866,6145621.0
11:09:33.606866,6146125.0
11:09:33.646866,6146286.0
11:09:33.686866,6146145.0
11:09:33.726866,6146398.0
11:09:33.766866,6146845.0
11:09:33.806866,6146508.0
11:09:33.846866,6153145.0
11:09:33.886866,6145481.0
11:09:33.926866,6146667.0
11:09:33.966866,6146217.0
11:09:34.006866,6146757.0
11:09:34.046866,6146486.0
11:09:34.086866,6147052.0
11:09:34.126866,6147102.0
11:09:34.166866,6147252.0
11:09:34.206866,6147416.0
11:09:34.246866,6147224.0
11:09:34.286866,6150850.0
11:09:34.326866,6146791.0
11:09:34.366866,6147129.0
11:09:34.406866,6147049.0
11:09:34.446866,6147224.0
11:09:34.486866,6147139.0
11:09:34.526866,6147417.0
11:09:34.566866,6147493.0
11:09:34.606866,6147829.0
11:09:34.646866,6147376.0
11:09:34.686866,6152119.0
11:09:34.726866,6146456.0
11:09:34.766866,6147331.0
11:09:34.806866,6147004.0
11:09:34.846866,6147084.0
11:09:34.886866,6147081.0
11:09:34.926866,6147582.0
11:09:34.966866,6147514.0
11:09:35.006866,6147506.0
11:09:35.046866,6147558.0
11:09:35.086866,6147558.0
11:09:35.126866,6148445.0
11:09:35.166866,6147513.0
11:09:35.206866,6147300.0
11:09:35.246866,6151706.0
11:09:35.286866,6147573.0
11:09:35.326866,6147198.0
11:09:35.366866,6147039.0
11:09:35.406866,6147477.0
11:09:35.446866,6147600.0
11:09:35.486866,6147365.0
11:09:35.526866,6147863.0
11:09:35.566866,6147866.0
11:09:35.606866,6147686.0
11:09:35.646866,6147558.0
11:09:35.686866,6147441.0
11:09:35.726866,6152770.0
11:09:35.766866,6147072.0
11:09:35.806866,6147411.0
11:09:35.846866,6147059.0
11:09:35.886866,6147096.0
11:09:35.926866,6147404.0
11:09:35.966866,6147523.0
11:09:36.006866,6147594.0
11:09:36.046866,6147381.0
11:09:36.086866,6147220.0
11:09:36.126866,6147738.0
11:09:36.166866,6147783.0
11:09:36.206866,6147452.0
11:09:36.246866,6147103.0
11:09:36.286866,6150668.0
11:09:36.326866,6146894.0
11:09:36.366866,6146914.0
11:09:36.406866,6147043.0
11:09:36.446866,6146396.0
11:09:36.486866,6146725.0
11:09:36.526866,6147388.0
11:09:36.566866,6147394.0
11:09:36.606866,6146914.0
11:09:36.646866,6146784.0
11:09:36.991560,6146581.0
11:09:37.031560,6145080.0
11:09:37.071560,6144619.0
11:09:37.111560,6144323.0
11:09:37.151560,6145048.0
11:09:37.191560,6145278.0
11:09:37.231560,6150396.0
11:09:37.271560,6143566.0
11:09:37.311560,6144274.0
11:09:37.351560,6144230.0
11:09:37.391560,6144511.0
11:09:37.431560,6144998.0
11:09:37.471560,6145498.0
11:09:37.511560,6144944.0
11:09:37.551560,6145264.0
11:09:37.591560,6145594.0
11:09:37.631560,6147359.0
11:09:37.671560,6145264.0
11:09:37.711560,6145578.0
11:09:37.751560,6145700.0
11:09:37.791560,6146075.0
11:09:37.831560,6146642.0
11:09:37.871560,6146477.0
11:09:37.911560,6147137.0
11:09:37.951560,6147531.0
11:09:37.991560,6147874.0
11:09:38.031560,6147557.0
11:09:38.071560,6147617.0
11:09:38.111560,6147544.0
11:09:38.151560,6147992.0
11:09:38.191560,6148138.0
11:09:38.231560,6148339.0
11:09:38.271560,6148505.0
11:09:38.311560,6149255.0
11:09:38.351560,6148985.0
11:09:38.391560,6148896.0
11:09:38.431560,6149136.0
11:09:38.471560,6149553.0
11:09:38.511560,6155024.0
11:09:38.551560,6148221.0
11:09:38.591560,6149087.0
11:09:38.631560,6149490.0
11:09:38.671560,6149196.0
11:09:38.711560,6149541.0
11:09:38.751560,6149714.0
11:09:38.791560,6149661.0
11:09:38.831560,6150135.0
11:09:38.871560,6155810.0
11:09:38.911560,6148977.0
11:09:38.951560,6149580.0
11:09:38.991560,6150069.0
11:09:39.031560,6150213.0
11:09:39.071560,6150120.0
11:09:39.111560,6150701.0
11:09:39.151560,6150481.0
11:09:39.191560,6151180.0
11:09:39.231560,6153702.0
11:09:39.271560,6150401.0
11:09:39.311560,6149775.0
11:09:39.351560,6150236.0
11:09:39.391560,6150973.0
11:09:39.431560,6150662.0
11:09:39.471560,6150506.0
11:09:39.511560,6151100.0
11:09:39.551560,6151135.0
11:09:39.591560,6150842.0
11:09:39.631560,6151679.0
11:09:39.671560,6151199.0
11:09:39.711560,6150770.0
11:09:39.751560,6150793.0
11:09:39.791560,6151328.0
11:09:39.831560,6151102.0
11:09:39.871560,6156281.0
11:09:39.911560,6149660.0
11:09:39.951560,6150201.0
11:09:39.991560,6150821.0
11:09:40.031560,6150047.0
11:09:40.071560,6150120.0
11:09:40.111560,6150446.0
11:09:40.151560,6150854.0
11:09:40.191560,6150259.0
11:09:40.231560,6150007.0
11:09:40.271560,6150353.0
11:09:40.311560,6150525.0
11:09:40.351560,6150193.0
11:09:40.391560,6150129.0
11:09:40.431560,6149887.0
11:09:40.471560,6149501.0
11:09:40.511560,6154808.0
11:09:40.551560,6148381.0
11:09:40.591560,6148985.0
11:09:40.631560,6148759.0
11:09:40.671560,6148411.0
11:09:40.711560,6148154.0
11:09:40.751560,6148394.0
11:09:40.791560,6148756.0
11:09:40.831560,6148322.0
11:09:40.871560,6147945.0
11:09:40.911560,6148014.0
11:09:40.951560,6147962.0
11:09:41.289116,6147738.0
11:09:41.329116,6147980.0
11:09:41.369116,6146819.0
11:09:41.409116,6146758.0
11:09:41.449116,6146535.0
11:09:41.489116,6147162.0
11:09:41.529116,6146667.0
11:09:41.569116,6146683.0
11:09:41.609116,6147022.0
11:09:41.649116,6146911.0
11:09:41.689116,6146971.0
11:09:41.729116,6152619.0
11:09:41.769116,6145652.0
11:09:41.809116,6146185.0
11:09:41.849116,6145997.0
11:09:41.889116,6145955.0
11:09:41.929116,6146062.0
11:09:41.969116,6145916.0
11:09:42.009116,6146522.0
11:09:42.049116,6146050.0
11:09:42.089116,6145989.0
11:09:42.129116,6146236.0
11:09:42.169116,6152133.0
11:09:42.209116,6145011.0
11:09:42.249116,6145456.0
11:09:42.289116,6145497.0
11:09:42.329116,6145315.0
11:09:42.369116,6145116.0
11:09:42.409116,6145303.0
11:09:42.449116,6145444.0
11:09:42.489116,6145691.0
11:09:42.529116,6145504.0
11:09:42.569116,6145234.0
11:09:42.609116,6144639.0
11:09:42.649116,6144746.0
11:09:42.689116,6145342.0
11:09:42.729116,6147108.0
11:09:42.769116,6144597.0
11:09:42.809116,6144564.0
11:09:42.849116,6144385.0
11:09:42.889116,6144435.0
11:09:42.929116,6144547.0
11:09:42.969116,6144970.0
11:09:43.009116,6145008.0
11:09:43.049116,6144547.0
11:09:43.089116,6144795.0
11:09:43.129116,6146938.0
11:09:43.169116,6143534.0
11:09:43.209116,6143873.0
11:09:43.249116,6143980.0
11:09:43.289116,6143964.0
11:09:43.329116,6144031.0
11:09:43.369116,6143821.0
11:09:43.409116,6144004.0
11:09:43.449116,6143762.0
11:09:43.489116,6143718.0
11:09:43.529116,6143363.0
11:09:43.569116,6143808.0
11:09:43.609116,6143792.0
11:09:43.649116,6142949.0
11:09:43.689116,6143120.0
11:09:43.729116,6142982.0
11:09:43.769116,6146645.0
11:09:43.809116,6141861.0
11:09:43.849116,6142200.0
11:09:43.889116,6142588.0
11:09:43.929116,6142227.0
11:09:43.969116,6142093.0
11:09:44.009116,6142386.0
11:09:44.049116,6142794.0
11:09:44.089116,6142394.0
11:09:44.129116,6141998.0
11:09:44.169116,6141954.0
11:09:44.209116,6142464.0
11:09:44.249116,6142316.0
11:09:44.289116,6142029.0
11:09:44.329116,6141726.0
11:09:44.369116,6141907.0
11:09:44.409116,6148645.0
11:09:44.449116,6140373.0
11:09:44.489116,6141011.0
11:09:44.529116,6140896.0
11:09:44.569116,6141336.0
11:09:44.609116,6141290.0
11:09:44.649116,6140936.0
11:09:44.689116,6141327.0
11:09:44.729116,6141340.0
11:09:44.769116,6141429.0
11:09:44.809116,6145530.0
11:09:44.849116,6140052.0
11:09:44.889116,6140960.0
11:09:44.929116,6140788.0
11:09:44.969116,6140545.0
11:09:45.009116,6140627.0
11:09:45.049116,6140641.0
11:09:45.089116,6140478.0
11:09:45.129116,6142306.0
11:09:45.169116,6138483.0
11:09:45.209116,6140168.0
11:09:45.249116,6140028.0
11:09:46.816274,6139741.0
11:09:46.856274,6138981.0
11:09:46.896274,6139915.0
11:09:46.936274,6139551.0
11:09:46.976274,6139151.0
11:09:47.016274,6146060.0
11:09:47.056274,6138226.0
11:09:47.096274,6138988.0
11:09:47.136274,6138448.0
11:09:47.176274,6138316.0
11:09:47.216274,6138739.0
11:09:47.256274,6139466.0
11:09:47.296274,6139059.0
11:09:47.336274,6139008.0
11:09:47.376274,6140052.0
11:09:47.416274,6139239.0
11:09:47.456274,6138533.0
11:09:47.496274,6138825.0
11:09:47.536274,6139075.0
11:09:47.576274,6139331.0
11:09:47.616274,6138881.0
11:09:47.656274,6139598.0
11:09:47.696274,6139665.0
11:09:47.736274,6139704.0
11:09:47.776274,6140127.0
11:09:47.816274,6140152.0
11:09:47.856274,6140058.0
11:09:47.896274,6140482.0
11:09:47.936274,6140706.0
11:09:47.976274,6143474.0
11:09:48.016274,6140272.0
11:09:48.056274,6140795.0
11:09:48.096274,6140782.0
11:09:48.136274,6141287.0
11:09:48.176274,6141157.0
11:09:48.216274,6141872.0
11:09:48.256274,6142235.0
11:09:48.296274,6142494.0
11:09:48.336274,6142741.0
11:09:48.376274,6142642.0
11:09:48.416274,6142977.0
11:09:48.456274,6142872.0
11:09:48.496274,6143139.0
11:09:48.536274,6146693.0
11:09:48.576274,6143072.0
11:09:48.616274,6143362.0
11:09:48.656274,6143729.0
11:09:48.696274,6144155.0
11:09:48.736274,6144285.0
11:09:48.776274,6144636.0
11:09:48.816274,6144955.0
11:09:48.856274,6145082.0
11:09:48.896274,6145676.0
11:09:48.936274,6145431.0
11:09:48.976274,6145933.0
11:09:49.016274,6145644.0
11:09:49.056274,6146240.0
11:09:49.096274,6145920.0
11:09:49.136274,6149879.0
11:09:49.176274,6145828.0
11:09:49.216274,6146322.0
11:09:49.256274,6146632.0
11:09:49.296274,6146898.0
11:09:49.336274,6146907.0
11:09:49.376274,6147726.0
11:09:49.416274,6148063.0
11:09:49.456274,6148519.0
11:09:49.496274,6148388.0
11:09:49.536274,6148936.0
11:09:49.576274,6148472.0
11:09:49.616274,6149033.0
11:09:49.656274,6151537.0
11:09:49.696274,6149611.0
11:09:49.736274,6149096.0
11:09:49.776274,6149368.0
11:09:49.816274,6149343.0
11:09:49.856274,6149590.0
11:09:49.896274,6149731.0
11:09:49.936274,6150048.0
11:09:49.976274,6149931.0
11:09:50.016274,6150135.0
11:09:50.056274,6149842.0
11:09:50.096274,6150222.0
11:09:50.136274,6150079.0
11:09:50.176274,6154970.0
11:09:50.216274,6149436.0
11:09:50.256274,6150238.0
11:09:50.296274,6149865.0
11:09:50.336274,6149792.0
11:09:50.376274,6150225.0
11:09:50.416274,6150324.0
11:09:50.456274,6150039.0
11:09:50.496274,6149896.0
11:09:50.536274,6149737.0
11:09:50.576274,6154426.0
11:09:50.616274,6147508.0
11:09:50.656274,6148335.0
11:09:50.696274,6147783.0
11:09:50.736274,6148029.0
11:09:50.776274,6148543.0
11:09:53.987199,6148387.0
11:09:54.027199,6146169.0
11:09:54.067199,6146817.0
11:09:54.107199,6146733.0
11:09:54.147199,6146321.0
11:09:54.187199,6148332.0
11:09:54.227199,6144821.0
11:09:54.267199,6146268.0
11:09:54.307199,6146023.0
11:09:54.347199,6146040.0
11:09:54.387199,6146433.0
11:09:54.427199,6146752.0
11:09:54.467199,6146573.0
11:09:54.507199,6146127.0
11:09:54.547199,6146087.0
11:09:54.587199,6146381.0
11:09:54.627199,6146825.0
11:09:54.667199,6146704.0
11:09:54.707199,6146009.0
11:09:54.747199,6145919.0
11:09:54.787199,6145774.0
11:09:54.827199,6145692.0
11:09:54.867199,6146240.0
11:09:54.907199,6146089.0
11:09:54.947199,6145849.0
11:09:54.987199,6145801.0
11:09:55.027199,6146494.0
11:09:55.067199,6146247.0
11:09:55.107199,6145748.0
11:09:55.147199,6145445.0
11:09:55.187199,6153116.0
11:09:55.227199,6145048.0
11:09:55.267199,6145094.0
11:09:55.307199,6144691.0
11:09:55.347199,6145021.0
11:09:55.387199,6145551.0
11:09:55.427199,6145642.0
11:09:55.467199,6145572.0
11:09:55.507199,6145525.0
11:09:55.547199,6145591.0
11:09:55.587199,6145418.0
11:09:55.627199,6144818.0
11:09:55.667199,6145217.0
11:09:55.707199,6145701.0
11:09:55.747199,6145256.0
11:09:55.787199,6144484.0
11:09:55.827199,6144925.0
11:09:55.867199,6144985.0
11:09:55.907199,6152763.0
11:09:55.947199,6143083.0
11:09:55.987199,6144662.0
11:09:56.027199,6144405.0
11:09:56.067199,6144334.0
11:09:56.107199,6144104.0
11:09:56.147199,6143885.0
11:09:56.187199,6144440.0
11:09:56.227199,6144435.0
11:09:56.267199,6144579.0
11:09:56.307199,6144461.0
11:09:56.347199,6147223.0
11:09:56.387199,6143982.0
11:09:56.427199,6144114.0
11:09:56.467199,6143510.0
11:09:56.507199,6144217.0
11:09:56.547199,6143809.0
11:09:56.587199,6143720.0
11:09:56.627199,6144011.0
11:09:56.667199,6144064.0
11:09:56.707199,6143801.0
11:09:56.747199,6150054.0
11:09:56.787199,6142827.0
11:09:56.827199,6143388.0
11:09:56.867199,6143080.0
11:09:56.907199,6143383.0
11:09:56.947199,6143191.0
11:09:56.987199,6143568.0
11:09:57.027199,6143062.0
11:09:57.067199,6143939.0
11:09:57.107199,6143551.0
11:09:57.147199,6143659.0
11:09:57.187199,6144162.0
11:09:57.227199,6147364.0
11:09:57.267199,6143299.0
11:09:57.307199,6143911.0
11:09:57.347199,6144074.0
11:09:57.387199,6144220.0
11:09:57.427199,6144187.0
11:09:57.467199,6145148.0
11:09:57.507199,6144504.0
11:09:57.547199,6144442.0
11:09:57.587199,6144857.0
11:09:57.627199,6145732.0
11:09:57.667199,6145007.0
11:09:57.707199,6144746.0
11:09:57.747199,6144606.0
11:09:57.787199,6145630.0
11:09:57.827199,6154897.0
11:09:57.867199,6144094.0
11:09:57.907199,6145249.0
11:09:57.947199,6145846.0
11:09:58.287839,6146261.0
11:09:58.327839,6159752.0
11:09:58.367839,6160292.0
11:09:58.407839,6160611.0
11:09:58.447839,6160924.0
11:09:58.487839,6161273.0
11:09:58.527839,6160238.0
11:09:58.567839,6158713.0
11:09:58.607839,6158369.0
11:09:58.647839,6157085.0
11:09:58.687839,6156754.0
11:09:58.727839,6158428.0
11:09:58.767839,6163677.0
11:09:58.807839,6161053.0
11:09:58.847839,6160511.0
