Time, Ecg1
09:42:41.331487,6149245.0
09:42:41.371487,6151284.0
09:42:41.411487,6146220.0
09:42:41.451487,6149838.0
09:42:41.491487,6149779.0
09:42:41.531487,6149093.0
09:42:41.571487,6149049.0
09:42:41.611487,6150954.0
09:42:41.651487,6150799.0
09:42:41.691487,6150041.0
09:42:41.731487,6149266.0
09:42:41.771487,6149870.0
09:42:41.811487,6149252.0
09:42:41.851487,6149942.0
09:42:41.891487,6149387.0
09:42:41.931487,6149714.0
09:42:41.971487,6149720.0
09:42:42.011487,6149330.0
09:42:42.051487,6150119.0
09:42:42.091487,6150388.0
09:42:42.131487,6149652.0
09:42:42.171487,6149954.0
09:42:42.211487,6150176.0
09:42:42.251487,6149098.0
09:42:42.291487,6149406.0
09:42:42.331487,6150916.0
09:42:42.371487,6150223.0
09:42:42.411487,6149078.0
09:42:42.451487,6149178.0
09:42:42.491487,6150848.0
09:42:42.531487,6149643.0
09:42:42.571487,6149133.0
09:42:42.611487,6148036.0
09:42:42.651487,6150073.0
09:42:42.691487,6149336.0
09:42:42.731487,6149158.0
09:42:42.771487,6149550.0
09:42:42.811487,6149873.0
09:42:42.851487,6150005.0
09:42:42.891487,6150338.0
09:42:42.931487,6149850.0
09:42:42.971487,6149609.0
09:42:43.011487,6149605.0
09:42:43.051487,6149531.0
09:42:43.091487,6149521.0
09:42:43.131487,6149221.0
09:42:43.171487,6146823.0
09:42:43.211487,6149303.0
09:42:43.251487,6149147.0
09:42:43.291487,6149261.0
09:42:43.331487,6150402.0
09:42:43.371487,6149905.0
09:42:43.411487,6150542.0
09:42:43.451487,6150382.0
09:42:43.491487,6149125.0
09:42:43.531487,6149562.0
09:42:43.571487,6149970.0
09:42:43.611487,6149839.0
09:42:43.651487,6149194.0
09:42:43.691487,6150201.0
09:42:43.731487,6149742.0
09:42:43.771487,6149769.0
09:42:43.811487,6146516.0
09:42:43.851487,6149577.0
09:42:43.891487,6149854.0
09:42:43.931487,6150307.0
09:42:43.971487,6149796.0
09:42:44.011487,6149936.0
09:42:44.051487,6150712.0
09:42:44.091487,6151000.0
09:42:44.131487,6150040.0
09:42:44.171487,6149528.0
09:42:44.211487,6151147.0
09:42:44.251487,6149279.0
09:42:44.291487,6149041.0
09:42:44.331487,6150037.0
09:42:44.371487,6150809.0
09:42:44.411487,6149681.0
09:42:44.451487,6149225.0
09:42:44.491487,6149606.0
09:42:44.531487,6151803.0
09:42:44.571487,6150264.0
09:42:44.611487,6150137.0
09:42:44.651487,6149819.0
09:42:44.691487,6150854.0
09:42:44.731487,6149727.0
09:42:44.771487,6149759.0
09:42:44.811487,6149922.0
09:42:44.851487,6149613.0
09:42:44.891487,6149879.0
09:42:44.931487,6149797.0
09:42:44.971487,6149909.0
09:42:45.011487,6149866.0
09:42:45.051487,6150912.0
09:42:45.091487,6150053.0
09:42:45.131487,6147500.0
09:42:45.171487,6150057.0
09:42:45.211487,6149733.0
09:42:45.251487,6150805.0
09:42:45.291487,6150288.0
09:42:45.628247,6150992.0
09:42:45.668247,6149761.0
09:42:45.708247,6150165.0
09:42:45.748247,6154302.0
09:42:45.788247,6150749.0
09:42:45.828247,6151666.0
09:42:45.868247,6149902.0
09:42:45.908247,6149371.0
09:42:45.948247,6149122.0
09:42:45.988247,6148631.0
09:42:46.028247,6149159.0
09:42:46.068247,6149382.0
09:42:46.108247,6150115.0
09:42:46.148247,6149999.0
09:42:46.188247,6151048.0
09:42:46.228247,6149649.0
09:42:46.268247,6149606.0
09:42:46.308247,6152696.0
09:42:46.348247,6149285.0
09:42:46.388247,6150239.0
09:42:46.428247,6149634.0
09:42:46.468247,6150123.0
09:42:46.508247,6151237.0
09:42:46.548247,6150459.0
09:42:46.588247,6150749.0
09:42:46.628247,6150668.0
09:42:46.668247,6150485.0
09:42:46.708247,6149613.0
09:42:46.748247,6149300.0
09:42:46.788247,6150442.0
09:42:46.828247,6152777.0
09:42:46.868247,6146840.0
09:42:46.908247,6149289.0
09:42:46.948247,6150768.0
09:42:46.988247,6150145.0
09:42:47.028247,6149859.0
09:42:47.068247,6150043.0
09:42:47.108247,6151942.0
09:42:47.148247,6150605.0
09:42:47.188247,6149824.0
09:42:47.228247,6149504.0
09:42:47.268247,6150468.0
09:42:47.308247,6150325.0
09:42:47.348247,6150221.0
09:42:47.388247,6149722.0
09:42:47.428247,6149771.0
09:42:47.468247,6150372.0
09:42:47.508247,6150309.0
09:42:47.548247,6149694.0
09:42:47.588247,6149918.0
09:42:47.628247,6150562.0
09:42:47.668247,6150091.0
09:42:47.708247,6149633.0
09:42:47.748247,6149812.0
09:42:47.788247,6151040.0
09:42:47.828247,6150504.0
09:42:47.868247,6146156.0
09:42:47.908247,6149578.0
09:42:47.948247,6151140.0
09:42:47.988247,6150326.0
09:42:48.028247,6150086.0
09:42:48.068247,6150320.0
09:42:48.108247,6152692.0
09:42:48.148247,6151356.0
09:42:48.188247,6149891.0
09:42:48.228247,6149755.0
09:42:48.268247,6150416.0
09:42:48.308247,6150469.0
09:42:48.348247,6150571.0
09:42:48.388247,6150399.0
09:42:48.428247,6148160.0
09:42:48.468247,6151224.0
09:42:48.508247,6150238.0
09:42:48.548247,6150344.0
09:42:48.588247,6150591.0
09:42:48.628247,6151245.0
09:42:48.668247,6151775.0
09:42:48.708247,6151136.0
09:42:48.748247,6150339.0
09:42:48.788247,6150063.0
09:42:48.828247,6151140.0
09:42:48.868247,6150323.0
09:42:48.908247,6150468.0
09:42:48.948247,6150143.0
09:42:48.988247,6150002.0
09:42:49.028247,6150285.0
09:42:49.068247,6152709.0
09:42:49.108247,6148338.0
09:42:49.148247,6150019.0
09:42:49.188247,6150113.0
09:42:49.228247,6150241.0
09:42:49.268247,6150350.0
09:42:49.308247,6150764.0
09:42:49.348247,6151050.0
09:42:49.388247,6151302.0
09:42:49.428247,6150096.0
09:42:49.468247,6150285.0
09:42:49.508247,6150106.0
09:42:49.548247,6150053.0
09:42:49.588247,6150194.0
09:42:49.909131,6150370.0
09:42:49.949131,6152702.0
09:42:49.989131,6148614.0
09:42:50.029131,6149880.0
09:42:50.069131,6150884.0
09:42:50.109131,6150148.0
09:42:50.149131,6150188.0
09:42:50.189131,6150201.0
09:42:50.229131,6150666.0
09:42:50.269131,6151633.0
09:42:50.309131,6150368.0
09:42:50.349131,6150327.0
09:42:50.389131,6150059.0
09:42:50.429131,6149610.0
09:42:50.469131,6150146.0
09:42:50.509131,6153067.0
09:42:50.549131,6148580.0
09:42:50.589131,6149829.0
09:42:50.629131,6149885.0
09:42:50.669131,6150604.0
09:42:50.709131,6150805.0
09:42:50.749131,6150936.0
09:42:50.789131,6150980.0
09:42:50.829131,6150164.0
09:42:50.869131,6150949.0
09:42:50.909131,6150474.0
09:42:50.949131,6150124.0
09:42:50.989131,6149923.0
09:42:51.029131,6152230.0
09:42:51.069131,6148120.0
09:42:51.109131,6151047.0
09:42:51.149131,6150595.0
09:42:51.189131,6150492.0
09:42:51.229131,6150324.0
09:42:51.269131,6152534.0
09:42:51.309131,6152000.0
09:42:51.349131,6151128.0
09:42:51.389131,6150428.0
09:42:51.429131,6150581.0
09:42:51.469131,6150651.0
09:42:51.509131,6150862.0
09:42:51.549131,6150622.0
09:42:51.589131,6150506.0
09:42:51.629131,6150637.0
09:42:51.669131,6150838.0
09:42:51.709131,6150598.0
09:42:51.749131,6150246.0
09:42:51.789131,6153157.0
09:42:51.829131,6147964.0
09:42:51.869131,6151011.0
09:42:51.909131,6150619.0
09:42:51.949131,6150826.0
09:42:51.989131,6150848.0
09:42:52.029131,6151233.0
09:42:52.069131,6151551.0
09:42:52.109131,6151358.0
09:42:52.149131,6151920.0
09:42:52.189131,6150834.0
09:42:52.229131,6150747.0
09:42:52.269131,6150510.0
09:42:52.309131,6150970.0
09:42:52.349131,6150891.0
09:42:52.389131,6150734.0
09:42:52.429131,6152450.0
09:42:52.469131,6147839.0
09:42:52.509131,6151000.0
09:42:52.549131,6150952.0
09:42:52.589131,6150741.0
09:42:52.629131,6150307.0
09:42:52.669131,6151700.0
09:42:52.709131,6151908.0
09:42:52.749131,6151782.0
09:42:52.789131,6150387.0
09:42:52.829131,6150464.0
09:42:52.869131,6150804.0
09:42:52.909131,6151082.0
09:42:52.949131,6150851.0
09:42:52.989131,6150630.0
09:42:53.029131,6154230.0
09:42:53.069131,6149247.0
09:42:53.109131,6150723.0
09:42:53.149131,6150511.0
09:42:53.189131,6150544.0
09:42:53.229131,6150924.0
09:42:53.269131,6151480.0
09:42:53.309131,6152027.0
09:42:53.349131,6150944.0
09:42:53.389131,6151000.0
09:42:53.429131,6150534.0
09:42:53.469131,6150646.0
09:42:53.509131,6150436.0
09:42:53.549131,6150308.0
09:42:53.589131,6150820.0
09:42:53.629131,6153917.0
09:42:53.669131,6149189.0
09:42:53.709131,6150441.0
09:42:53.749131,6150561.0
09:42:53.789131,6150671.0
09:42:53.829131,6150963.0
09:42:53.869131,6151007.0
09:42:54.019706,6152558.0
09:42:54.059706,6153796.0
09:42:54.099706,6149041.0
09:42:54.139706,6150555.0
09:42:54.179706,6150484.0
09:42:54.219706,6150726.0
09:42:54.259706,6151112.0
09:42:54.299706,6151386.0
09:42:54.339706,6152846.0
09:42:54.379706,6150865.0
09:42:54.419706,6150473.0
09:42:54.459706,6150130.0
09:42:54.499706,6151251.0
09:42:54.539706,6151050.0
09:42:54.579706,6150870.0
09:42:54.619706,6150707.0
09:42:54.659706,6150487.0
09:42:54.699706,6155684.0
09:42:54.739706,6148354.0
09:42:54.779706,6150648.0
09:42:54.819706,6150685.0
09:42:54.859706,6150820.0
09:42:54.899706,6152799.0
09:42:54.939706,6151834.0
09:42:54.979706,6152082.0
09:42:55.019706,6151076.0
09:42:55.059706,6150653.0
09:42:55.099706,6151767.0
09:42:55.139706,6151125.0
09:42:55.179706,6151272.0
09:42:55.219706,6151148.0
09:42:55.259706,6150591.0
09:42:55.299706,6151064.0
09:42:55.339706,6149159.0
09:42:55.379706,6151019.0
09:42:55.419706,6150748.0
09:42:55.459706,6151086.0
09:42:55.499706,6151478.0
09:42:55.539706,6151963.0
09:42:55.579706,6151812.0
09:42:55.619706,6152820.0
09:42:55.659706,6151311.0
09:42:55.699706,6151060.0
09:42:55.739706,6150950.0
09:42:55.779706,6150885.0
09:42:55.819706,6149646.0
09:42:55.859706,6150543.0
09:42:55.899706,6151067.0
09:42:55.939706,6151040.0
09:42:55.979706,6151826.0
09:42:56.019706,6151548.0
09:42:56.059706,6152093.0
09:42:56.099706,6151862.0
09:42:56.139706,6151097.0
09:42:56.179706,6151688.0
09:42:56.219706,6151422.0
09:42:56.259706,6151826.0
09:42:56.299706,6151221.0
09:42:56.339706,6153970.0
09:42:56.379706,6149521.0
09:42:56.419706,6151437.0
09:42:56.459706,6151425.0
09:42:56.499706,6151250.0
09:42:56.539706,6151838.0
09:42:56.579706,6152132.0
09:42:56.619706,6152413.0
09:42:56.659706,6151726.0
09:42:56.699706,6151392.0
09:42:56.739706,6151533.0
09:42:56.779706,6151444.0
09:42:56.819706,6151489.0
09:42:56.859706,6152016.0
09:42:56.899706,6151708.0
09:42:56.939706,6151792.0
09:42:56.979706,6151671.0
09:42:57.019706,6155092.0
09:42:57.059706,6148883.0
09:42:57.099706,6151619.0
09:42:57.139706,6151534.0
09:42:57.179706,6151853.0
09:42:57.219706,6152209.0
09:42:57.259706,6152099.0
09:42:57.299706,6152488.0
09:42:57.339706,6152208.0
09:42:57.379706,6153179.0
09:42:57.419706,6151693.0
09:42:57.459706,6151439.0
09:42:57.499706,6151404.0
09:42:57.539706,6152533.0
09:42:57.579706,6148262.0
09:42:57.619706,6151426.0
09:42:57.659706,6151522.0
09:42:57.699706,6151314.0
09:42:57.739706,6151891.0
09:42:57.779706,6151863.0
09:42:57.819706,6153253.0
09:42:57.859706,6152409.0
09:42:57.899706,6151739.0
09:42:57.939706,6151659.0
09:42:57.979706,6151128.0
09:43:00.382740,6151847.0
09:43:00.422740,6151921.0
09:43:00.462740,6151297.0
09:43:00.502740,6152327.0
09:43:00.542740,6153228.0
09:43:00.582740,6152278.0
09:43:00.622740,6152348.0
09:43:00.662740,6152474.0
09:43:00.702740,6151320.0
09:43:00.742740,6151921.0
09:43:00.782740,6152858.0
09:43:00.822740,6152171.0
09:43:00.862740,6151671.0
09:43:00.902740,6151931.0
09:43:00.942740,6152470.0
09:43:00.982740,6151785.0
09:43:01.022740,6151382.0
09:43:01.062740,6152140.0
09:43:01.102740,6151988.0
09:43:01.142740,6153303.0
09:43:01.182740,6148708.0
09:43:01.222740,6152799.0
09:43:01.262740,6151904.0
09:43:01.302740,6151380.0
09:43:01.342740,6152144.0
09:43:01.382740,6152504.0
09:43:01.422740,6152162.0
09:43:01.462740,6152685.0
09:43:01.502740,6152722.0
09:43:01.542740,6151926.0
09:43:01.582740,6151507.0
09:43:01.622740,6152501.0
09:43:01.662740,6152162.0
09:43:01.702740,6151584.0
09:43:01.742740,6151930.0
09:43:01.782740,6152135.0
09:43:01.822740,6154110.0
09:43:01.862740,6149079.0
09:43:01.902740,6152355.0
09:43:01.942740,6152412.0
09:43:01.982740,6151541.0
09:43:02.022740,6151666.0
09:43:02.062740,6152581.0
09:43:02.102740,6152516.0
09:43:02.142740,6152438.0
09:43:02.182740,6152229.0
09:43:02.222740,6152037.0
09:43:02.262740,6151243.0
09:43:02.302740,6151370.0
09:43:02.342740,6152112.0
09:43:02.382740,6152081.0
09:43:02.422740,6151155.0
09:43:02.462740,6151300.0
09:43:02.502740,6151928.0
09:43:02.542740,6152030.0
09:43:02.582740,6151018.0
09:43:02.622740,6151828.0
09:43:02.662740,6151900.0
09:43:02.702740,6147585.0
09:43:02.742740,6150782.0
09:43:02.782740,6152180.0
09:43:02.822740,6152132.0
09:43:02.862740,6151253.0
09:43:02.902740,6151159.0
09:43:02.942740,6152939.0
09:43:02.982740,6153736.0
09:43:03.022740,6151624.0
09:43:03.062740,6151086.0
09:43:03.102740,6152184.0
09:43:03.142740,6152580.0
09:43:03.182740,6150883.0
09:43:03.222740,6151329.0
09:43:03.262740,6152131.0
09:43:03.302740,6151483.0
09:43:03.342740,6150098.0
09:43:03.382740,6150829.0
09:43:03.422740,6152207.0
09:43:03.462740,6152092.0
09:43:03.502740,6152399.0
09:43:03.542740,6152332.0
09:43:03.582740,6152532.0
09:43:03.622740,6153379.0
09:43:03.662740,6152453.0
09:43:03.702740,6151907.0
09:43:03.742740,6151888.0
09:43:03.782740,6155457.0
09:43:03.822740,6150747.0
09:43:03.862740,6151608.0
09:43:03.902740,6152459.0
09:43:03.942740,6152598.0
09:43:03.982740,6152304.0
09:43:04.022740,6151655.0
09:43:04.062740,6153204.0
09:43:04.102740,6152501.0
09:43:04.142740,6151688.0
09:43:04.182740,6151167.0
09:43:04.222740,6155808.0
09:43:04.262740,6150198.0
09:43:04.302740,6151857.0
09:43:04.342740,6151239.0
09:43:04.674699,6151491.0
09:43:04.714699,6151692.0
09:43:04.754699,6151758.0
09:43:04.794699,6151488.0
09:43:04.834699,6151789.0
09:43:04.874699,6151623.0
09:43:04.914699,6151669.0
09:43:04.954699,6151757.0
09:43:04.994699,6151939.0
09:43:05.034699,6151446.0
09:43:05.074699,6154346.0
09:43:05.114699,6148786.0
09:43:05.154699,6151668.0
09:43:05.194699,6151449.0
09:43:05.234699,6151509.0
09:43:05.274699,6151839.0
09:43:05.314699,6152244.0
09:43:05.354699,6152501.0
09:43:05.394699,6152008.0
09:43:05.434699,6151422.0
09:43:05.474699,6151656.0
09:43:05.514699,6151628.0
09:43:05.554699,6151543.0
09:43:05.594699,6153185.0
09:43:05.634699,6151721.0
09:43:05.674699,6151293.0
09:43:05.714699,6151018.0
09:43:05.754699,6150830.0
09:43:05.794699,6151840.0
09:43:05.834699,6151272.0
09:43:05.874699,6151170.0
09:43:05.914699,6154123.0
09:43:05.954699,6149915.0
09:43:05.994699,6151552.0
09:43:06.034699,6151728.0
09:43:06.074699,6151582.0
09:43:06.114699,6151625.0
09:43:06.154699,6151970.0
09:43:06.194699,6152598.0
09:43:06.234699,6152327.0
09:43:06.274699,6152183.0
09:43:06.314699,6151610.0
09:43:06.354699,6151640.0
09:43:06.394699,6151771.0
09:43:06.434699,6151700.0
09:43:06.474699,6151546.0
09:43:06.514699,6154656.0
09:43:06.554699,6151865.0
09:43:06.594699,6152128.0
09:43:06.634699,6148944.0
09:43:06.674699,6151527.0
09:43:06.714699,6151963.0
09:43:06.754699,6151743.0
09:43:06.794699,6151381.0
09:43:06.834699,6151715.0
09:43:06.874699,6152603.0
09:43:06.914699,6152963.0
09:43:06.954699,6151694.0
09:43:06.994699,6152555.0
09:43:07.034699,6151741.0
09:43:07.074699,6154817.0
09:43:07.114699,6149278.0
09:43:07.154699,6151450.0
09:43:07.194699,6151680.0
09:43:07.234699,6152046.0
09:43:07.274699,6152516.0
09:43:07.314699,6152078.0
09:43:07.354699,6152827.0
09:43:07.394699,6152258.0
09:43:07.434699,6151852.0
09:43:07.474699,6151357.0
09:43:07.514699,6153926.0
09:43:07.554699,6149009.0
09:43:07.594699,6151562.0
09:43:07.634699,6151869.0
09:43:07.674699,6152396.0
09:43:07.714699,6152041.0
09:43:07.754699,6152303.0
09:43:07.794699,6153217.0
09:43:07.834699,6152159.0
09:43:07.874699,6151683.0
09:43:07.914699,6151813.0
09:43:07.954699,6155801.0
09:43:07.994699,6150262.0
09:43:08.034699,6152065.0
09:43:08.074699,6151941.0
09:43:08.114699,6152106.0
09:43:08.154699,6151953.0
09:43:08.194699,6154108.0
09:43:08.234699,6152693.0
09:43:08.274699,6152003.0
09:43:08.314699,6151762.0
09:43:08.354699,6153575.0
09:43:08.394699,6149092.0
09:43:08.434699,6152543.0
09:43:08.474699,6152061.0
09:43:08.514699,6152370.0
09:43:08.554699,6152185.0
09:43:08.594699,6153202.0
09:43:08.634699,6153042.0
09:43:08.976522,6153033.0
09:43:09.016522,6153893.0
09:43:09.056522,6148895.0
09:43:09.096522,6151346.0
09:43:09.136522,6153217.0
09:43:09.176522,6152546.0
09:43:09.216522,6152104.0
09:43:09.256522,6152400.0
09:43:09.296522,6153914.0
09:43:09.336522,6152715.0
09:43:09.376522,6151819.0
09:43:09.416522,6152182.0
09:43:09.456522,6154078.0
09:43:09.496522,6149710.0
09:43:09.536522,6152158.0
09:43:09.576522,6152219.0
09:43:09.616522,6151849.0
09:43:09.656522,6152235.0
09:43:09.696522,6152483.0
09:43:09.736522,6152531.0
09:43:09.776522,6153472.0
09:43:09.816522,6152485.0
09:43:09.856522,6152397.0
09:43:09.896522,6154487.0
09:43:09.936522,6149397.0
09:43:09.976522,6151982.0
09:43:10.016522,6152055.0
09:43:10.056522,6151922.0
09:43:10.096522,6152274.0
09:43:10.136522,6152997.0
09:43:10.176522,6153505.0
09:43:10.216522,6152677.0
09:43:10.256522,6152260.0
09:43:10.296522,6151905.0
09:43:10.336522,6153640.0
09:43:10.376522,6152646.0
09:43:10.416522,6152638.0
09:43:10.456522,6151879.0
09:43:10.496522,6152434.0
09:43:10.536522,6152418.0
09:43:10.576522,6152323.0
09:43:10.616522,6151976.0
09:43:10.656522,6151882.0
09:43:10.696522,6152298.0
09:43:10.736522,6152343.0
09:43:10.776522,6152146.0
09:43:10.816522,6151898.0
09:43:10.856522,6152922.0
09:43:10.896522,6152174.0
09:43:10.936522,6152270.0
09:43:10.976522,6148199.0
09:43:11.016522,6151554.0
09:43:11.056522,6153667.0
09:43:11.096522,6152030.0
09:43:11.136522,6152092.0
09:43:11.176522,6151866.0
09:43:11.216522,6152676.0
09:43:11.256522,6153290.0
09:43:11.296522,6152598.0
09:43:11.336522,6151970.0
09:43:11.376522,6151714.0
09:43:11.416522,6152209.0
09:43:11.456522,6152539.0
09:43:11.496522,6152122.0
09:43:11.536522,6151821.0
09:43:11.576522,6152932.0
09:43:11.616522,6154053.0
09:43:11.656522,6151309.0
09:43:11.696522,6152041.0
09:43:11.736522,6152104.0
09:43:11.776522,6152265.0
09:43:11.816522,6152661.0
09:43:11.856522,6152944.0
09:43:11.896522,6153020.0
09:43:11.936522,6152524.0
09:43:11.976522,6152468.0
09:43:12.016522,6152593.0
09:43:12.056522,6152217.0
09:43:12.096522,6152708.0
09:43:12.136522,6152041.0
09:43:12.176522,6152116.0
09:43:12.216522,6152212.0
09:43:12.256522,6151754.0
09:43:12.296522,6153745.0
09:43:12.336522,6148619.0
09:43:12.376522,6152402.0
09:43:12.416522,6151923.0
09:43:12.456522,6151947.0
09:43:12.496522,6152388.0
09:43:12.536522,6153044.0
09:43:12.576522,6153213.0
09:43:12.616522,6153364.0
09:43:12.656522,6152523.0
09:43:12.696522,6152369.0
09:43:12.736522,6152437.0
09:43:12.776522,6152134.0
09:43:12.816522,6152711.0
09:43:12.856522,6149823.0
09:43:12.896522,6152206.0
09:43:12.936522,6152520.0
09:43:13.274172,6152082.0
09:43:13.314172,6152072.0
09:43:13.354172,6152255.0
09:43:13.394172,6151952.0
09:43:13.434172,6152287.0
09:43:13.474172,6152081.0
09:43:13.514172,6151861.0
09:43:13.554172,6153198.0
09:43:13.594172,6154830.0
09:43:13.634172,6149412.0
09:43:13.674172,6152037.0
09:43:13.714172,6151926.0
09:43:13.754172,6152147.0
09:43:13.794172,6152257.0
09:43:13.834172,6152810.0
09:43:13.874172,6153065.0
09:43:13.914172,6153224.0
09:43:13.954172,6152246.0
09:43:13.994172,6152151.0
09:43:14.034172,6152282.0
09:43:14.074172,6152186.0
09:43:14.114172,6152015.0
09:43:14.154172,6154107.0
09:43:14.194172,6149429.0
09:43:14.234172,6151903.0
09:43:14.274172,6152389.0
09:43:14.314172,6152278.0
09:43:14.354172,6152426.0
09:43:14.394172,6152636.0
09:43:14.434172,6152828.0
09:43:14.474172,6152709.0
09:43:14.514172,6152312.0
09:43:14.554172,6152402.0
09:43:14.594172,6151871.0
09:43:14.634172,6155194.0
09:43:14.674172,6149967.0
09:43:14.714172,6152305.0
09:43:14.754172,6152043.0
09:43:14.794172,6152162.0
09:43:14.834172,6152615.0
09:43:14.874172,6152916.0
09:43:14.914172,6153396.0
09:43:14.954172,6152517.0
09:43:14.994172,6152754.0
09:43:15.034172,6152605.0
09:43:15.074172,6152742.0
09:43:15.114172,6152479.0
09:43:15.154172,6152311.0
09:43:15.194172,6152916.0
09:43:15.234172,6152868.0
09:43:15.274172,6152395.0
09:43:15.314172,6152053.0
09:43:15.354172,6152156.0
09:43:15.394172,6153930.0
09:43:15.434172,6149738.0
09:43:15.474172,6152525.0
09:43:15.514172,6152679.0
09:43:15.554172,6152334.0
09:43:15.594172,6154416.0
09:43:15.634172,6153036.0
09:43:15.674172,6153542.0
09:43:15.714172,6153184.0
09:43:15.754172,6152569.0
09:43:15.794172,6152835.0
09:43:15.834172,6153160.0
09:43:15.874172,6152815.0
09:43:15.914172,6152700.0
09:43:15.954172,6152672.0
09:43:15.994172,6152878.0
09:43:16.034172,6149692.0
09:43:16.074172,6152551.0
09:43:16.114172,6153489.0
09:43:16.154172,6152899.0
09:43:16.194172,6152678.0
09:43:16.234172,6153092.0
09:43:16.274172,6153867.0
09:43:16.314172,6153618.0
09:43:16.354172,6152867.0
09:43:16.394172,6152837.0
09:43:16.434172,6152588.0
09:43:16.474172,6152966.0
09:43:16.514172,6152230.0
09:43:16.554172,6152820.0
09:43:16.594172,6153070.0
09:43:16.634172,6152821.0
09:43:16.674172,6154021.0
09:43:16.714172,6153810.0
09:43:16.754172,6153861.0
09:43:16.794172,6152589.0
09:43:16.834172,6152298.0
09:43:16.874172,6154668.0
09:43:16.914172,6151154.0
09:43:16.954172,6153196.0
09:43:16.994172,6152674.0
09:43:17.034172,6152772.0
09:43:17.074172,6154109.0
09:43:17.114172,6153500.0
09:43:17.154172,6153966.0
09:43:17.194172,6153364.0
09:43:17.234172,6153676.0
09:43:18.596369,6153056.0
09:43:18.636369,6153178.0
09:43:18.676369,6153094.0
09:43:18.716369,6152701.0
09:43:18.756369,6153360.0
09:43:18.796369,6152719.0
09:43:18.836369,6153392.0
09:43:18.876369,6153581.0
09:43:18.916369,6153009.0
09:43:18.956369,6153297.0
09:43:18.996369,6153223.0
09:43:19.036369,6153150.0
09:43:19.076369,6152762.0
09:43:19.116369,6153205.0
09:43:19.156369,6152909.0
09:43:19.196369,6154839.0
09:43:19.236369,6151329.0
09:43:19.276369,6153567.0
09:43:19.316369,6153194.0
09:43:19.356369,6152986.0
09:43:19.396369,6153209.0
09:43:19.436369,6154684.0
09:43:19.476369,6154257.0
09:43:19.516369,6153700.0
09:43:19.556369,6153037.0
09:43:19.596369,6152773.0
09:43:19.636369,6154904.0
09:43:19.676369,6153072.0
09:43:19.716369,6152955.0
09:43:19.756369,6152574.0
09:43:19.796369,6153367.0
09:43:19.836369,6155369.0
09:43:19.876369,6150292.0
09:43:19.916369,6152816.0
09:43:19.956369,6153018.0
09:43:19.996369,6153887.0
09:43:20.036369,6153552.0
09:43:20.076369,6153752.0
09:43:20.116369,6154328.0
09:43:20.156369,6154809.0
09:43:20.196369,6153635.0
09:43:20.236369,6153495.0
09:43:20.276369,6153517.0
09:43:20.316369,6154119.0
09:43:20.356369,6153439.0
09:43:20.396369,6153649.0
09:43:20.436369,6153862.0
09:43:20.476369,6153490.0
09:43:20.516369,6153260.0
09:43:20.556369,6153493.0
09:43:20.596369,6153433.0
09:43:20.636369,6154847.0
09:43:20.676369,6154868.0
09:43:20.716369,6150042.0
09:43:20.756369,6153374.0
09:43:20.796369,6154025.0
09:43:20.836369,6153376.0
09:43:20.876369,6153632.0
09:43:20.916369,6154622.0
09:43:20.956369,6154559.0
09:43:20.996369,6154252.0
09:43:21.036369,6153676.0
09:43:21.076369,6153498.0
09:43:21.116369,6153551.0
09:43:21.156369,6153352.0
09:43:21.196369,6157221.0
09:43:21.236369,6151395.0
09:43:21.276369,6153835.0
09:43:21.316369,6153652.0
09:43:21.356369,6152751.0
09:43:21.396369,6153981.0
09:43:21.436369,6154736.0
09:43:21.476369,6154256.0
09:43:21.516369,6153346.0
09:43:21.556369,6154072.0
09:43:21.596369,6153575.0
09:43:21.636369,6153129.0
09:43:21.676369,6153334.0
09:43:21.716369,6153884.0
09:43:21.756369,6153334.0
09:43:21.796369,6157127.0
09:43:21.836369,6158694.0
09:43:21.876369,6153405.0
09:43:21.916369,6152040.0
09:43:21.956369,6152154.0
09:43:21.996369,6151556.0
09:43:22.036369,6151554.0
09:43:22.076369,6150612.0
09:43:22.116369,6152828.0
09:43:22.156369,6153458.0
09:43:22.196369,6154345.0
09:43:22.236369,6152871.0
09:43:22.276369,6152982.0
09:43:22.316369,6153441.0
09:43:22.356369,6154269.0
09:43:22.396369,6150936.0
09:43:22.436369,6153013.0
09:43:22.476369,6153307.0
09:43:22.516369,6153864.0
09:43:22.556369,6153591.0
09:43:24.128010,6153797.0
09:43:24.168010,6153864.0
09:43:24.208010,6153687.0
09:43:24.248010,6153927.0
09:43:24.288010,6154171.0
09:43:24.328010,6154355.0
09:43:24.368010,6153464.0
09:43:24.408010,6153677.0
09:43:24.448010,6153845.0
09:43:24.488010,6154181.0
09:43:24.528010,6153367.0
09:43:24.568010,6153415.0
09:43:24.608010,6154619.0
09:43:24.648010,6150694.0
09:43:24.688010,6153401.0
09:43:24.728010,6153400.0
09:43:24.768010,6154578.0
09:43:24.808010,6153946.0
09:43:24.848010,6153803.0
09:43:24.888010,6154099.0
09:43:24.928010,6154824.0
09:43:24.968010,6154072.0
09:43:25.008010,6153561.0
09:43:25.048010,6153752.0
09:43:25.088010,6151021.0
09:43:25.128010,6153435.0
09:43:25.168010,6153134.0
09:43:25.208010,6153173.0
09:43:25.248010,6153949.0
09:43:25.288010,6154252.0
09:43:25.328010,6154473.0
09:43:25.368010,6153546.0
09:43:25.408010,6153855.0
09:43:25.448010,6153442.0
09:43:25.488010,6153587.0
09:43:25.528010,6153453.0
09:43:25.568010,6153662.0
09:43:25.608010,6153312.0
09:43:25.648010,6153091.0
09:43:25.688010,6153103.0
09:43:25.728010,6152630.0
09:43:25.768010,6152981.0
09:43:25.808010,6156504.0
09:43:25.848010,6150169.0
09:43:25.888010,6152721.0
09:43:25.928010,6152910.0
09:43:25.968010,6152953.0
09:43:26.008010,6153668.0
09:43:26.048010,6153996.0
09:43:26.088010,6154105.0
09:43:26.128010,6153686.0
09:43:26.168010,6153484.0
09:43:26.208010,6153351.0
09:43:26.248010,6152955.0
09:43:26.288010,6153443.0
09:43:26.328010,6153293.0
09:43:26.368010,6153897.0
09:43:26.408010,6153105.0
09:43:26.448010,6153289.0
09:43:26.488010,6152869.0
09:43:26.528010,6153516.0
09:43:26.568010,6155943.0
09:43:26.608010,6150903.0
09:43:26.648010,6153284.0
09:43:26.688010,6154155.0
09:43:26.728010,6153484.0
09:43:26.768010,6153614.0
09:43:26.808010,6153700.0
09:43:26.848010,6155429.0
09:43:26.888010,6154430.0
09:43:26.928010,6153434.0
09:43:26.968010,6153313.0
09:43:27.008010,6154075.0
09:43:27.048010,6153924.0
09:43:27.088010,6153608.0
09:43:27.128010,6153267.0
09:43:27.168010,6151073.0
09:43:27.208010,6153946.0
09:43:27.248010,6153778.0
09:43:27.288010,6153672.0
09:43:27.328010,6153972.0
09:43:27.368010,6154593.0
09:43:27.408010,6154800.0
09:43:27.448010,6154881.0
09:43:27.488010,6153794.0
09:43:27.528010,6153995.0
09:43:27.568010,6153815.0
09:43:27.608010,6153896.0
09:43:27.648010,6153946.0
09:43:27.688010,6153705.0
09:43:27.728010,6153317.0
09:43:27.768010,6153514.0
09:43:27.808010,6153988.0
09:43:27.848010,6153823.0
09:43:27.888010,6153219.0
09:43:27.928010,6153451.0
09:43:27.968010,6153159.0
09:43:28.008010,6153846.0
09:43:28.048010,6153948.0
09:43:28.088010,6152865.0
09:43:28.068718,6153945.0
09:43:28.108718,6153341.0
09:43:28.148718,6153303.0
09:43:28.188718,6153384.0
09:43:28.228718,6154001.0
09:43:28.268718,6153697.0
09:43:28.308718,6153346.0
09:43:28.348718,6153412.0
09:43:28.388718,6156550.0
09:43:28.428718,6150728.0
09:43:28.468718,6153524.0
09:43:28.508718,6154002.0
09:43:28.548718,6153458.0
09:43:28.588718,6153640.0
09:43:28.628718,6153822.0
09:43:28.668718,6155218.0
09:43:28.708718,6154456.0
09:43:28.748718,6153765.0
09:43:28.788718,6153502.0
09:43:28.828718,6153161.0
09:43:28.868718,6153657.0
09:43:28.908718,6153557.0
09:43:28.948718,6153757.0
09:43:28.988718,6153467.0
09:43:29.028718,6153372.0
09:43:29.068718,6149623.0
09:43:29.108718,6154342.0
09:43:29.148718,6153877.0
09:43:29.188718,6153830.0
09:43:29.228718,6153524.0
09:43:29.268718,6154832.0
09:43:29.308718,6154917.0
09:43:29.348718,6154369.0
09:43:29.388718,6153383.0
09:43:29.428718,6154016.0
09:43:29.468718,6153788.0
09:43:29.508718,6153510.0
09:43:29.548718,6153589.0
09:43:29.588718,6153872.0
09:43:29.628718,6153585.0
09:43:29.668718,6153593.0
09:43:29.708718,6153876.0
09:43:29.748718,6150067.0
09:43:29.788718,6154163.0
09:43:29.828718,6153797.0
09:43:29.868718,6153264.0
09:43:29.908718,6153348.0
09:43:29.948718,6154695.0
09:43:29.988718,6154457.0
09:43:30.028718,6154408.0
09:43:30.068718,6153484.0
09:43:30.108718,6153708.0
09:43:30.148718,6153757.0
09:43:30.188718,6153773.0
09:43:30.228718,6153853.0
09:43:30.268718,6153969.0
09:43:30.308718,6153806.0
09:43:30.348718,6154065.0
09:43:30.388718,6153940.0
09:43:30.428718,6154393.0
09:43:30.468718,6153730.0
09:43:30.508718,6153733.0
09:43:30.548718,6153686.0
09:43:30.588718,6154363.0
09:43:30.628718,6153663.0
09:43:30.668718,6153359.0
09:43:30.708718,6153089.0
09:43:30.748718,6154049.0
09:43:30.788718,6153858.0
09:43:30.828718,6156048.0
09:43:30.868718,6151892.0
09:43:30.908718,6153765.0
09:43:30.948718,6153674.0
09:43:30.988718,6153841.0
09:43:31.028718,6153850.0
09:43:31.068718,6153950.0
09:43:31.108718,6154729.0
09:43:31.148718,6154315.0
09:43:31.188718,6153611.0
09:43:31.228718,6153220.0
09:43:31.268718,6153751.0
09:43:31.308718,6153902.0
09:43:31.348718,6153725.0
09:43:31.388718,6154708.0
09:43:31.428718,6150741.0
09:43:31.468718,6153935.0
09:43:31.508718,6153943.0
09:43:31.548718,6153860.0
09:43:31.588718,6153719.0
09:43:31.628718,6154504.0
09:43:31.668718,6155373.0
09:43:31.708718,6154972.0
09:43:31.748718,6153919.0
09:43:31.788718,6153834.0
09:43:31.828718,6154028.0
09:43:31.868718,6153486.0
09:43:31.908718,6153373.0
09:43:31.948718,6155344.0
09:43:31.988718,6153678.0
09:43:32.028718,6153890.0
09:43:31.709498,6153706.0
09:43:31.749498,6153543.0
09:43:31.789498,6153646.0
09:43:31.829498,6154945.0
09:43:31.869498,6153887.0
09:43:31.909498,6153857.0
09:43:31.949498,6155336.0
09:43:31.989498,6154983.0
09:43:32.029498,6153467.0
09:43:32.069498,6153226.0
09:43:32.109498,6154978.0
09:43:32.149498,6153777.0
09:43:32.189498,6153314.0
09:43:32.229498,6153709.0
09:43:32.269498,6155050.0
09:43:32.309498,6154133.0
09:43:32.349498,6149916.0
09:43:32.389498,6153427.0
09:43:32.429498,6155173.0
09:43:32.469498,6153741.0
09:43:32.509498,6153487.0
09:43:32.549498,6153806.0
09:43:32.589498,6155190.0
09:43:32.629498,6155326.0
09:43:32.669498,6154112.0
09:43:32.709498,6153900.0
09:43:32.749498,6153664.0
09:43:32.789498,6153499.0
09:43:32.829498,6153907.0
09:43:32.869498,6154009.0
09:43:32.909498,6153538.0
09:43:32.949498,6155695.0
09:43:32.989498,6151439.0
09:43:33.029498,6153975.0
09:43:33.069498,6153546.0
09:43:33.109498,6154589.0
09:43:33.149498,6154097.0
09:43:33.189498,6154238.0
09:43:33.229498,6154674.0
09:43:33.269498,6154764.0
09:43:33.309498,6154348.0
09:43:33.349498,6153849.0
09:43:33.389498,6153690.0
09:43:33.429498,6154105.0
09:43:33.469498,6154287.0
09:43:33.509498,6153919.0
09:43:33.549498,6153778.0
09:43:33.589498,6153678.0
09:43:33.629498,6153990.0
09:43:33.669498,6153989.0
09:43:33.709498,6153970.0
09:43:33.749498,6156447.0
09:43:33.789498,6150786.0
09:43:33.829498,6153922.0
09:43:33.869498,6153949.0
09:43:33.909498,6153948.0
09:43:33.949498,6154760.0
09:43:33.989498,6154591.0
09:43:34.029498,6154793.0
09:43:34.069498,6154618.0
09:43:34.109498,6154571.0
09:43:34.149498,6154030.0
09:43:34.189498,6153649.0
09:43:34.229498,6156659.0
09:43:34.269498,6152447.0
09:43:34.309498,6153943.0
09:43:34.349498,6154186.0
09:43:34.389498,6153915.0
09:43:34.429498,6154876.0
09:43:34.469498,6154025.0
09:43:34.509498,6154405.0
09:43:34.549498,6154823.0
09:43:34.589498,6154602.0
09:43:34.629498,6153599.0
09:43:34.669498,6154400.0
09:43:34.709498,6152531.0
09:43:34.749498,6154263.0
09:43:34.789498,6153597.0
09:43:34.829498,6153597.0
09:43:34.869498,6155390.0
09:43:34.909498,6155058.0
09:43:34.949498,6154900.0
09:43:34.989498,6154654.0
09:43:35.029498,6154789.0
09:43:35.069498,6154520.0
09:43:35.109498,6154652.0
09:43:35.149498,6154369.0
09:43:35.189498,6154358.0
09:43:35.229498,6154364.0
09:43:35.269498,6154772.0
09:43:35.309498,6154396.0
09:43:35.349498,6156894.0
09:43:35.389498,6151916.0
09:43:35.429498,6154207.0
09:43:35.469498,6154186.0
09:43:35.509498,6154210.0
09:43:35.549498,6154669.0
09:43:35.589498,6155065.0
09:43:35.629498,6155201.0
09:43:35.669498,6155082.0
09:43:40.108549,6154428.0
09:43:40.148549,6153947.0
09:43:40.188549,6154369.0
09:43:40.228549,6152849.0
09:43:40.268549,6153798.0
09:43:40.308549,6154004.0
09:43:40.348549,6154139.0
09:43:40.388549,6154825.0
09:43:40.428549,6155044.0
09:43:40.468549,6154558.0
09:43:40.508549,6155168.0
09:43:40.548549,6154836.0
09:43:40.588549,6154603.0
09:43:40.628549,6153718.0
09:43:40.668549,6154400.0
09:43:40.708549,6156529.0
09:43:40.748549,6150774.0
09:43:40.788549,6153819.0
09:43:40.828549,6154346.0
09:43:40.868549,6154488.0
09:43:40.908549,6153910.0
09:43:40.948549,6155045.0
09:43:40.988549,6155271.0
09:43:41.028549,6154873.0
09:43:41.068549,6153752.0
09:43:41.108549,6154153.0
09:43:41.148549,6154355.0
09:43:41.188549,6154238.0
09:43:41.228549,6154542.0
09:43:41.268549,6154577.0
09:43:41.308549,6154687.0
09:43:41.348549,6154497.0
09:43:41.388549,6154801.0
09:43:41.428549,6154636.0
09:43:41.468549,6154085.0
09:43:41.508549,6154503.0
09:43:41.548549,6155156.0
09:43:41.588549,6157574.0
09:43:41.628549,6151245.0
09:43:41.668549,6154833.0
09:43:41.708549,6155379.0
09:43:41.748549,6154515.0
09:43:41.788549,6154789.0
09:43:41.828549,6155540.0
09:43:41.868549,6155457.0
09:43:41.908549,6155810.0
09:43:41.948549,6155132.0
09:43:41.988549,6154487.0
09:43:42.028549,6154588.0
09:43:42.068549,6155180.0
09:43:42.108549,6154451.0
09:43:42.148549,6154380.0
09:43:42.188549,6155484.0
09:43:42.228549,6154798.0
09:43:42.268549,6154170.0
09:43:42.308549,6155151.0
09:43:42.348549,6151134.0
09:43:42.388549,6154516.0
09:43:42.428549,6154402.0
09:43:42.468549,6154762.0
09:43:42.508549,6154078.0
09:43:42.548549,6154918.0
09:43:42.588549,6155502.0
09:43:42.628549,6155145.0
09:43:42.668549,6154478.0
09:43:42.708549,6154652.0
09:43:42.748549,6154437.0
09:43:42.788549,6154090.0
09:43:42.828549,6154722.0
09:43:42.868549,6154866.0
09:43:42.908549,6156747.0
09:43:42.948549,6152657.0
09:43:42.988549,6154789.0
09:43:43.028549,6154886.0
09:43:43.068549,6154812.0
09:43:43.108549,6154245.0
09:43:43.148549,6154804.0
09:43:43.188549,6155577.0
09:43:43.228549,6154501.0
09:43:43.268549,6154101.0
09:43:43.308549,6154049.0
09:43:43.348549,6153961.0
09:43:43.388549,6153893.0
09:43:43.428549,6154004.0
09:43:43.468549,6154014.0
09:43:43.508549,6153400.0
09:43:43.548549,6153998.0
09:43:43.588549,6153923.0
09:43:43.628549,6154135.0
09:43:43.668549,6153566.0
09:43:43.708549,6156955.0
09:43:43.748549,6150884.0
09:43:43.788549,6153974.0
09:43:43.828549,6153752.0
09:43:43.868549,6154340.0
09:43:43.908549,6153894.0
09:43:43.948549,6153960.0
09:43:43.988549,6155482.0
09:43:44.028549,6154960.0
09:43:44.068549,6153301.0
09:43:44.404493,6153747.0
09:43:44.444493,6154638.0
09:43:44.484493,6158407.0
09:43:44.524493,6154489.0
09:43:44.564493,6156266.0
09:43:44.604493,6154549.0
09:43:44.644493,6153163.0
09:43:44.684493,6152870.0
09:43:44.724493,6153330.0
09:43:44.764493,6152183.0
09:43:44.804493,6153335.0
09:43:44.844493,6155054.0
09:43:44.884493,6154027.0
09:43:44.924493,6153782.0
09:43:44.964493,6154401.0
09:43:45.004493,6154667.0
09:43:45.044493,6154874.0
09:43:45.084493,6150880.0
09:43:45.124493,6154904.0
09:43:45.164493,6154095.0
09:43:45.204493,6154646.0
09:43:45.244493,6154664.0
09:43:45.284493,6154554.0
09:43:45.324493,6155540.0
09:43:45.364493,6155590.0
09:43:45.404493,6153987.0
09:43:45.444493,6154014.0
09:43:45.484493,6154707.0
09:43:45.524493,6154776.0
09:43:45.564493,6153635.0
09:43:45.604493,6154401.0
09:43:45.644493,6154376.0
09:43:45.684493,6154868.0
09:43:45.724493,6154055.0
09:43:45.764493,6154443.0
09:43:45.804493,6154131.0
09:43:45.844493,6154362.0
09:43:45.884493,6154363.0
09:43:45.924493,6150558.0
09:43:45.964493,6154600.0
09:43:46.004493,6154085.0
09:43:46.044493,6154325.0
09:43:46.084493,6154308.0
09:43:46.124493,6154604.0
09:43:46.164493,6154469.0
09:43:46.204493,6155507.0
09:43:46.244493,6154589.0
09:43:46.284493,6153354.0
09:43:46.324493,6154138.0
09:43:46.364493,6154847.0
09:43:46.404493,6153940.0
09:43:46.444493,6153788.0
09:43:46.484493,6154883.0
09:43:46.524493,6151428.0
09:43:46.564493,6153609.0
09:43:46.604493,6154554.0
09:43:46.644493,6155337.0
09:43:46.684493,6153877.0
09:43:46.724493,6154150.0
09:43:46.764493,6155746.0
09:43:46.804493,6155294.0
09:43:46.844493,6154063.0
09:43:46.884493,6154087.0
09:43:46.924493,6154771.0
09:43:46.964493,6154132.0
09:43:47.004493,6154017.0
09:43:47.044493,6154830.0
09:43:47.084493,6154286.0
09:43:47.124493,6154252.0
09:43:47.164493,6157114.0
09:43:47.204493,6151589.0
09:43:47.244493,6154218.0
09:43:47.284493,6154796.0
09:43:47.324493,6154896.0
09:43:47.364493,6153894.0
09:43:47.404493,6154656.0
09:43:47.444493,6155668.0
09:43:47.484493,6154520.0
09:43:47.524493,6153822.0
09:43:47.564493,6154381.0
09:43:47.604493,6153422.0
09:43:47.644493,6159875.0
09:43:47.684493,6154287.0
09:43:47.724493,6154460.0
09:43:47.764493,6153867.0
09:43:47.804493,6154035.0
09:43:47.844493,6152741.0
09:43:47.884493,6151906.0
09:43:47.924493,6153201.0
09:43:47.964493,6154278.0
09:43:48.004493,6153501.0
09:43:48.044493,6153995.0
09:43:48.084493,6154377.0
09:43:48.124493,6153916.0
09:43:48.164493,6153719.0
09:43:48.204493,6154114.0
09:43:48.244493,6153999.0
09:43:48.284493,6153784.0
09:43:48.324493,6153614.0
09:43:48.364493,6153077.0
09:43:48.913066,6153174.0
09:43:48.953066,6154776.0
09:43:48.993066,6154483.0
09:43:49.033066,6154664.0
09:43:49.073066,6153895.0
09:43:49.113066,6153160.0
09:43:49.153066,6153660.0
09:43:49.193066,6153448.0
09:43:49.233066,6153993.0
09:43:49.273066,6155742.0
09:43:49.313066,6152648.0
09:43:49.353066,6153839.0
09:43:49.393066,6154243.0
09:43:49.433066,6153651.0
09:43:49.473066,6154074.0
09:43:49.513066,6154691.0
09:43:49.553066,6154708.0
09:43:49.593066,6154180.0
09:43:49.633066,6154249.0
09:43:49.673066,6153617.0
09:43:49.713066,6153713.0
09:43:49.753066,6154166.0
09:43:49.793066,6154711.0
09:43:49.833066,6156664.0
09:43:49.873066,6151362.0
09:43:49.913066,6154342.0
09:43:49.953066,6154049.0
09:43:49.993066,6153401.0
09:43:50.033066,6154446.0
09:43:50.073066,6155399.0
09:43:50.113066,6154893.0
09:43:50.153066,6153993.0
09:43:50.193066,6153978.0
09:43:50.233066,6154185.0
09:43:50.273066,6153513.0
09:43:50.313066,6153780.0
09:43:50.353066,6154774.0
09:43:50.393066,6153871.0
09:43:50.433066,6153262.0
09:43:50.473066,6154039.0
09:43:50.513066,6154772.0
09:43:50.553066,6153722.0
09:43:50.593066,6154240.0
09:43:50.633066,6155676.0
09:43:50.673066,6155115.0
09:43:50.713066,6154488.0
09:43:50.753066,6154204.0
09:43:50.793066,6153946.0
09:43:50.833066,6154345.0
09:43:50.873066,6154494.0
09:43:50.913066,6154753.0
09:43:50.953066,6153944.0
09:43:50.993066,6151149.0
09:43:51.033066,6153972.0
09:43:51.073066,6154478.0
09:43:51.113066,6154080.0
09:43:51.153066,6154246.0
09:43:51.193066,6155220.0
09:43:51.233066,6154756.0
09:43:51.273066,6154914.0
09:43:51.313066,6154460.0
09:43:51.353066,6155213.0
09:43:51.393066,6153849.0
09:43:51.433066,6153540.0
09:43:51.473066,6154439.0
09:43:51.513066,6154818.0
09:43:51.553066,6154019.0
09:43:51.593066,6154162.0
09:43:51.633066,6150093.0
09:43:51.673066,6155115.0
09:43:51.713066,6154262.0
09:43:51.753066,6153911.0
09:43:51.793066,6154251.0
09:43:51.833066,6155528.0
09:43:51.873066,6155312.0
09:43:51.913066,6155002.0
09:43:51.953066,6154192.0
09:43:51.993066,6154255.0
09:43:52.033066,6155991.0
09:43:52.073066,6154481.0
09:43:52.113066,6154574.0
09:43:52.153066,6154616.0
09:43:52.193066,6155109.0
09:43:52.233066,6156216.0
09:43:52.273066,6152002.0
09:43:52.313066,6155120.0
09:43:52.353066,6155172.0
09:43:52.393066,6156921.0
09:43:52.433066,6156242.0
09:43:52.473066,6156445.0
09:43:52.513066,6156413.0
09:43:52.553066,6156575.0
09:43:52.593066,6157150.0
09:43:52.633066,6155587.0
09:43:52.673066,6154997.0
09:43:52.713066,6155041.0
09:43:52.753066,6156018.0
09:43:52.793066,6158254.0
09:43:52.833066,6152283.0
09:43:52.873066,6154464.0
09:43:53.214418,6154699.0
09:43:53.254418,6154100.0
09:43:53.294418,6155048.0
09:43:53.334418,6154733.0
09:43:53.374418,6154503.0
09:43:53.414418,6153998.0
09:43:53.454418,6154201.0
09:43:53.494418,6154673.0
09:43:53.534418,6157765.0
09:43:53.574418,6152582.0
09:43:53.614418,6154467.0
09:43:53.654418,6153883.0
09:43:53.694418,6156667.0
09:43:53.734418,6155662.0
09:43:53.774418,6155646.0
09:43:53.814418,6155419.0
09:43:53.854418,6154865.0
09:43:53.894418,6155707.0
09:43:53.934418,6155226.0
09:43:53.974418,6154614.0
09:43:54.014418,6154514.0
09:43:54.054418,6155975.0
09:43:54.094418,6155255.0
09:43:54.134418,6155090.0
09:43:54.174418,6155062.0
09:43:54.214418,6152208.0
09:43:54.254418,6154991.0
09:43:54.294418,6155169.0
09:43:54.334418,6154891.0
09:43:54.374418,6155663.0
09:43:54.414418,6155255.0
09:43:54.454418,6155725.0
09:43:54.494418,6155915.0
09:43:54.534418,6155633.0
09:43:54.574418,6154824.0
09:43:54.614418,6154917.0
09:43:54.654418,6154889.0
09:43:54.694418,6154327.0
09:43:54.734418,6152529.0
09:43:54.774418,6154580.0
09:43:54.814418,6154774.0
09:43:54.854418,6154447.0
09:43:54.894418,6154555.0
09:43:54.934418,6155399.0
09:43:54.974418,6156128.0
09:43:55.014418,6155680.0
09:43:55.054418,6153645.0
09:43:55.094418,6152991.0
09:43:55.134418,6152677.0
09:43:55.174418,6152171.0
09:43:55.214418,6152192.0
09:43:55.254418,6153209.0
09:43:55.294418,6153050.0
09:43:55.334418,6153208.0
09:43:55.374418,6153883.0
09:43:55.414418,6154206.0
09:43:55.454418,6154064.0
09:43:55.494418,6153417.0
09:43:55.534418,6153697.0
09:43:55.574418,6154795.0
09:43:55.614418,6154057.0
09:43:55.654418,6154114.0
09:43:55.694418,6150491.0
09:43:55.734418,6153532.0
09:43:55.774418,6154515.0
09:43:55.814418,6154113.0
09:43:55.854418,6154442.0
09:43:55.894418,6154795.0
09:43:55.934418,6155453.0
09:43:55.974418,6155101.0
09:43:56.014418,6154275.0
09:43:56.054418,6154252.0
09:43:56.094418,6154200.0
09:43:56.134418,6154047.0
09:43:56.174418,6154570.0
09:43:56.214418,6154694.0
09:43:56.254418,6154334.0
09:43:56.294418,6155000.0
09:43:56.334418,6154683.0
09:43:56.374418,6154581.0
09:43:56.414418,6154388.0
09:43:56.454418,6154062.0
09:43:56.494418,6155240.0
09:43:56.534418,6154636.0
09:43:56.574418,6154394.0
09:43:56.614418,6154224.0
09:43:56.654418,6151853.0
09:43:56.694418,6154362.0
09:43:56.734418,6154239.0
09:43:56.774418,6154274.0
09:43:56.814418,6154226.0
09:43:56.854418,6154820.0
09:43:56.894418,6155191.0
09:43:56.934418,6155041.0
09:43:56.974418,6154667.0
09:43:57.014418,6155039.0
09:43:57.054418,6154642.0
09:43:57.094418,6154372.0
09:43:57.134418,6154384.0
09:43:57.174418,6154214.0
09:43:57.462639,6154733.0
09:43:57.502639,6155866.0
09:43:57.542639,6154882.0
09:43:57.582639,6154495.0
09:43:57.622639,6154220.0
09:43:57.662639,6154357.0
09:43:57.702639,6154531.0
09:43:57.742639,6154355.0
09:43:57.782639,6154705.0
09:43:57.822639,6154179.0
09:43:57.862639,6150838.0
09:43:57.902639,6154549.0
09:43:57.942639,6154182.0
09:43:57.982639,6154143.0
09:43:58.022639,6154287.0
09:43:58.062639,6154677.0
09:43:58.102639,6155119.0
09:43:58.142639,6155415.0
09:43:58.182639,6154584.0
09:43:58.222639,6154577.0
09:43:58.262639,6153832.0
09:43:58.302639,6154135.0
09:43:58.342639,6153854.0
09:43:58.382639,6154217.0
09:43:58.422639,6157362.0
09:43:58.462639,6151896.0
09:43:58.502639,6154130.0
09:43:58.542639,6154455.0
09:43:58.582639,6154057.0
09:43:58.622639,6154208.0
09:43:58.662639,6154769.0
09:43:58.702639,6155690.0
09:43:58.742639,6154890.0
09:43:58.782639,6154289.0
09:43:58.822639,6154111.0
09:43:58.862639,6154956.0
09:43:58.902639,6154266.0
09:43:58.942639,6154212.0
09:43:58.982639,6153941.0
09:43:59.022639,6155482.0
09:43:59.062639,6154527.0
09:43:59.102639,6154381.0
09:43:59.142639,6154024.0
09:43:59.182639,6157034.0
09:43:59.222639,6151511.0
09:43:59.262639,6154281.0
09:43:59.302639,6154047.0
09:43:59.342639,6154120.0
09:43:59.382639,6154678.0
09:43:59.422639,6155169.0
09:43:59.462639,6155725.0
09:43:59.502639,6155216.0
09:43:59.542639,6154708.0
09:43:59.582639,6154439.0
09:43:59.622639,6153794.0
09:43:59.662639,6154705.0
09:43:59.702639,6154854.0
09:43:59.742639,6153774.0
09:43:59.782639,6154364.0
09:43:59.822639,6154604.0
09:43:59.862639,6154719.0
09:43:59.902639,6154950.0
09:43:59.942639,6151308.0
09:43:59.982639,6154633.0
09:44:00.022639,6154741.0
09:44:00.062639,6154785.0
09:44:00.102639,6154423.0
09:44:00.142639,6154786.0
09:44:00.182639,6155375.0
09:44:00.222639,6155775.0
09:44:00.262639,6154803.0
09:44:00.302639,6154689.0
09:44:00.342639,6154158.0
09:44:00.382639,6154520.0
09:44:00.422639,6154475.0
09:44:00.462639,6150978.0
09:44:00.502639,6154167.0
09:44:00.542639,6154941.0
09:44:00.582639,6154604.0
09:44:00.622639,6154568.0
09:44:00.662639,6154364.0
09:44:00.702639,6155804.0
09:44:00.742639,6155547.0
09:44:00.782639,6154761.0
09:44:00.822639,6154011.0
09:44:00.862639,6154784.0
09:44:00.902639,6154538.0
09:44:00.942639,6157136.0
09:44:00.982639,6151565.0
09:44:01.022639,6154861.0
09:44:01.062639,6154343.0
09:44:01.102639,6153919.0
09:44:01.142639,6154894.0
09:44:01.182639,6155527.0
09:44:01.222639,6154695.0
09:44:01.262639,6154655.0
09:44:01.302639,6154675.0
09:44:01.342639,6154341.0
09:44:01.382639,6157283.0
09:44:01.422639,6153797.0
09:44:01.812395,6154488.0
09:44:01.852395,6153964.0
09:44:01.892395,6155369.0
09:44:01.932395,6154499.0
09:44:01.972395,6155883.0
09:44:02.012395,6151289.0
09:44:02.052395,6155132.0
09:44:02.092395,6154565.0
09:44:02.132395,6154689.0
09:44:02.172395,6154821.0
09:44:02.212395,6155638.0
09:44:02.252395,6155610.0
09:44:02.292395,6154971.0
09:44:02.332395,6154445.0
09:44:02.372395,6154798.0
09:44:02.412395,6154744.0
09:44:02.452395,6154232.0
09:44:02.492395,6154403.0
09:44:02.532395,6154802.0
09:44:02.572395,6155114.0
09:44:02.612395,6154427.0
09:44:02.652395,6154547.0
09:44:02.692395,6154000.0
09:44:02.732395,6158029.0
09:44:02.772395,6152586.0
09:44:02.812395,6154915.0
09:44:02.852395,6153937.0
09:44:02.892395,6154804.0
09:44:02.932395,6154714.0
09:44:02.972395,6155480.0
09:44:03.012395,6155540.0
09:44:03.052395,6155188.0
09:44:03.092395,6154682.0
09:44:03.132395,6154679.0
09:44:03.172395,6154545.0
09:44:03.212395,6154726.0
09:44:03.252395,6154700.0
09:44:03.292395,6154311.0
09:44:03.332395,6154662.0
09:44:03.372395,6154720.0
09:44:03.412395,6154760.0
09:44:03.452395,6151155.0
09:44:03.492395,6154533.0
09:44:03.532395,6154797.0
09:44:03.572395,6154709.0
09:44:03.612395,6154409.0
09:44:03.652395,6155063.0
09:44:03.692395,6155449.0
09:44:03.732395,6154938.0
09:44:03.772395,6155139.0
09:44:03.812395,6154771.0
09:44:03.852395,6154311.0
09:44:03.892395,6153726.0
09:44:03.932395,6154825.0
09:44:03.972395,6155468.0
09:44:04.012395,6150765.0
09:44:04.052395,6154325.0
09:44:04.092395,6154726.0
09:44:04.132395,6154399.0
09:44:04.172395,6153786.0
09:44:04.212395,6154615.0
09:44:04.252395,6155418.0
09:44:04.292395,6154314.0
09:44:04.332395,6154367.0
09:44:04.372395,6153941.0
09:44:04.412395,6153676.0
09:44:04.452395,6154194.0
09:44:04.492395,6154165.0
09:44:04.532395,6154984.0
09:44:04.572395,6150893.0
09:44:04.612395,6153634.0
09:44:04.652395,6154744.0
09:44:04.692395,6155005.0
09:44:04.732395,6153954.0
09:44:04.772395,6154292.0
09:44:04.812395,6156054.0
09:44:04.852395,6155702.0
09:44:04.892395,6153882.0
09:44:04.932395,6154308.0
09:44:04.972395,6155158.0
09:44:05.012395,6154774.0
09:44:05.052395,6155799.0
09:44:05.092395,6153592.0
09:44:05.132395,6155011.0
09:44:05.172395,6154079.0
09:44:05.212395,6154700.0
09:44:05.252395,6155254.0
09:44:05.292395,6156068.0
09:44:05.332395,6154613.0
09:44:05.372395,6154577.0
09:44:05.412395,6154693.0
09:44:05.452395,6154788.0
09:44:05.492395,6153855.0
09:44:05.532395,6153924.0
09:44:05.572395,6154855.0
09:44:05.612395,6154586.0
09:44:05.652395,6153821.0
09:44:05.692395,6154388.0
09:44:05.732395,6157573.0
09:44:05.772395,6152320.0
09:44:06.323312,6153748.0
09:44:06.363312,6154053.0
09:44:06.403312,6153759.0
09:44:06.443312,6154126.0
09:44:06.483312,6154776.0
09:44:06.523312,6156708.0
09:44:06.563312,6152823.0
09:44:06.603312,6154034.0
09:44:06.643312,6154544.0
09:44:06.683312,6153949.0
09:44:06.723312,6153964.0
09:44:06.763312,6154635.0
09:44:06.803312,6155095.0
09:44:06.843312,6154470.0
09:44:06.883312,6154680.0
09:44:06.923312,6154338.0
09:44:06.963312,6154057.0
09:44:07.003312,6154799.0
09:44:07.043312,6154335.0
09:44:07.083312,6153650.0
09:44:07.123312,6154197.0
09:44:07.163312,6155198.0
09:44:07.203312,6154778.0
09:44:07.243312,6152691.0
09:44:07.283312,6153776.0
09:44:07.323312,6155340.0
09:44:07.363312,6154400.0
09:44:07.403312,6153931.0
09:44:07.443312,6155613.0
09:44:07.483312,6155777.0
09:44:07.523312,6155069.0
09:44:07.563312,6154766.0
09:44:07.603312,6155424.0
09:44:07.643312,6154127.0
09:44:07.683312,6154266.0
09:44:07.723312,6154988.0
09:44:07.763312,6155265.0
09:44:07.803312,6157642.0
09:44:07.843312,6152084.0
09:44:07.883312,6155505.0
09:44:07.923312,6155116.0
09:44:07.963312,6155043.0
09:44:08.003312,6154720.0
09:44:08.043312,6155172.0
09:44:08.083312,6157491.0
09:44:08.123312,6154905.0
09:44:08.163312,6154096.0
09:44:08.203312,6154069.0
09:44:08.243312,6154526.0
09:44:08.283312,6155715.0
09:44:08.323312,6157584.0
09:44:08.363312,6152834.0
09:44:08.403312,6154874.0
09:44:08.443312,6154560.0
09:44:08.483312,6154822.0
09:44:08.523312,6155320.0
09:44:08.563312,6156335.0
09:44:08.603312,6155529.0
09:44:08.643312,6154846.0
09:44:08.683312,6155296.0
09:44:08.723312,6154416.0
09:44:08.763312,6154353.0
09:44:08.803312,6154605.0
09:44:08.843312,6155067.0
09:44:08.883312,6156190.0
09:44:08.923312,6154073.0
09:44:08.963312,6153953.0
09:44:09.003312,6154763.0
09:44:09.043312,6155133.0
09:44:09.083312,6154448.0
09:44:09.123312,6154373.0
09:44:09.163312,6151290.0
09:44:09.203312,6155757.0
09:44:09.243312,6154230.0
09:44:09.283312,6153973.0
09:44:09.323312,6154988.0
09:44:09.363312,6155851.0
09:44:09.403312,6155027.0
09:44:09.443312,6155211.0
09:44:09.483312,6155439.0
09:44:09.523312,6155157.0
09:44:09.563312,6154309.0
09:44:09.603312,6154723.0
09:44:09.643312,6155331.0
09:44:09.683312,6155028.0
09:44:09.723312,6154861.0
09:44:09.763312,6154810.0
09:44:09.803312,6155680.0
09:44:09.843312,6156857.0
09:44:09.883312,6152200.0
09:44:09.923312,6154738.0
09:44:09.963312,6155639.0
09:44:10.003312,6154611.0
09:44:10.043312,6154873.0
09:44:10.083312,6155385.0
09:44:10.123312,6156277.0
09:44:10.163312,6155260.0
09:44:10.203312,6154932.0
09:44:10.243312,6155468.0
09:44:10.283312,6155447.0
09:44:11.850102,6154693.0
09:44:11.890102,6155217.0
09:44:11.930102,6155025.0
09:44:11.970102,6155324.0
09:44:12.010102,6155948.0
09:44:12.050102,6155796.0
09:44:12.090102,6155087.0
09:44:12.130102,6154427.0
09:44:12.170102,6154671.0
09:44:12.210102,6154958.0
09:44:12.250102,6155007.0
09:44:12.290102,6157755.0
09:44:12.330102,6153172.0
09:44:12.370102,6154699.0
09:44:12.410102,6156683.0
09:44:12.450102,6155132.0
09:44:12.490102,6154916.0
09:44:12.530102,6155645.0
09:44:12.570102,6157796.0
09:44:12.610102,6155584.0
09:44:12.650102,6154835.0
09:44:12.690102,6154593.0
09:44:12.730102,6155734.0
09:44:12.770102,6155294.0
09:44:12.810102,6155205.0
09:44:12.850102,6155019.0
09:44:12.890102,6155065.0
09:44:12.930102,6157032.0
09:44:12.970102,6152479.0
09:44:13.010102,6154843.0
09:44:13.050102,6155146.0
09:44:13.090102,6155356.0
09:44:13.130102,6155310.0
09:44:13.170102,6155268.0
09:44:13.210102,6155816.0
09:44:13.250102,6156314.0
09:44:13.290102,6155329.0
09:44:13.330102,6154957.0
09:44:13.370102,6154820.0
09:44:13.410102,6154873.0
09:44:13.450102,6155163.0
09:44:13.490102,6155095.0
09:44:13.530102,6153938.0
09:44:13.570102,6154697.0
09:44:13.610102,6155998.0
09:44:13.650102,6155022.0
09:44:13.690102,6154903.0
09:44:13.730102,6155132.0
09:44:13.770102,6156624.0
09:44:13.810102,6155867.0
09:44:13.850102,6155171.0
09:44:13.890102,6155614.0
09:44:13.930102,6155347.0
09:44:13.970102,6154563.0
09:44:14.010102,6154398.0
09:44:14.050102,6155751.0
09:44:14.090102,6155479.0
09:44:14.130102,6157599.0
09:44:14.170102,6152890.0
09:44:14.210102,6155412.0
09:44:14.250102,6155577.0
09:44:14.290102,6154901.0
09:44:14.330102,6154813.0
09:44:14.370102,6156174.0
09:44:14.410102,6156108.0
09:44:14.450102,6154789.0
09:44:14.490102,6154612.0
09:44:14.530102,6156092.0
09:44:14.570102,6154760.0
09:44:14.610102,6154558.0
09:44:14.650102,6154846.0
09:44:14.690102,6155914.0
09:44:14.730102,6154996.0
09:44:14.770102,6154499.0
09:44:14.810102,6154807.0
09:44:14.850102,6154857.0
09:44:14.890102,6155275.0
09:44:14.930102,6154987.0
09:44:14.970102,6155242.0
09:44:15.010102,6155033.0
09:44:15.050102,6154976.0
09:44:15.090102,6155030.0
09:44:15.130102,6155619.0
09:44:15.170102,6151609.0
09:44:15.210102,6154976.0
09:44:15.250102,6155142.0
09:44:15.290102,6156171.0
09:44:15.330102,6155414.0
09:44:15.370102,6155316.0
09:44:15.410102,6156086.0
09:44:15.450102,6155841.0
09:44:15.490102,6155605.0
09:44:15.530102,6155452.0
09:44:15.570102,6155037.0
09:44:15.610102,6155394.0
09:44:15.650102,6156043.0
09:44:15.690102,6155226.0
09:44:15.730102,6155934.0
09:44:15.770102,6153001.0
09:44:15.810102,6155704.0
09:44:17.791797,6154525.0
09:44:17.831797,6155545.0
09:44:17.871797,6155924.0
09:44:17.911797,6157215.0
09:44:17.951797,6156762.0
09:44:17.991797,6155618.0
09:44:18.031797,6155509.0
09:44:18.071797,6156612.0
09:44:18.111797,6155752.0
09:44:18.151797,6155238.0
09:44:18.191797,6155046.0
09:44:18.231797,6155856.0
09:44:18.271797,6156004.0
09:44:18.311797,6152385.0
09:44:18.351797,6154716.0
09:44:18.391797,6156214.0
09:44:18.431797,6155660.0
09:44:18.471797,6155331.0
09:44:18.511797,6155934.0
09:44:18.551797,6157363.0
09:44:18.591797,6156569.0
09:44:18.631797,6155648.0
09:44:18.671797,6156018.0
09:44:18.711797,6156296.0
09:44:18.751797,6154941.0
09:44:18.791797,6155312.0
09:44:18.831797,6156643.0
09:44:18.871797,6155614.0
09:44:18.911797,6154907.0
09:44:18.951797,6157996.0
09:44:18.991797,6153963.0
09:44:19.031797,6155669.0
09:44:19.071797,6154719.0
09:44:19.111797,6155738.0
09:44:19.151797,6156803.0
09:44:19.191797,6155838.0
09:44:19.231797,6155959.0
09:44:19.271797,6156531.0
09:44:19.311797,6155508.0
09:44:19.351797,6155023.0
09:44:19.391797,6155418.0
09:44:19.431797,6156045.0
09:44:19.471797,6154960.0
09:44:19.511797,6157866.0
09:44:19.551797,6153058.0
09:44:19.591797,6156494.0
09:44:19.631797,6155056.0
09:44:19.671797,6155151.0
09:44:19.711797,6156685.0
09:44:19.751797,6156183.0
09:44:19.791797,6156602.0
09:44:19.831797,6156172.0
09:44:19.871797,6156143.0
09:44:19.911797,6155596.0
09:44:19.951797,6155174.0
09:44:19.991797,6155365.0
09:44:20.031797,6155410.0
09:44:20.071797,6155900.0
09:44:20.111797,6155985.0
09:44:20.151797,6156465.0
09:44:20.191797,6156467.0
09:44:20.231797,6156655.0
09:44:20.271797,6156083.0
09:44:20.311797,6156226.0
09:44:20.351797,6157073.0
09:44:20.391797,6153658.0
09:44:20.431797,6155883.0
09:44:20.471797,6155677.0
09:44:20.511797,6155691.0
09:44:20.551797,6156627.0
09:44:20.591797,6157016.0
09:44:20.631797,6156042.0
09:44:20.671797,6156380.0
09:44:20.711797,6156432.0
09:44:20.751797,6156299.0
09:44:20.791797,6157711.0
09:44:20.831797,6155341.0
09:44:20.871797,6155645.0
09:44:20.911797,6155610.0
09:44:20.951797,6156751.0
09:44:20.991797,6156383.0
09:44:21.031797,6156540.0
09:44:21.071797,6156312.0
09:44:21.111797,6156100.0
09:44:21.151797,6155979.0
09:44:21.191797,6156132.0
09:44:21.231797,6156303.0
09:44:21.271797,6156273.0
09:44:21.311797,6156232.0
09:44:21.351797,6156055.0
09:44:21.391797,6155764.0
09:44:21.431797,6156027.0
09:44:21.471797,6155808.0
09:44:21.511797,6155733.0
09:44:21.551797,6155573.0
09:44:21.591797,6156530.0
09:44:21.631797,6154836.0
09:44:21.671797,6154870.0
09:44:21.711797,6155629.0
09:44:21.751797,6155465.0
09:44:21.883841,6155989.0
09:44:21.923841,6155262.0
09:44:21.963841,6155881.0
09:44:22.003841,6155591.0
09:44:22.043841,6155356.0
09:44:22.083841,6155711.0
09:44:22.123841,6155711.0
09:44:22.163841,6155588.0
09:44:22.203841,6155429.0
09:44:22.243841,6156297.0
09:44:22.283841,6155679.0
09:44:22.323841,6156434.0
09:44:22.363841,6152421.0
09:44:22.403841,6155763.0
09:44:22.443841,6155598.0
09:44:22.483841,6155371.0
09:44:22.523841,6155362.0
09:44:22.563841,6155941.0
09:44:22.603841,6156241.0
09:44:22.643841,6156328.0
09:44:22.683841,6155358.0
09:44:22.723841,6155684.0
09:44:22.763841,6155237.0
09:44:22.803841,6155032.0
09:44:22.843841,6158969.0
09:44:22.883841,6154366.0
09:44:22.923841,6154601.0
09:44:22.963841,6155391.0
09:44:23.003841,6155975.0
09:44:23.043841,6156016.0
09:44:23.083841,6155166.0
09:44:23.123841,6156466.0
09:44:23.163841,6156126.0
09:44:23.203841,6154411.0
09:44:23.243841,6154962.0
09:44:23.283841,6155939.0
09:44:23.323841,6155715.0
09:44:23.363841,6155676.0
09:44:23.403841,6155481.0
09:44:23.443841,6155403.0
09:44:23.483841,6155160.0
09:44:23.523841,6155645.0
09:44:23.563841,6155550.0
09:44:23.603841,6156106.0
09:44:23.643841,6163940.0
09:44:23.683841,6155769.0
09:44:23.723841,6154903.0
09:44:23.763841,6154817.0
09:44:23.803841,6154077.0
09:44:23.843841,6152894.0
09:44:23.883841,6153412.0
09:44:23.923841,6153727.0
09:44:23.963841,6154854.0
09:44:24.003841,6155336.0
09:44:24.043841,6155733.0
09:44:24.083841,6154650.0
09:44:24.123841,6154535.0
09:44:24.163841,6156100.0
09:44:24.203841,6152988.0
09:44:24.243841,6155134.0
09:44:24.283841,6156084.0
09:44:24.323841,6155537.0
09:44:24.363841,6154386.0
09:44:24.403841,6155208.0
09:44:24.443841,6157035.0
09:44:24.483841,6156042.0
09:44:24.523841,6155281.0
09:44:24.563841,6155945.0
09:44:24.603841,6155306.0
09:44:24.643841,6155069.0
09:44:24.683841,6155941.0
09:44:24.723841,6155350.0
09:44:24.763841,6155171.0
09:44:24.803841,6155234.0
09:44:24.843841,6155649.0
09:44:24.883841,6155039.0
09:44:24.923841,6155199.0
09:44:24.963841,6155122.0
09:44:25.003841,6157931.0
09:44:25.043841,6152863.0
09:44:25.083841,6155024.0
09:44:25.123841,6154996.0
09:44:25.163841,6155422.0
09:44:25.203841,6156044.0
09:44:25.243841,6155108.0
09:44:25.283841,6155702.0
09:44:25.323841,6156324.0
09:44:25.363841,6155434.0
09:44:25.403841,6154459.0
09:44:25.443841,6155112.0
09:44:25.483841,6155845.0
09:44:25.523841,6156286.0
09:44:25.563841,6152383.0
09:44:25.603841,6155300.0
09:44:25.643841,6155260.0
09:44:25.683841,6155150.0
09:44:25.723841,6155971.0
09:44:25.763841,6155511.0
09:44:25.803841,6155519.0
09:44:25.843841,6155545.0
09:44:26.390360,6156151.0
09:44:26.430360,6155005.0
09:44:26.470360,6155456.0
09:44:26.510360,6155945.0
09:44:26.550360,6155606.0
09:44:26.590360,6155471.0
09:44:26.630360,6155004.0
09:44:26.670360,6156295.0
09:44:26.710360,6154957.0
09:44:26.750360,6156255.0
09:44:26.790360,6153979.0
09:44:26.830360,6156575.0
09:44:26.870360,6155049.0
09:44:26.910360,6154993.0
09:44:26.950360,6154758.0
09:44:26.990360,6156211.0
09:44:27.030360,6155793.0
09:44:27.070360,6155026.0
09:44:27.110360,6155052.0
09:44:27.150360,6155536.0
09:44:27.190360,6155363.0
09:44:27.230360,6158454.0
09:44:27.270360,6152084.0
09:44:27.310360,6155057.0
09:44:27.350360,6155733.0
09:44:27.390360,6155605.0
09:44:27.430360,6154883.0
09:44:27.470360,6156479.0
09:44:27.510360,6157187.0
09:44:27.550360,6155586.0
09:44:27.590360,6155352.0
09:44:27.630360,6156076.0
09:44:27.670360,6155283.0
09:44:27.710360,6154991.0
09:44:27.750360,6155689.0
09:44:27.790360,6155830.0
09:44:27.830360,6155402.0
09:44:27.870360,6155065.0
09:44:27.910360,6155199.0
09:44:27.950360,6153629.0
09:44:27.990360,6154591.0
09:44:28.030360,6155042.0
09:44:28.070360,6155234.0
09:44:28.110360,6155713.0
09:44:28.150360,6155898.0
09:44:28.190360,6156168.0
09:44:28.230360,6156491.0
09:44:28.270360,6155420.0
09:44:28.310360,6155162.0
09:44:28.350360,6155331.0
09:44:28.390360,6155907.0
09:44:28.430360,6155143.0
09:44:28.470360,6155000.0
09:44:28.510360,6153745.0
09:44:28.550360,6155795.0
09:44:28.590360,6154643.0
09:44:28.630360,6154761.0
09:44:28.670360,6156372.0
09:44:28.710360,6156099.0
09:44:28.750360,6155577.0
09:44:28.790360,6156129.0
09:44:28.830360,6156631.0
09:44:28.870360,6154949.0
09:44:28.910360,6154709.0
09:44:28.950360,6155620.0
09:44:28.990360,6156352.0
09:44:29.030360,6155179.0
09:44:29.070360,6154715.0
09:44:29.110360,6155169.0
09:44:29.150360,6157980.0
09:44:29.190360,6152559.0
09:44:29.230360,6154928.0
09:44:29.270360,6154716.0
09:44:29.310360,6156066.0
09:44:29.350360,6156103.0
09:44:29.390360,6155646.0
09:44:29.430360,6155929.0
09:44:29.470360,6156623.0
09:44:29.510360,6156090.0
09:44:29.550360,6155624.0
09:44:29.590360,6155497.0
09:44:29.630360,6155949.0
09:44:29.670360,6155500.0
09:44:29.710360,6155519.0
09:44:29.750360,6155235.0
09:44:29.790360,6152660.0
09:44:29.830360,6156472.0
09:44:29.870360,6155450.0
09:44:29.910360,6155366.0
09:44:29.950360,6155693.0
09:44:29.990360,6156612.0
09:44:30.030360,6156043.0
09:44:30.070360,6156151.0
09:44:30.110360,6155790.0
09:44:30.150360,6155799.0
09:44:30.190360,6155360.0
09:44:30.230360,6155179.0
09:44:30.270360,6156059.0
09:44:30.310360,6155596.0
09:44:30.350360,6155045.0
09:44:30.898212,6155488.0
09:44:30.938212,6155876.0
09:44:30.978212,6156396.0
09:44:31.018212,6155419.0
09:44:31.058212,6155308.0
09:44:31.098212,6156100.0
09:44:31.138212,6152933.0
09:44:31.178212,6155073.0
09:44:31.218212,6155605.0
09:44:31.258212,6156196.0
09:44:31.298212,6155480.0
09:44:31.338212,6155624.0
09:44:31.378212,6156953.0
09:44:31.418212,6157071.0
09:44:31.458212,6155363.0
09:44:31.498212,6155126.0
09:44:31.538212,6156148.0
09:44:31.578212,6156102.0
09:44:31.618212,6155499.0
09:44:31.658212,6155472.0
09:44:31.698212,6155675.0
09:44:31.738212,6156066.0
09:44:31.778212,6158203.0
09:44:31.818212,6153420.0
09:44:31.858212,6155733.0
09:44:31.898212,6155643.0
09:44:31.938212,6155180.0
09:44:31.978212,6155789.0
09:44:32.018212,6156738.0
09:44:32.058212,6156133.0
09:44:32.098212,6155801.0
09:44:32.138212,6156364.0
09:44:32.178212,6155152.0
09:44:32.218212,6155313.0
09:44:32.258212,6155717.0
09:44:32.298212,6155908.0
09:44:32.338212,6153509.0
09:44:32.378212,6155099.0
09:44:32.418212,6155902.0
09:44:32.458212,6156028.0
09:44:32.498212,6155082.0
09:44:32.538212,6155531.0
09:44:32.578212,6156854.0
09:44:32.618212,6156380.0
09:44:32.658212,6155512.0
09:44:32.698212,6155568.0
09:44:32.738212,6155947.0
09:44:32.778212,6154868.0
09:44:32.818212,6155161.0
09:44:32.858212,6156063.0
09:44:32.898212,6156034.0
09:44:32.938212,6158335.0
09:44:32.978212,6152548.0
09:44:33.018212,6156116.0
09:44:33.058212,6155475.0
09:44:33.098212,6155344.0
09:44:33.138212,6155821.0
09:44:33.178212,6156680.0
09:44:33.218212,6156625.0
09:44:33.258212,6156074.0
09:44:33.298212,6156405.0
09:44:33.338212,6156400.0
09:44:33.378212,6155084.0
09:44:33.418212,6155454.0
09:44:33.458212,6155935.0
09:44:33.498212,6156453.0
09:44:33.538212,6154915.0
09:44:33.578212,6155434.0
09:44:33.618212,6156210.0
09:44:33.658212,6155968.0
09:44:33.698212,6157913.0
09:44:33.738212,6153371.0
09:44:33.778212,6156260.0
09:44:33.818212,6155842.0
09:44:33.858212,6156027.0
09:44:33.898212,6155875.0
09:44:33.938212,6157510.0
09:44:33.978212,6156836.0
09:44:34.018212,6156092.0
09:44:34.058212,6155361.0
09:44:34.098212,6156619.0
09:44:34.138212,6156000.0
09:44:34.178212,6156143.0
09:44:34.218212,6155635.0
09:44:34.258212,6156243.0
09:44:34.298212,6156157.0
09:44:34.338212,6155806.0
09:44:34.378212,6155098.0
09:44:34.418212,6154984.0
09:44:34.458212,6157038.0
09:44:34.498212,6153696.0
09:44:34.538212,6155438.0
09:44:34.578212,6155360.0
09:44:34.618212,6155942.0
09:44:34.658212,6156131.0
09:44:34.698212,6155975.0
09:44:34.738212,6156324.0
09:44:34.778212,6156826.0
09:44:34.818212,6156110.0
09:44:34.858212,6155813.0
09:44:35.197522,6155725.0
09:44:35.237522,6155083.0
09:44:35.277522,6155114.0
09:44:35.317522,6157285.0
09:44:35.357522,6152285.0
09:44:35.397522,6155256.0
09:44:35.437522,6155530.0
09:44:35.477522,6156325.0
09:44:35.517522,6155353.0
09:44:35.557522,6155225.0
09:44:35.597522,6156185.0
09:44:35.637522,6156840.0
09:44:35.677522,6154888.0
09:44:35.717522,6155277.0
09:44:35.757522,6156252.0
09:44:35.797522,6155328.0
09:44:35.837522,6154607.0
09:44:35.877522,6157804.0
09:44:35.917522,6154905.0
09:44:35.957522,6155275.0
09:44:35.997522,6154869.0
09:44:36.037522,6155886.0
09:44:36.077522,6155973.0
09:44:36.117522,6155728.0
09:44:36.157522,6155738.0
09:44:36.197522,6156279.0
09:44:36.237522,6155970.0
09:44:36.277522,6155319.0
09:44:36.317522,6154988.0
09:44:36.357522,6156155.0
09:44:36.397522,6156222.0
09:44:36.437522,6155630.0
09:44:36.477522,6155378.0
09:44:36.517522,6156117.0
09:44:36.557522,6155900.0
09:44:36.597522,6155503.0
09:44:36.637522,6155806.0
09:44:36.677522,6158843.0
09:44:36.717522,6165264.0
09:44:36.757522,6157322.0
09:44:36.797522,6154957.0
09:44:36.837522,6153685.0
09:44:36.877522,6154038.0
09:44:36.917522,6152785.0
09:44:36.957522,6151391.0
09:44:36.997522,6152694.0
09:44:37.037522,6155045.0
09:44:37.077522,6155710.0
09:44:37.117522,6155494.0
09:44:37.157522,6156785.0
09:44:37.197522,6155427.0
09:44:37.237522,6155276.0
09:44:37.277522,6155432.0
09:44:37.317522,6156976.0
09:44:37.357522,6155919.0
09:44:37.397522,6155527.0
09:44:37.437522,6155704.0
09:44:37.477522,6156118.0
09:44:37.517522,6155653.0
09:44:37.557522,6155748.0
09:44:37.597522,6155876.0
09:44:37.637522,6156058.0
09:44:37.677522,6155798.0
09:44:37.717522,6157599.0
09:44:37.757522,6154533.0
09:44:37.797522,6157606.0
09:44:37.837522,6155555.0
09:44:37.877522,6155309.0
09:44:37.917522,6155566.0
09:44:37.957522,6156831.0
09:44:37.997522,6157304.0
09:44:38.037522,6156251.0
09:44:38.077522,6155304.0
09:44:38.117522,6154968.0
09:44:38.157522,6156583.0
09:44:38.197522,6156078.0
09:44:38.237522,6156004.0
09:44:38.277522,6158071.0
09:44:38.317522,6152937.0
09:44:38.357522,6155924.0
09:44:38.397522,6155987.0
09:44:38.437522,6155958.0
09:44:38.477522,6155856.0
09:44:38.517522,6156286.0
09:44:38.557522,6157133.0
09:44:38.597522,6157105.0
09:44:38.637522,6155918.0
09:44:38.677522,6155727.0
09:44:38.717522,6156454.0
09:44:38.757522,6155822.0
09:44:38.797522,6155825.0
09:44:38.837522,6152027.0
09:44:38.877522,6156801.0
09:44:38.917522,6155972.0
09:44:38.957522,6155976.0
09:44:38.997522,6155992.0
09:44:39.037522,6156134.0
09:44:39.077522,6156548.0
09:44:39.117522,6156467.0
09:44:39.157522,6155889.0
09:44:39.602636,6155394.0
09:44:39.642636,6155305.0
09:44:39.682636,6155684.0
09:44:39.722636,6152414.0
09:44:39.762636,6155019.0
09:44:39.802636,6155511.0
09:44:39.842636,6155604.0
09:44:39.882636,6155775.0
09:44:39.922636,6155936.0
09:44:39.962636,6156622.0
09:44:40.002636,6156906.0
09:44:40.042636,6155807.0
09:44:40.082636,6155240.0
09:44:40.122636,6155971.0
09:44:40.162636,6155909.0
09:44:40.202636,6155782.0
09:44:40.242636,6155753.0
09:44:40.282636,6155868.0
09:44:40.322636,6157291.0
09:44:40.362636,6154863.0
09:44:40.402636,6155641.0
09:44:40.442636,6155534.0
09:44:40.482636,6155865.0
09:44:40.522636,6156083.0
09:44:40.562636,6156699.0
09:44:40.602636,6156765.0
09:44:40.642636,6157161.0
09:44:40.682636,6155704.0
09:44:40.722636,6155614.0
09:44:40.762636,6155340.0
09:44:40.802636,6156449.0
09:44:40.842636,6155753.0
09:44:40.882636,6155933.0
09:44:40.922636,6155544.0
09:44:40.962636,6153934.0
09:44:41.002636,6155202.0
09:44:41.042636,6155484.0
09:44:41.082636,6155563.0
09:44:41.122636,6155604.0
09:44:41.162636,6155854.0
09:44:41.202636,6156808.0
09:44:41.242636,6156729.0
09:44:41.282636,6155750.0
09:44:41.322636,6155368.0
09:44:41.362636,6155629.0
09:44:41.402636,6155047.0
09:44:41.442636,6155021.0
09:44:41.482636,6157050.0
09:44:41.522636,6155695.0
09:44:41.562636,6155328.0
09:44:41.602636,6155416.0
09:44:41.642636,6156061.0
09:44:41.682636,6155524.0
09:44:41.722636,6154811.0
09:44:41.762636,6154716.0
09:44:41.802636,6156140.0
09:44:41.842636,6155274.0
09:44:41.882636,6155652.0
09:44:41.922636,6154249.0
09:44:41.962636,6155977.0
09:44:42.002636,6155084.0
09:44:42.042636,6154691.0
09:44:42.082636,6155448.0
09:44:42.122636,6156205.0
09:44:42.162636,6155901.0
09:44:42.202636,6155196.0
09:44:42.242636,6155318.0
09:44:42.282636,6155742.0
09:44:42.322636,6154887.0
09:44:42.362636,6154420.0
09:44:42.402636,6154802.0
09:44:42.442636,6155273.0
09:44:42.482636,6155265.0
09:44:42.522636,6155183.0
09:44:42.562636,6154587.0
09:44:42.602636,6157114.0
09:44:42.642636,6153851.0
09:44:42.682636,6154930.0
09:44:42.722636,6154862.0
09:44:42.762636,6155364.0
09:44:42.802636,6155343.0
09:44:42.842636,6155715.0
09:44:42.882636,6156395.0
09:44:42.922636,6155576.0
09:44:42.962636,6154950.0
09:44:43.002636,6154742.0
09:44:43.042636,6154834.0
09:44:43.082636,6154332.0
09:44:43.122636,6154747.0
09:44:43.162636,6155087.0
09:44:43.202636,6154780.0
09:44:43.242636,6154181.0
09:44:43.282636,6155309.0
09:44:43.322636,6154738.0
09:44:43.362636,6154785.0
09:44:43.402636,6157495.0
09:44:43.442636,6151796.0
09:44:43.482636,6154558.0
09:44:43.522636,6154629.0
09:44:43.562636,6154641.0
09:44:44.006036,6154519.0
09:44:44.046036,6154854.0
09:44:44.086036,6154361.0
09:44:44.126036,6155450.0
09:44:44.166036,6153354.0
09:44:44.206036,6154412.0
09:44:44.246036,6154943.0
09:44:44.286036,6154483.0
09:44:44.326036,6154308.0
09:44:44.366036,6154711.0
09:44:44.406036,6155562.0
09:44:44.446036,6154851.0
09:44:44.486036,6154399.0
09:44:44.526036,6154345.0
09:44:44.566036,6151353.0
09:44:44.606036,6154123.0
09:44:44.646036,6154329.0
09:44:44.686036,6154210.0
09:44:44.726036,6154321.0
09:44:44.766036,6154794.0
09:44:44.806036,6155068.0
09:44:44.846036,6154624.0
09:44:44.886036,6153934.0
09:44:44.926036,6153791.0
09:44:44.966036,6154330.0
09:44:45.006036,6154410.0
09:44:45.046036,6152824.0
09:44:45.086036,6153634.0
09:44:45.126036,6153860.0
09:44:45.166036,6154038.0
09:44:45.206036,6154289.0
09:44:45.246036,6154518.0
09:44:45.286036,6154501.0
09:44:45.326036,6154022.0
09:44:45.366036,6154016.0
09:44:45.406036,6153674.0
09:44:45.446036,6154070.0
09:44:45.486036,6153982.0
09:44:45.526036,6154071.0
09:44:45.566036,6153560.0
09:44:45.606036,6153544.0
09:44:45.646036,6150785.0
09:44:45.686036,6152808.0
09:44:45.726036,6153461.0
09:44:45.766036,6153463.0
09:44:45.806036,6153663.0
09:44:45.846036,6153737.0
09:44:45.886036,6153974.0
09:44:45.926036,6154489.0
09:44:45.966036,6153429.0
09:44:46.006036,6152898.0
09:44:46.046036,6152829.0
09:44:46.086036,6153716.0
09:44:46.126036,6153172.0
09:44:46.166036,6152732.0
09:44:46.206036,6152599.0
09:44:46.246036,6152747.0
09:44:46.286036,6153755.0
09:44:46.326036,6153073.0
09:44:46.366036,6152914.0
09:44:46.406036,6151418.0
09:44:46.446036,6152104.0
09:44:46.486036,6153085.0
09:44:46.526036,6152810.0
09:44:46.566036,6153161.0
09:44:46.606036,6153168.0
09:44:46.646036,6153668.0
09:44:46.686036,6154149.0
09:44:46.726036,6153611.0
09:44:46.766036,6153102.0
09:44:46.806036,6152843.0
09:44:46.846036,6154082.0
09:44:46.886036,6153082.0
09:44:46.926036,6153152.0
09:44:46.966036,6153146.0
09:44:47.006036,6152595.0
09:44:47.046036,6153230.0
09:44:47.086036,6156365.0
09:44:47.126036,6150477.0
09:44:47.166036,6152685.0
09:44:47.206036,6153699.0
09:44:47.246036,6153367.0
09:44:47.286036,6153381.0
09:44:47.326036,6153397.0
09:44:47.366036,6154080.0
09:44:47.406036,6154183.0
09:44:47.446036,6153410.0
09:44:47.486036,6152789.0
09:44:47.526036,6152764.0
09:44:47.566036,6154321.0
09:44:47.606036,6152916.0
09:44:47.646036,6152666.0
09:44:47.686036,6152782.0
09:44:47.726036,6153415.0
09:44:47.766036,6152833.0
09:44:47.806036,6152802.0
09:44:47.846036,6153345.0
09:44:47.886036,6153075.0
09:44:47.926036,6152858.0
09:44:47.966036,6153367.0
09:44:48.512976,6153479.0
09:44:48.552976,6153358.0
09:44:48.592976,6153480.0
09:44:48.632976,6153224.0
09:44:48.672976,6153120.0
09:44:48.712976,6153111.0
09:44:48.752976,6152088.0
09:44:48.792976,6152954.0
09:44:48.832976,6153089.0
09:44:48.872976,6152965.0
09:44:48.912976,6153067.0
09:44:48.952976,6153124.0
09:44:48.992976,6153719.0
09:44:49.032976,6154175.0
09:44:49.072976,6153402.0
09:44:49.112976,6153120.0
09:44:49.152976,6153115.0
09:44:49.192976,6153096.0
09:44:49.232976,6153821.0
09:44:49.272976,6153591.0
09:44:49.312976,6153309.0
09:44:49.352976,6156062.0
09:44:49.392976,6151239.0
09:44:49.432976,6153142.0
09:44:49.472976,6153450.0
09:44:49.512976,6153466.0
09:44:49.552976,6154180.0
09:44:49.592976,6153543.0
09:44:49.632976,6154164.0
09:44:49.672976,6154051.0
09:44:49.712976,6153189.0
09:44:49.752976,6154133.0
09:44:49.792976,6153630.0
09:44:49.832976,6153352.0
09:44:49.872976,6153366.0
09:44:49.912976,6153269.0
09:44:49.952976,6153709.0
09:44:49.992976,6153307.0
09:44:50.032976,6149933.0
09:44:50.072976,6153033.0
09:44:50.112976,6154261.0
09:44:50.152976,6153595.0
09:44:50.192976,6153689.0
09:44:50.232976,6153552.0
09:44:50.272976,6154405.0
09:44:50.312976,6154388.0
09:44:50.352976,6153506.0
09:44:50.392976,6153253.0
09:44:50.432976,6153464.0
09:44:50.472976,6154444.0
09:44:50.512976,6153300.0
09:44:50.552976,6153437.0
09:44:50.592976,6156253.0
09:44:50.632976,6150393.0
09:44:50.672976,6153482.0
09:44:50.712976,6153409.0
09:44:50.752976,6153635.0
09:44:50.792976,6153249.0
09:44:50.832976,6154153.0
09:44:50.872976,6154720.0
09:44:50.912976,6154469.0
09:44:50.952976,6153239.0
09:44:50.992976,6153655.0
09:44:51.032976,6153101.0
09:44:51.072976,6153573.0
09:44:51.112976,6153427.0
09:44:51.152976,6153066.0
09:44:51.192976,6153577.0
09:44:51.232976,6153644.0
09:44:51.272976,6153527.0
09:44:51.312976,6153186.0
09:44:51.352976,6154603.0
09:44:51.392976,6153483.0
09:44:51.432976,6153172.0
09:44:51.472976,6152985.0
09:44:51.512976,6155571.0
09:44:51.552976,6150508.0
09:44:51.592976,6153469.0
09:44:51.632976,6153535.0
09:44:51.672976,6153483.0
09:44:51.712976,6153172.0
09:44:51.752976,6154156.0
09:44:51.792976,6154263.0
09:44:51.832976,6153983.0
09:44:51.872976,6153026.0
09:44:51.912976,6153268.0
09:44:51.952976,6153529.0
09:44:51.992976,6153688.0
09:44:52.032976,6155643.0
09:44:52.072976,6151368.0
09:44:52.112976,6154387.0
09:44:52.152976,6153959.0
09:44:52.192976,6153814.0
09:44:52.232976,6153878.0
09:44:52.272976,6153897.0
09:44:52.312976,6155242.0
09:44:52.352976,6154920.0
09:44:52.392976,6154242.0
09:44:52.432976,6153699.0
09:44:52.472976,6154111.0
09:44:54.853320,6154287.0
09:44:54.893320,6150698.0
09:44:54.933320,6154077.0
09:44:54.973320,6154187.0
09:44:55.013320,6154199.0
09:44:55.053320,6154366.0
09:44:55.093320,6154688.0
09:44:55.133320,6155043.0
09:44:55.173320,6155130.0
09:44:55.213320,6154385.0
09:44:55.253320,6154567.0
09:44:55.293320,6153997.0
09:44:55.333320,6154315.0
09:44:55.373320,6154514.0
09:44:55.413320,6154092.0
09:44:55.453320,6153961.0
09:44:55.493320,6153962.0
09:44:55.533320,6154770.0
09:44:55.573320,6154162.0
09:44:55.613320,6154100.0
09:44:55.653320,6154215.0
09:44:55.693320,6154361.0
09:44:55.733320,6154208.0
09:44:55.773320,6153922.0
09:44:55.813320,6153695.0
09:44:55.853320,6153917.0
09:44:55.893320,6156645.0
09:44:55.933320,6151958.0
09:44:55.973320,6154206.0
09:44:56.013320,6154094.0
09:44:56.053320,6154017.0
09:44:56.093320,6155364.0
09:44:56.133320,6154554.0
09:44:56.173320,6155046.0
09:44:56.213320,6154896.0
09:44:56.253320,6155195.0
09:44:56.293320,6154132.0
09:44:56.333320,6153822.0
09:44:56.373320,6154126.0
09:44:56.413320,6158054.0
09:44:56.453320,6151784.0
09:44:56.493320,6153890.0
09:44:56.533320,6154101.0
09:44:56.573320,6155764.0
09:44:56.613320,6154191.0
09:44:56.653320,6154234.0
09:44:56.693320,6154990.0
09:44:56.733320,6156163.0
09:44:56.773320,6153974.0
09:44:56.813320,6153838.0
09:44:56.853320,6151363.0
09:44:56.893320,6155843.0
09:44:56.933320,6154049.0
09:44:56.973320,6153869.0
09:44:57.013320,6154572.0
09:44:57.053320,6154943.0
09:44:57.093320,6156079.0
09:44:57.133320,6155524.0
09:44:57.173320,6155052.0
09:44:57.213320,6154368.0
09:44:57.253320,6154425.0
09:44:57.293320,6155985.0
09:44:57.333320,6155325.0
09:44:57.373320,6154930.0
09:44:57.413320,6154505.0
09:44:57.453320,6154185.0
09:44:57.493320,6156114.0
09:44:57.533320,6162146.0
09:44:57.573320,6156314.0
09:44:57.613320,6153848.0
09:44:57.653320,6155221.0
09:44:57.693320,6153705.0
09:44:57.733320,6152756.0
09:44:57.773320,6151309.0
09:44:57.813320,6152926.0
09:44:57.853320,6154596.0
09:44:57.893320,6155400.0
09:44:57.933320,6155015.0
09:44:57.973320,6154513.0
09:44:58.013320,6156224.0
09:44:58.053320,6155191.0
09:44:58.093320,6155398.0
09:44:58.133320,6154747.0
09:44:58.173320,6154674.0
09:44:58.213320,6154684.0
09:44:58.253320,6155711.0
09:44:58.293320,6155511.0
09:44:58.333320,6155343.0
09:44:58.373320,6155758.0
09:44:58.413320,6156709.0
09:44:58.453320,6157024.0
09:44:58.493320,6155926.0
09:44:58.533320,6154869.0
09:44:58.573320,6155522.0
09:44:58.613320,6155531.0
09:44:58.653320,6155727.0
09:44:58.693320,6155275.0
09:44:58.733320,6155831.0
09:44:58.773320,6155489.0
09:44:58.813320,6155492.0
09:44:59.575631,6155367.0
09:44:59.615631,6155250.0
09:44:59.655631,6155155.0
09:44:59.695631,6157111.0
09:44:59.735631,6155483.0
09:44:59.775631,6155269.0
09:44:59.815631,6151644.0
09:44:59.855631,6156220.0
09:44:59.895631,6155596.0
09:44:59.935631,6155551.0
09:44:59.975631,6155590.0
09:45:00.015631,6156080.0
09:45:00.055631,6156553.0
09:45:00.095631,6157040.0
09:45:00.135631,6155624.0
09:45:00.175631,6156123.0
09:45:00.215631,6155569.0
09:45:00.255631,6155238.0
09:45:00.295631,6155808.0
09:45:00.335631,6156083.0
09:45:00.375631,6155681.0
09:45:00.415631,6155152.0
09:45:00.455631,6155619.0
09:45:00.495631,6156111.0
09:45:00.535631,6154460.0
09:45:00.575631,6156750.0
09:45:00.615631,6156277.0
09:45:00.655631,6156254.0
09:45:00.695631,6156216.0
09:45:00.735631,6156174.0
09:45:00.775631,6157457.0
09:45:00.815631,6156639.0
09:45:00.855631,6156049.0
09:45:00.895631,6155691.0
09:45:00.935631,6156129.0
09:45:00.975631,6156165.0
09:45:01.015631,6156211.0
09:45:01.055631,6156749.0
09:45:01.095631,6156092.0
09:45:01.135631,6156105.0
09:45:01.175631,6156525.0
09:45:01.215631,6155594.0
09:45:01.255631,6155991.0
09:45:01.295631,6156135.0
09:45:01.335631,6156396.0
09:45:01.375631,6156652.0
09:45:01.415631,6156864.0
09:45:01.455631,6157422.0
09:45:01.495631,6156913.0
09:45:01.535631,6156471.0
09:45:01.575631,6155934.0
09:45:01.615631,6156307.0
09:45:01.655631,6156524.0
09:45:01.695631,6152691.0
09:45:01.735631,6156107.0
09:45:01.775631,6156010.0
09:45:01.815631,6155985.0
09:45:01.855631,6156423.0
09:45:01.895631,6156617.0
09:45:01.935631,6156881.0
09:45:01.975631,6156881.0
09:45:02.015631,6156509.0
09:45:02.055631,6156263.0
09:45:02.095631,6155901.0
09:45:02.135631,6156759.0
09:45:02.175631,6153341.0
09:45:02.215631,6156023.0
09:45:02.255631,6155947.0
09:45:02.295631,6156387.0
09:45:02.335631,6156855.0
09:45:02.375631,6156669.0
09:45:02.415631,6156630.0
09:45:02.455631,6156575.0
09:45:02.495631,6156666.0
09:45:02.535631,6156144.0
09:45:02.575631,6156145.0
09:45:02.615631,6156372.0
09:45:02.655631,6156406.0
09:45:02.695631,6156008.0
09:45:02.735631,6155544.0
09:45:02.775631,6156145.0
09:45:02.815631,6156143.0
09:45:02.855631,6156196.0
09:45:02.895631,6155848.0
09:45:02.935631,6156382.0
09:45:02.975631,6155892.0
09:45:03.015631,6155892.0
09:45:03.055631,6155853.0
09:45:03.095631,6155013.0
09:45:03.135631,6156046.0
09:45:03.175631,6156201.0
09:45:03.215631,6156140.0
09:45:03.255631,6155694.0
09:45:03.295631,6156643.0
09:45:03.335631,6156875.0
09:45:03.375631,6156370.0
09:45:03.415631,6155388.0
09:45:03.455631,6156087.0
09:45:03.495631,6156280.0
09:45:03.535631,6154976.0
09:45:03.875022,6155358.0
09:45:03.915022,6156708.0
09:45:03.955022,6156450.0
09:45:03.995022,6155408.0
09:45:04.035022,6155560.0
09:45:04.075022,6155766.0
09:45:04.115022,6156346.0
09:45:04.155022,6156198.0
09:45:04.195022,6156209.0
09:45:04.235022,6155993.0
09:45:04.275022,6156499.0
09:45:04.315022,6152314.0
09:45:04.355022,6155441.0
09:45:04.395022,6156059.0
09:45:04.435022,6156120.0
09:45:04.475022,6156308.0
09:45:04.515022,6156032.0
09:45:04.555022,6157513.0
09:45:04.595022,6156884.0
09:45:04.635022,6155839.0
09:45:04.675022,6155954.0
09:45:04.715022,6156677.0
09:45:04.755022,6155697.0
09:45:04.795022,6155851.0
09:45:04.835022,6156573.0
09:45:04.875022,6157646.0
09:45:04.915022,6152992.0
09:45:04.955022,6155677.0
09:45:04.995022,6156786.0
09:45:05.035022,6155774.0
09:45:05.075022,6155862.0
09:45:05.115022,6156171.0
09:45:05.155022,6157913.0
09:45:05.195022,6156552.0
09:45:05.235022,6155800.0
09:45:05.275022,6155894.0
09:45:05.315022,6155931.0
09:45:05.355022,6155854.0
09:45:05.395022,6155829.0
09:45:05.435022,6155588.0
09:45:05.475022,6156352.0
09:45:05.515022,6155997.0
09:45:05.555022,6156133.0
09:45:05.595022,6155094.0
09:45:05.635022,6156155.0
09:45:05.675022,6158817.0
09:45:05.715022,6152904.0
09:45:05.755022,6155611.0
09:45:05.795022,6156391.0
09:45:05.835022,6156015.0
09:45:05.875022,6155863.0
09:45:05.915022,6156603.0
09:45:05.955022,6156982.0
09:45:05.995022,6156185.0
09:45:06.035022,6155460.0
09:45:06.075022,6156397.0
09:45:06.115022,6156186.0
09:45:06.155022,6156080.0
09:45:06.195022,6157675.0
09:45:06.235022,6154601.0
09:45:06.275022,6156450.0
09:45:06.315022,6156212.0
09:45:06.355022,6155415.0
09:45:06.395022,6155553.0
09:45:06.435022,6156684.0
09:45:06.475022,6156762.0
09:45:06.515022,6155441.0
09:45:06.555022,6156081.0
09:45:06.595022,6156358.0
09:45:06.635022,6156195.0
09:45:06.675022,6155346.0
09:45:06.715022,6156341.0
09:45:06.755022,6155831.0
09:45:06.795022,6155957.0
09:45:06.835022,6155935.0
09:45:06.875022,6153082.0
09:45:06.915022,6155335.0
09:45:06.955022,6155655.0
09:45:06.995022,6156798.0
09:45:07.035022,6156829.0
09:45:07.075022,6155541.0
09:45:07.115022,6157105.0
09:45:07.155022,6158163.0
09:45:07.195022,6156279.0
09:45:07.235022,6155303.0
09:45:07.275022,6156624.0
09:45:07.315022,6157209.0
09:45:07.355022,6155700.0
09:45:07.395022,6158566.0
09:45:07.435022,6155541.0
09:45:07.475022,6156721.0
09:45:07.515022,6155743.0
09:45:07.555022,6156276.0
09:45:07.595022,6157095.0
09:45:07.635022,6157282.0
09:45:07.675022,6156677.0
09:45:07.715022,6156987.0
09:45:07.755022,6156548.0
09:45:07.795022,6155936.0
09:45:07.835022,6159267.0
09:45:08.177098,6155310.0
09:45:08.217098,6156646.0
09:45:08.257098,6156123.0
09:45:08.297098,6156078.0
09:45:08.337098,6156933.0
09:45:08.377098,6156615.0
09:45:08.417098,6155994.0
09:45:08.457098,6152785.0
09:45:08.497098,6156539.0
09:45:08.537098,6156167.0
09:45:08.577098,6155975.0
09:45:08.617098,6156046.0
09:45:08.657098,6156785.0
09:45:08.697098,6157279.0
09:45:08.737098,6156925.0
09:45:08.777098,6156176.0
09:45:08.817098,6156283.0
09:45:08.857098,6156745.0
09:45:08.897098,6156194.0
09:45:08.937098,6155953.0
09:45:08.977098,6155971.0
09:45:09.017098,6156656.0
09:45:09.057098,6156256.0
09:45:09.097098,6155601.0
09:45:09.137098,6153303.0
09:45:09.177098,6156585.0
09:45:09.217098,6156838.0
09:45:09.257098,6156366.0
09:45:09.297098,6156507.0
09:45:09.337098,6157668.0
09:45:09.377098,6157215.0
09:45:09.417098,6156694.0
09:45:09.457098,6156830.0
09:45:09.497098,6156884.0
09:45:09.537098,6155715.0
09:45:09.577098,6156441.0
09:45:09.617098,6157439.0
09:45:09.657098,6156059.0
09:45:09.697098,6156304.0
09:45:09.737098,6156739.0
09:45:09.777098,6156453.0
09:45:09.817098,6155907.0
09:45:09.857098,6156353.0
09:45:09.897098,6156247.0
09:45:09.937098,6156373.0
09:45:09.977098,6156282.0
09:45:10.017098,6156540.0
09:45:10.057098,6156481.0
09:45:10.097098,6156685.0
09:45:10.137098,6157230.0
09:45:10.177098,6157170.0
09:45:10.217098,6156205.0
09:45:10.257098,6155863.0
09:45:10.297098,6155973.0
09:45:10.337098,6156611.0
09:45:10.377098,6155974.0
09:45:10.417098,6155914.0
09:45:10.457098,6157842.0
09:45:10.497098,6153926.0
09:45:10.537098,6156227.0
09:45:10.577098,6156054.0
09:45:10.617098,6156202.0
09:45:10.657098,6155935.0
09:45:10.697098,6156771.0
09:45:10.737098,6157265.0
09:45:10.777098,6157114.0
09:45:10.817098,6157036.0
09:45:10.857098,6155985.0
09:45:10.897098,6155749.0
09:45:10.937098,6155890.0
09:45:10.977098,6158846.0
09:45:11.017098,6153752.0
09:45:11.057098,6155844.0
09:45:11.097098,6156010.0
09:45:11.137098,6156612.0
09:45:11.177098,6156543.0
09:45:11.217098,6156190.0
09:45:11.257098,6157097.0
09:45:11.297098,6157444.0
09:45:11.337098,6156551.0
09:45:11.377098,6156021.0
09:45:11.417098,6156255.0
09:45:11.457098,6155959.0
09:45:11.497098,6156381.0
09:45:11.537098,6156167.0
09:45:11.577098,6155765.0
09:45:11.617098,6156059.0
09:45:11.657098,6156744.0
09:45:11.697098,6156103.0
09:45:11.737098,6156645.0
09:45:11.777098,6155822.0
09:45:11.817098,6152544.0
09:45:11.857098,6155626.0
09:45:11.897098,6156222.0
09:45:11.937098,6156091.0
09:45:11.977098,6156116.0
09:45:12.017098,6156025.0
09:45:12.057098,6156534.0
09:45:12.097098,6157517.0
09:45:12.137098,6156802.0
09:45:13.706549,6155354.0
09:45:13.746549,6156042.0
09:45:13.786549,6159569.0
09:45:13.826549,6153444.0
09:45:13.866549,6155715.0
09:45:13.906549,6156577.0
09:45:13.946549,6156585.0
09:45:13.986549,6156958.0
09:45:14.026549,6156965.0
09:45:14.066549,6157196.0
09:45:14.106549,6157128.0
09:45:14.146549,6156358.0
09:45:14.186549,6156233.0
09:45:14.226549,6155410.0
09:45:14.266549,6156551.0
09:45:14.306549,6154201.0
09:45:14.346549,6156091.0
09:45:14.386549,6155894.0
09:45:14.426549,6156369.0
09:45:14.466549,6156770.0
09:45:14.506549,6155740.0
09:45:14.546549,6156968.0
09:45:14.586549,6157893.0
09:45:14.626549,6157038.0
09:45:14.666549,6155685.0
09:45:14.706549,6155838.0
09:45:14.746549,6156624.0
09:45:14.786549,6156601.0
09:45:14.826549,6153251.0
09:45:14.866549,6156160.0
09:45:14.906549,6156528.0
09:45:14.946549,6156747.0
09:45:14.986549,6156280.0
09:45:15.026549,6156716.0
09:45:15.066549,6157502.0
09:45:15.106549,6157280.0
09:45:15.146549,6155827.0
09:45:15.186549,6156569.0
09:45:15.226549,6156464.0
09:45:15.266549,6155479.0
09:45:15.306549,6156249.0
09:45:15.346549,6156575.0
09:45:15.386549,6156000.0
09:45:15.426549,6158204.0
09:45:15.466549,6153931.0
09:45:15.506549,6156708.0
09:45:15.546549,6155755.0
09:45:15.586549,6156083.0
09:45:15.626549,6157127.0
09:45:15.666549,6156829.0
09:45:15.706549,6156864.0
09:45:15.746549,6157143.0
09:45:15.786549,6157613.0
09:45:15.826549,6155703.0
09:45:15.866549,6155706.0
09:45:15.906549,6156359.0
09:45:15.946549,6156857.0
09:45:15.986549,6159441.0
09:45:16.026549,6152924.0
09:45:16.066549,6156716.0
09:45:16.106549,6156811.0
09:45:16.146549,6156302.0
09:45:16.186549,6156411.0
09:45:16.226549,6157209.0
09:45:16.266549,6157972.0
09:45:16.306549,6156889.0
09:45:16.346549,6156221.0
09:45:16.386549,6156255.0
09:45:16.426549,6157055.0
09:45:16.466549,6156583.0
09:45:16.506549,6156427.0
09:45:16.546549,6156520.0
09:45:16.586549,6156899.0
09:45:16.626549,6156005.0
09:45:16.666549,6156562.0
09:45:16.706549,6156657.0
09:45:16.746549,6153928.0
09:45:16.786549,6156369.0
09:45:16.826549,6155800.0
09:45:16.866549,6157195.0
09:45:16.906549,6157303.0
09:45:16.946549,6157327.0
09:45:16.986549,6156841.0
09:45:17.026549,6157921.0
09:45:17.066549,6157037.0
09:45:17.106549,6156520.0
09:45:17.146549,6155920.0
09:45:17.186549,6157032.0
09:45:17.226549,6156899.0
09:45:17.266549,6156202.0
09:45:17.306549,6156645.0
09:45:17.346549,6157037.0
09:45:17.386549,6156684.0
09:45:17.426549,6156282.0
09:45:17.466549,6156406.0
09:45:17.506549,6156743.0
09:45:17.546549,6157439.0
09:45:17.586549,6153484.0
09:45:17.626549,6156337.0
09:45:17.666549,6156457.0
09:45:19.229047,6156766.0
09:45:19.269047,6159308.0
09:45:19.309047,6152978.0
09:45:19.349047,6156904.0
09:45:19.389047,6157137.0
09:45:19.429047,6156304.0
09:45:19.469047,6156085.0
09:45:19.509047,6157933.0
09:45:19.549047,6158057.0
09:45:19.589047,6156993.0
09:45:19.629047,6156293.0
09:45:19.669047,6157527.0
09:45:19.709047,6156695.0
09:45:19.749047,6156179.0
09:45:19.789047,6155856.0
09:45:19.829047,6156945.0
09:45:19.869047,6159924.0
09:45:19.909047,6155108.0
09:45:19.949047,6156370.0
09:45:19.989047,6157261.0
09:45:20.029047,6157353.0
09:45:20.069047,6156850.0
09:45:20.109047,6156998.0
09:45:20.149047,6158053.0
09:45:20.189047,6158557.0
09:45:20.229047,6156675.0
09:45:20.269047,6156197.0
09:45:20.309047,6156689.0
09:45:20.349047,6158583.0
09:45:20.389047,6153459.0
09:45:20.429047,6156278.0
09:45:20.469047,6156328.0
09:45:20.509047,6157712.0
09:45:20.549047,6156803.0
09:45:20.589047,6157163.0
09:45:20.629047,6157582.0
09:45:20.669047,6157385.0
09:45:20.709047,6157292.0
09:45:20.749047,6156924.0
09:45:20.789047,6156578.0
09:45:20.829047,6156833.0
09:45:20.869047,6156791.0
09:45:20.909047,6156931.0
09:45:20.949047,6156790.0
09:45:20.989047,6159772.0
09:45:21.029047,6153979.0
09:45:21.069047,6156441.0
09:45:21.109047,6156540.0
09:45:21.149047,6156809.0
09:45:21.189047,6157003.0
09:45:21.229047,6157275.0
09:45:21.269047,6157890.0
09:45:21.309047,6157309.0
09:45:21.349047,6156708.0
09:45:21.389047,6156463.0
09:45:21.429047,6157101.0
09:45:21.469047,6154085.0
09:45:21.509047,6156550.0
09:45:21.549047,6156726.0
09:45:21.589047,6156631.0
09:45:21.629047,6156461.0
09:45:21.669047,6156964.0
09:45:21.709047,6157637.0
09:45:21.749047,6157446.0
09:45:21.789047,6156401.0
09:45:21.829047,6156532.0
09:45:21.869047,6159706.0
09:45:21.909047,6155520.0
09:45:21.949047,6156245.0
09:45:21.989047,6156500.0
09:45:22.029047,6156640.0
09:45:22.069047,6157129.0
09:45:22.109047,6156991.0
09:45:22.149047,6157235.0
09:45:22.189047,6156727.0
09:45:22.229047,6156139.0
09:45:22.269047,6156807.0
09:45:22.309047,6156874.0
09:45:22.349047,6158511.0
09:45:22.389047,6153261.0
09:45:22.429047,6156405.0
09:45:22.469047,6156683.0
09:45:22.509047,6156894.0
09:45:22.549047,6156061.0
09:45:22.589047,6156719.0
09:45:22.629047,6157244.0
09:45:22.669047,6156915.0
09:45:22.709047,6156039.0
09:45:22.749047,6156348.0
09:45:22.789047,6157106.0
09:45:22.829047,6153484.0
09:45:22.869047,6156184.0
09:45:22.909047,6156312.0
09:45:22.949047,6156365.0
09:45:22.989047,6155593.0
09:45:23.029047,6157037.0
09:45:23.069047,6157471.0
09:45:23.109047,6157323.0
09:45:23.149047,6155970.0
09:45:23.189047,6156654.0
09:45:23.529853,6156785.0
09:45:23.569853,6157645.0
09:45:23.609853,6158074.0
09:45:23.649853,6157449.0
09:45:23.689853,6156957.0
09:45:23.729853,6156581.0
09:45:23.769853,6157024.0
09:45:23.809853,6156887.0
09:45:23.849853,6157152.0
09:45:23.889853,6156700.0
09:45:23.929853,6156529.0
09:45:23.969853,6156284.0
09:45:24.009853,6156146.0
09:45:24.049853,6154137.0
09:45:24.089853,6156054.0
09:45:24.129853,6156374.0
09:45:24.169853,6156019.0
09:45:24.209853,6156546.0
09:45:24.249853,6156847.0
09:45:24.289853,6156481.0
09:45:24.329853,6157720.0
09:45:24.369853,6156966.0
09:45:24.409853,6155797.0
09:45:24.449853,6155514.0
09:45:24.489853,6156996.0
09:45:24.529853,6160387.0
09:45:24.569853,6154192.0
09:45:24.609853,6155524.0
09:45:24.649853,6156727.0
09:45:24.689853,6156936.0
09:45:24.729853,6156390.0
09:45:24.769853,6156640.0
09:45:24.809853,6158027.0
09:45:24.849853,6157077.0
09:45:24.889853,6155806.0
09:45:24.929853,6156323.0
09:45:24.969853,6157554.0
09:45:25.009853,6156834.0
09:45:25.049853,6155884.0
09:45:25.089853,6155853.0
09:45:25.129853,6157496.0
09:45:25.169853,6156367.0
09:45:25.209853,6158598.0
09:45:25.249853,6153351.0
09:45:25.289853,6156922.0
09:45:25.329853,6156105.0
09:45:25.369853,6156079.0
09:45:25.409853,6156854.0
09:45:25.449853,6157048.0
09:45:25.489853,6157210.0
09:45:25.529853,6157266.0
09:45:25.569853,6156737.0
09:45:25.609853,6156361.0
09:45:25.649853,6156118.0
09:45:25.689853,6156523.0
09:45:25.729853,6158439.0
09:45:25.769853,6155469.0
09:45:25.809853,6155653.0
09:45:25.849853,6156361.0
09:45:25.889853,6157869.0
09:45:25.929853,6156130.0
09:45:25.969853,6156239.0
09:45:26.009853,6156526.0
09:45:26.049853,6157383.0
09:45:26.089853,6156412.0
09:45:26.129853,6156154.0
09:45:26.169853,6155624.0
09:45:26.209853,6156754.0
09:45:26.249853,6156684.0
09:45:26.289853,6156134.0
09:45:26.329853,6155960.0
09:45:26.369853,6156060.0
09:45:26.409853,6156899.0
09:45:26.449853,6159076.0
09:45:26.489853,6153986.0
09:45:26.529853,6156362.0
09:45:26.569853,6156461.0
09:45:26.609853,6157054.0
09:45:26.649853,6156265.0
09:45:26.689853,6156340.0
09:45:26.729853,6156744.0
09:45:26.769853,6157443.0
09:45:26.809853,6156076.0
09:45:26.849853,6155715.0
09:45:26.889853,6156081.0
09:45:26.929853,6156875.0
09:45:26.969853,6157005.0
09:45:27.009853,6153297.0
09:45:27.049853,6155913.0
09:45:27.089853,6156425.0
09:45:27.129853,6156373.0
09:45:27.169853,6156413.0
09:45:27.209853,6156615.0
09:45:27.249853,6157017.0
09:45:27.289853,6156935.0
09:45:27.329853,6156316.0
09:45:27.369853,6155988.0
09:45:27.409853,6156275.0
09:45:27.449853,6157561.0
09:45:27.489853,6155792.0
09:45:27.830696,6155151.0
09:45:27.870696,6155825.0
09:45:27.910696,6156125.0
09:45:27.950696,6156436.0
09:45:27.990696,6156488.0
09:45:28.030696,6157376.0
09:45:28.070696,6157393.0
09:45:28.110696,6156494.0
09:45:28.150696,6156178.0
09:45:28.190696,6156771.0
09:45:28.230696,6155995.0
09:45:28.270696,6155802.0
09:45:28.310696,6156298.0
09:45:28.350696,6159315.0
09:45:28.390696,6154662.0
09:45:28.430696,6155742.0
09:45:28.470696,6155642.0
09:45:28.510696,6156660.0
09:45:28.550696,6156847.0
09:45:28.590696,6156930.0
09:45:28.630696,6156406.0
09:45:28.670696,6156902.0
09:45:28.710696,6156622.0
09:45:28.750696,6156482.0
09:45:28.790696,6155827.0
09:45:28.830696,6156798.0
09:45:28.870696,6155995.0
09:45:28.910696,6156131.0
09:45:28.950696,6158449.0
09:45:28.990696,6155740.0
09:45:29.030696,6155761.0
09:45:29.070696,6156141.0
09:45:29.110696,6157423.0
09:45:29.150696,6156727.0
09:45:29.190696,6156739.0
09:45:29.230696,6157737.0
09:45:29.270696,6156696.0
09:45:29.310696,6156385.0
09:45:29.350696,6156243.0
09:45:29.390696,6157119.0
09:45:29.430696,6160501.0
09:45:29.470696,6157506.0
09:45:29.510696,6156542.0
09:45:29.550696,6155778.0
09:45:29.590696,6154988.0
09:45:29.630696,6154516.0
09:45:29.670696,6154530.0
09:45:29.710696,6155120.0
09:45:29.750696,6156092.0
09:45:29.790696,6156157.0
09:45:29.830696,6156193.0
09:45:29.870696,6156828.0
09:45:29.910696,6156405.0
09:45:29.950696,6156271.0
09:45:29.990696,6156075.0
09:45:30.030696,6158113.0
09:45:30.070696,6156122.0
09:45:30.110696,6155848.0
09:45:30.150696,6157545.0
09:45:30.190696,6153886.0
09:45:30.230696,6157002.0
09:45:30.270696,6155730.0
09:45:30.310696,6155859.0
09:45:30.350696,6157315.0
09:45:30.390696,6156426.0
09:45:30.430696,6156659.0
09:45:30.470696,6157012.0
09:45:30.510696,6157072.0
09:45:30.550696,6155948.0
09:45:30.590696,6155748.0
09:45:30.630696,6156421.0
09:45:30.670696,6157572.0
09:45:30.710696,6156151.0
09:45:30.750696,6152542.0
09:45:30.790696,6156106.0
09:45:30.830696,6157466.0
09:45:30.870696,6155851.0
09:45:30.910696,6155784.0
09:45:30.950696,6156520.0
09:45:30.990696,6158377.0
09:45:31.030696,6157128.0
09:45:31.070696,6156312.0
09:45:31.110696,6156003.0
09:45:31.150696,6156526.0
09:45:31.190696,6156327.0
09:45:31.230696,6156219.0
09:45:31.270696,6153152.0
09:45:31.310696,6155628.0
09:45:31.350696,6156408.0
09:45:31.390696,6156334.0
09:45:31.430696,6156993.0
09:45:31.470696,6156609.0
09:45:31.510696,6157111.0
09:45:31.550696,6157550.0
09:45:31.590696,6156360.0
09:45:31.630696,6156979.0
09:45:31.670696,6156874.0
09:45:31.710696,6155466.0
09:45:31.750696,6156482.0
09:45:31.790696,6157032.0
09:45:32.345173,6157318.0
09:45:32.385173,6157855.0
09:45:32.425173,6157462.0
09:45:32.465173,6156616.0
09:45:32.505173,6157035.0
09:45:32.545173,6156762.0
09:45:32.585173,6156607.0
09:45:32.625173,6156493.0
09:45:32.665173,6157238.0
09:45:32.705173,6158094.0
09:45:32.745173,6154118.0
09:45:32.785173,6156723.0
09:45:32.825173,6156032.0
09:45:32.865173,6156476.0
09:45:32.905173,6157225.0
09:45:32.945173,6157596.0
09:45:32.985173,6157091.0
09:45:33.025173,6157748.0
09:45:33.065173,6157407.0
09:45:33.105173,6156327.0
09:45:33.145173,6156631.0
09:45:33.185173,6156543.0
09:45:33.225173,6155883.0
09:45:33.265173,6156803.0
09:45:33.305173,6156936.0
09:45:33.345173,6156492.0
09:45:33.385173,6156917.0
09:45:33.425173,6156421.0
09:45:33.465173,6156783.0
09:45:33.505173,6158398.0
09:45:33.545173,6153190.0
09:45:33.585173,6156672.0
09:45:33.625173,6157089.0
09:45:33.665173,6157022.0
09:45:33.705173,6155998.0
09:45:33.745173,6156851.0
09:45:33.785173,6157603.0
09:45:33.825173,6157772.0
09:45:33.865173,6156532.0
09:45:33.905173,6156526.0
09:45:33.945173,6156593.0
09:45:33.985173,6156277.0
09:45:34.025173,6156514.0
09:45:34.065173,6156332.0
09:45:34.105173,6159559.0
09:45:34.145173,6154651.0
09:45:34.185173,6156640.0
09:45:34.225173,6156589.0
09:45:34.265173,6156672.0
09:45:34.305173,6157351.0
09:45:34.345173,6157031.0
09:45:34.385173,6157373.0
09:45:34.425173,6156605.0
09:45:34.465173,6156678.0
09:45:34.505173,6156419.0
09:45:34.545173,6156301.0
09:45:34.585173,6156018.0
09:45:34.625173,6156542.0
09:45:34.665173,6156476.0
09:45:34.705173,6156057.0
09:45:34.745173,6156166.0
09:45:34.785173,6156340.0
09:45:34.825173,6156695.0
09:45:34.865173,6156669.0
09:45:34.905173,6156720.0
09:45:34.945173,6156013.0
09:45:34.985173,6156527.0
09:45:35.025173,6156631.0
09:45:35.065173,6153263.0
09:45:35.105173,6156426.0
09:45:35.145173,6156876.0
09:45:35.185173,6156971.0
09:45:35.225173,6156363.0
09:45:35.265173,6156748.0
09:45:35.305173,6157640.0
09:45:35.345173,6157754.0
09:45:35.385173,6157187.0
09:45:35.425173,6156994.0
09:45:35.465173,6156477.0
09:45:35.505173,6156156.0
09:45:35.545173,6157349.0
09:45:35.585173,6157590.0
09:45:35.625173,6155945.0
09:45:35.665173,6156430.0
09:45:35.705173,6157376.0
09:45:35.745173,6156472.0
09:45:35.785173,6156772.0
09:45:35.825173,6157435.0
09:45:35.865173,6157055.0
09:45:35.905173,6157168.0
09:45:35.945173,6156865.0
09:45:35.985173,6156122.0
09:45:36.025173,6156581.0
09:45:36.065173,6156828.0
09:45:36.105173,6157004.0
09:45:36.145173,6156216.0
09:45:36.185173,6157122.0
09:45:36.225173,6158630.0
09:45:36.265173,6153975.0
09:45:36.305173,6156217.0
09:45:36.841555,6157380.0
09:45:36.881555,6155921.0
09:45:36.921555,6156246.0
09:45:36.961555,6157224.0
09:45:37.001555,6157145.0
09:45:37.041555,6156126.0
09:45:37.081555,6156345.0
09:45:37.121555,6156955.0
09:45:37.161555,6156379.0
09:45:37.201555,6159140.0
09:45:37.241555,6154480.0
09:45:37.281555,6157068.0
09:45:37.321555,6156466.0
09:45:37.361555,6156464.0
09:45:37.401555,6156688.0
09:45:37.441555,6157939.0
09:45:37.481555,6157682.0
09:45:37.521555,6157009.0
09:45:37.561555,6157103.0
09:45:37.601555,6157538.0
09:45:37.641555,6156438.0
09:45:37.681555,6156149.0
09:45:37.721555,6157039.0
09:45:37.761555,6156757.0
09:45:37.801555,6156235.0
09:45:37.841555,6156450.0
09:45:37.881555,6157149.0
09:45:37.921555,6156183.0
09:45:37.961555,6159168.0
09:45:38.001555,6155286.0
09:45:38.041555,6157914.0
09:45:38.081555,6156247.0
09:45:38.121555,6156326.0
09:45:38.161555,6157760.0
09:45:38.201555,6157574.0
09:45:38.241555,6157437.0
09:45:38.281555,6157996.0
09:45:38.321555,6158106.0
09:45:38.361555,6156658.0
09:45:38.401555,6156364.0
09:45:38.441555,6157325.0
09:45:38.481555,6156897.0
09:45:38.521555,6156676.0
09:45:38.561555,6156745.0
09:45:38.601555,6158287.0
09:45:38.641555,6157101.0
09:45:38.681555,6159001.0
09:45:38.721555,6155415.0
09:45:38.761555,6157659.0
09:45:38.801555,6156458.0
09:45:38.841555,6157093.0
09:45:38.881555,6157664.0
09:45:38.921555,6157399.0
09:45:38.961555,6157775.0
09:45:39.001555,6156979.0
09:45:39.041555,6156899.0
09:45:39.081555,6157429.0
09:45:39.121555,6157081.0
09:45:39.161555,6156101.0
09:45:39.201555,6159801.0
09:45:39.241555,6154956.0
09:45:39.281555,6156624.0
09:45:39.321555,6156940.0
09:45:39.361555,6157564.0
09:45:39.401555,6158205.0
09:45:39.441555,6156772.0
09:45:39.481555,6157916.0
09:45:39.521555,6158075.0
09:45:39.561555,6158010.0
09:45:39.601555,6156573.0
09:45:39.641555,6157115.0
09:45:39.681555,6157455.0
09:45:39.721555,6157887.0
09:45:39.761555,6156989.0
09:45:39.801555,6157039.0
09:45:39.841555,6156918.0
09:45:39.881555,6159409.0
09:45:39.921555,6155628.0
09:45:39.961555,6156991.0
09:45:40.001555,6157420.0
09:45:40.041555,6156672.0
09:45:40.081555,6157325.0
09:45:40.121555,6158170.0
09:45:40.161555,6158024.0
09:45:40.201555,6156856.0
09:45:40.241555,6157372.0
09:45:40.281555,6157613.0
09:45:40.321555,6156581.0
09:45:40.361555,6156988.0
09:45:40.401555,6157060.0
09:45:40.441555,6157735.0
09:45:40.481555,6157110.0
09:45:40.521555,6157184.0
09:45:40.561555,6156808.0
09:45:40.601555,6156931.0
09:45:40.641555,6157075.0
09:45:40.681555,6157217.0
09:45:40.721555,6156978.0
09:45:40.761555,6156829.0
09:45:40.801555,6158257.0
09:45:41.147469,6157389.0
09:45:41.187469,6157097.0
09:45:41.227469,6156990.0
09:45:41.267469,6157036.0
09:45:41.307469,6157182.0
09:45:41.347469,6158179.0
09:45:41.387469,6157407.0
09:45:41.427469,6157313.0
09:45:41.467469,6157447.0
09:45:41.507469,6160719.0
09:45:41.547469,6155689.0
09:45:41.587469,6157818.0
09:45:41.627469,6156992.0
09:45:41.667469,6158161.0
09:45:41.707469,6158351.0
09:45:41.747469,6157916.0
09:45:41.787469,6158249.0
09:45:41.827469,6158670.0
09:45:41.867469,6157983.0
09:45:41.907469,6156644.0
09:45:41.947469,6157908.0
09:45:41.987469,6157977.0
09:45:42.027469,6157785.0
09:45:42.067469,6157050.0
09:45:42.107469,6157599.0
09:45:42.147469,6157450.0
09:45:42.187469,6157171.0
09:45:42.227469,6157656.0
09:45:42.267469,6157983.0
09:45:42.307469,6156813.0
09:45:42.347469,6157336.0
09:45:42.387469,6158747.0
09:45:42.427469,6154712.0
09:45:42.467469,6156768.0
09:45:42.507469,6157269.0
09:45:42.547469,6158231.0
09:45:42.587469,6157374.0
09:45:42.627469,6157527.0
09:45:42.667469,6158215.0
09:45:42.707469,6158638.0
09:45:42.747469,6157241.0
09:45:42.787469,6157400.0
09:45:42.827469,6158076.0
09:45:42.867469,6156699.0
09:45:42.907469,6156754.0
09:45:42.947469,6157457.0
09:45:42.987469,6158359.0
09:45:43.027469,6157088.0
09:45:43.067469,6157078.0
09:45:43.107469,6157391.0
09:45:43.147469,6158833.0
09:45:43.187469,6157314.0
09:45:43.227469,6157310.0
09:45:43.267469,6157152.0
09:45:43.307469,6157879.0
09:45:43.347469,6157438.0
09:45:43.387469,6156997.0
09:45:43.427469,6157884.0
09:45:43.467469,6158853.0
09:45:43.507469,6154030.0
09:45:43.547469,6157354.0
09:45:43.587469,6157690.0
09:45:43.627469,6157902.0
09:45:43.667469,6157666.0
09:45:43.707469,6157637.0
09:45:43.747469,6158542.0
09:45:43.787469,6158523.0
09:45:43.827469,6157825.0
09:45:43.867469,6157407.0
09:45:43.907469,6158666.0
09:45:43.947469,6157289.0
09:45:43.987469,6156938.0
09:45:44.027469,6157271.0
09:45:44.067469,6158326.0
09:45:44.107469,6157906.0
09:45:44.147469,6157591.0
09:45:44.187469,6159859.0
09:45:44.227469,6155559.0
09:45:44.267469,6157918.0
09:45:44.307469,6157037.0
09:45:44.347469,6157417.0
09:45:44.387469,6158655.0
09:45:44.427469,6158012.0
09:45:44.467469,6158576.0
09:45:44.507469,6159768.0
09:45:44.547469,6158862.0
09:45:44.587469,6156952.0
09:45:44.627469,6157809.0
09:45:44.667469,6158485.0
09:45:44.707469,6158084.0
09:45:44.747469,6157450.0
09:45:44.787469,6158370.0
09:45:44.827469,6161066.0
09:45:44.867469,6155386.0
09:45:44.907469,6157638.0
09:45:44.947469,6158692.0
09:45:44.987469,6158413.0
09:45:45.027469,6158287.0
09:45:45.067469,6157885.0
09:45:45.107469,6159744.0
09:45:45.452653,6159242.0
09:45:45.492653,6154274.0
09:45:45.532653,6157510.0
09:45:45.572653,6157799.0
09:45:45.612653,6158136.0
09:45:45.652653,6158180.0
09:45:45.692653,6158481.0
09:45:45.732653,6158294.0
09:45:45.772653,6158948.0
09:45:45.812653,6158471.0
09:45:45.852653,6157793.0
09:45:45.892653,6157488.0
09:45:45.932653,6158412.0
09:45:45.972653,6158356.0
09:45:46.012653,6157332.0
09:45:46.052653,6157996.0
09:45:46.092653,6158473.0
09:45:46.132653,6158005.0
09:45:46.172653,6157155.0
09:45:46.212653,6158045.0
09:45:46.252653,6158588.0
09:45:46.292653,6158607.0
09:45:46.332653,6156062.0
09:45:46.372653,6157121.0
09:45:46.412653,6158973.0
09:45:46.452653,6158095.0
09:45:46.492653,6157984.0
09:45:46.532653,6157990.0
09:45:46.572653,6158789.0
09:45:46.612653,6159073.0
09:45:46.652653,6158310.0
09:45:46.692653,6156812.0
09:45:46.732653,6157673.0
09:45:46.772653,6158453.0
09:45:46.812653,6158029.0
09:45:46.852653,6156968.0
09:45:46.892653,6161284.0
09:45:46.932653,6157220.0
09:45:46.972653,6157493.0
09:45:47.012653,6157329.0
09:45:47.052653,6158555.0
09:45:47.092653,6158918.0
09:45:47.132653,6157936.0
09:45:47.172653,6158410.0
09:45:47.212653,6159108.0
09:45:47.252653,6158817.0
09:45:47.292653,6157453.0
09:45:47.332653,6157699.0
09:45:47.372653,6156074.0
09:45:47.412653,6157930.0
09:45:47.452653,6157283.0
09:45:47.492653,6158021.0
09:45:47.532653,6158514.0
09:45:47.572653,6158000.0
09:45:47.612653,6158804.0
09:45:47.652653,6159336.0
09:45:47.692653,6157468.0
09:45:47.732653,6157365.0
09:45:47.772653,6158496.0
09:45:47.812653,6158621.0
09:45:47.852653,6157705.0
09:45:47.892653,6157758.0
09:45:47.932653,6157907.0
09:45:47.972653,6157739.0
09:45:48.012653,6157522.0
09:45:48.052653,6157476.0
09:45:48.092653,6158341.0
09:45:48.132653,6157715.0
09:45:48.172653,6160040.0
09:45:48.212653,6155471.0
09:45:48.252653,6157826.0
09:45:48.292653,6157957.0
09:45:48.332653,6157964.0
09:45:48.372653,6157949.0
09:45:48.412653,6158173.0
09:45:48.452653,6158774.0
09:45:48.492653,6158561.0
09:45:48.532653,6157857.0
09:45:48.572653,6157342.0
09:45:48.612653,6158696.0
09:45:48.652653,6157900.0
09:45:48.692653,6157787.0
09:45:48.732653,6157264.0
09:45:48.772653,6157569.0
09:45:48.812653,6158649.0
09:45:48.852653,6157577.0
09:45:48.892653,6157042.0
09:45:48.932653,6156779.0
09:45:48.972653,6158396.0
09:45:49.012653,6157928.0
09:45:49.052653,6157365.0
09:45:49.092653,6157110.0
09:45:49.132653,6158276.0
09:45:49.172653,6157542.0
09:45:49.212653,6157327.0
09:45:49.252653,6156939.0
09:45:49.292653,6157681.0
09:45:49.332653,6157422.0
09:45:49.372653,6157440.0
09:45:49.412653,6158508.0
09:45:49.746314,6158225.0
09:45:49.786314,6157551.0
09:45:49.826314,6157447.0
09:45:49.866314,6162598.0
09:45:49.906314,6156250.0
09:45:49.946314,6157479.0
09:45:49.986314,6157410.0
09:45:50.026314,6159710.0
09:45:50.066314,6157754.0
09:45:50.106314,6157928.0
09:45:50.146314,6158539.0
09:45:50.186314,6160342.0
09:45:50.226314,6157960.0
09:45:50.266314,6157878.0
09:45:50.306314,6158259.0
09:45:50.346314,6159033.0
09:45:50.386314,6158295.0
09:45:50.426314,6158147.0
09:45:50.466314,6157232.0
09:45:50.506314,6157991.0
09:45:50.546314,6158076.0
09:45:50.586314,6158201.0
09:45:50.626314,6159033.0
09:45:50.666314,6158614.0
09:45:50.706314,6158794.0
09:45:50.746314,6158948.0
09:45:50.786314,6158846.0
09:45:50.826314,6158391.0
09:45:50.866314,6158131.0
09:45:50.906314,6158054.0
09:45:50.946314,6159085.0
09:45:50.986314,6158123.0
09:45:51.026314,6159678.0
09:45:51.066314,6156782.0
09:45:51.106314,6159051.0
09:45:51.146314,6157960.0
09:45:51.186314,6158395.0
09:45:51.226314,6158614.0
09:45:51.266314,6159261.0
09:45:51.306314,6159069.0
09:45:51.346314,6158201.0
09:45:51.386314,6158354.0
09:45:51.426314,6158157.0
09:45:51.466314,6158186.0
09:45:51.506314,6157882.0
09:45:51.546314,6158519.0
09:45:51.586314,6158202.0
09:45:51.626314,6158107.0
09:45:51.666314,6157708.0
09:45:51.706314,6155118.0
09:45:51.746314,6157910.0
09:45:51.786314,6157990.0
09:45:51.826314,6158226.0
09:45:51.866314,6157726.0
09:45:51.906314,6158308.0
09:45:51.946314,6158938.0
09:45:51.986314,6159523.0
09:45:52.026314,6158288.0
09:45:52.066314,6157907.0
09:45:52.106314,6157698.0
09:45:52.146314,6158524.0
09:45:52.186314,6158257.0
09:45:52.226314,6157793.0
09:45:52.266314,6157826.0
09:45:52.306314,6155449.0
09:45:52.346314,6157912.0
09:45:52.386314,6158025.0
09:45:52.426314,6158124.0
09:45:52.466314,6157925.0
09:45:52.506314,6158304.0
09:45:52.546314,6158855.0
09:45:52.586314,6159244.0
09:45:52.626314,6158062.0
09:45:52.666314,6158190.0
09:45:52.706314,6157795.0
09:45:52.746314,6157681.0
09:45:52.786314,6157675.0
09:45:52.826314,6158232.0
09:45:52.866314,6158086.0
09:45:52.906314,6157665.0
09:45:52.946314,6158470.0
09:45:52.986314,6157744.0
09:45:53.026314,6157955.0
09:45:53.066314,6157736.0
09:45:53.106314,6158284.0
09:45:53.146314,6160760.0
09:45:53.186314,6155191.0
09:45:53.226314,6157737.0
09:45:53.266314,6157954.0
09:45:53.306314,6158110.0
09:45:53.346314,6158313.0
09:45:53.386314,6158703.0
09:45:53.426314,6158800.0
09:45:53.466314,6158424.0
09:45:53.506314,6157862.0
09:45:53.546314,6157681.0
09:45:53.586314,6158927.0
09:45:53.626314,6157768.0
09:45:53.666314,6157840.0
09:45:53.706314,6157649.0
09:45:55.275383,6160520.0
09:45:55.315383,6158676.0
09:45:55.355383,6158226.0
09:45:55.395383,6158185.0
09:45:55.435383,6158327.0
09:45:55.475383,6156853.0
09:45:55.515383,6157723.0
09:45:55.555383,6161240.0
09:45:55.595383,6156887.0
09:45:55.635383,6157188.0
09:45:55.675383,6157678.0
09:45:55.715383,6158359.0
09:45:55.755383,6158500.0
09:45:55.795383,6158042.0
09:45:55.835383,6158420.0
09:45:55.875383,6158818.0
09:45:55.915383,6157311.0
09:45:55.955383,6157308.0
09:45:55.995383,6158036.0
09:45:56.035383,6158522.0
09:45:56.075383,6157280.0
09:45:56.115383,6156948.0
09:45:56.155383,6157842.0
09:45:56.195383,6159415.0
09:45:56.235383,6164495.0
09:45:56.275383,6161284.0
09:45:56.315383,6156872.0
09:45:56.355383,6156372.0
09:45:56.395383,6155431.0
09:45:56.435383,6155052.0
09:45:56.475383,6154102.0
09:45:56.515383,6153446.0
09:45:56.555383,6155762.0
09:45:56.595383,6157936.0
09:45:56.635383,6157078.0
09:45:56.675383,6156999.0
09:45:56.715383,6157279.0
09:45:56.755383,6156904.0
09:45:56.795383,6157081.0
09:45:56.835383,6157266.0
09:45:56.875383,6158013.0
09:45:56.915383,6157179.0
09:45:56.955383,6157254.0
09:45:56.995383,6157407.0
09:45:57.035383,6158680.0
09:45:57.075383,6160475.0
09:45:57.115383,6154279.0
09:45:57.155383,6157811.0
09:45:57.195383,6158350.0
09:45:57.235383,6157335.0
09:45:57.275383,6157136.0
09:45:57.315383,6158872.0
09:45:57.355383,6158778.0
09:45:57.395383,6158308.0
09:45:57.435383,6157763.0
09:45:57.475383,6159221.0
09:45:57.515383,6157444.0
09:45:57.555383,6157060.0
09:45:57.595383,6157561.0
09:45:57.635383,6158640.0
09:45:57.675383,6157266.0
09:45:57.715383,6157303.0
09:45:57.755383,6160209.0
09:45:57.795383,6156604.0
09:45:57.835383,6157319.0
09:45:57.875383,6157531.0
09:45:57.915383,6158445.0
09:45:57.955383,6158499.0
09:45:57.995383,6158428.0
09:45:58.035383,6158742.0
09:45:58.075383,6158483.0
09:45:58.115383,6158278.0
09:45:58.155383,6157775.0
09:45:58.195383,6157988.0
09:45:58.235383,6158018.0
09:45:58.275383,6157791.0
09:45:58.315383,6160696.0
09:45:58.355383,6156220.0
09:45:58.395383,6158003.0
09:45:58.435383,6157749.0
09:45:58.475383,6157880.0
09:45:58.515383,6158033.0
09:45:58.555383,6158604.0
09:45:58.595383,6158855.0
09:45:58.635383,6158520.0
09:45:58.675383,6158138.0
09:45:58.715383,6158071.0
09:45:58.755383,6158782.0
09:45:58.795383,6157977.0
09:45:58.835383,6158083.0
09:45:58.875383,6158047.0
09:45:58.915383,6158160.0
09:45:58.955383,6159221.0
09:45:58.995383,6156720.0
09:45:59.035383,6157941.0
09:45:59.075383,6158064.0
09:45:59.115383,6158692.0
09:45:59.155383,6158572.0
09:45:59.195383,6158645.0
09:45:59.235383,6159029.0
09:45:59.372797,6158769.0
09:45:59.412797,6157403.0
09:45:59.452797,6158282.0
09:45:59.492797,6158018.0
09:45:59.532797,6158029.0
09:45:59.572797,6160736.0
09:45:59.612797,6156806.0
09:45:59.652797,6157999.0
09:45:59.692797,6158423.0
09:45:59.732797,6158000.0
09:45:59.772797,6158407.0
09:45:59.812797,6158739.0
09:45:59.852797,6159603.0
09:45:59.892797,6158806.0
09:45:59.932797,6158065.0
09:45:59.972797,6158017.0
09:46:00.012797,6158028.0
09:46:00.052797,6157669.0
09:46:00.092797,6157622.0
09:46:00.132797,6158929.0
09:46:00.172797,6158086.0
09:46:00.212797,6155366.0
09:46:00.252797,6157389.0
09:46:00.292797,6157686.0
09:46:00.332797,6158165.0
09:46:00.372797,6158058.0
09:46:00.412797,6158086.0
09:46:00.452797,6158562.0
09:46:00.492797,6160468.0
09:46:00.532797,6158644.0
09:46:00.572797,6158070.0
09:46:00.612797,6157450.0
09:46:00.652797,6157669.0
09:46:00.692797,6158273.0
09:46:00.732797,6158392.0
09:46:00.772797,6157836.0
09:46:00.812797,6157553.0
09:46:00.852797,6157840.0
09:46:00.892797,6158027.0
09:46:00.932797,6158181.0
09:46:00.972797,6160420.0
09:46:01.012797,6156229.0
09:46:01.052797,6159102.0
09:46:01.092797,6157626.0
09:46:01.132797,6157696.0
09:46:01.172797,6157694.0
09:46:01.212797,6157975.0
09:46:01.252797,6158941.0
09:46:01.292797,6158381.0
09:46:01.332797,6157546.0
09:46:01.372797,6157334.0
09:46:01.412797,6158745.0
09:46:01.452797,6157621.0
09:46:01.492797,6157704.0
09:46:01.532797,6157406.0
09:46:01.572797,6157221.0
09:46:01.612797,6157571.0
09:46:01.652797,6159828.0
09:46:01.692797,6155996.0
09:46:01.732797,6157373.0
09:46:01.772797,6157716.0
09:46:01.812797,6157388.0
09:46:01.852797,6157907.0
09:46:01.892797,6157970.0
09:46:01.932797,6159505.0
09:46:01.972797,6158268.0
09:46:02.012797,6157774.0
09:46:02.052797,6157088.0
09:46:02.092797,6157582.0
09:46:02.132797,6157439.0
09:46:02.172797,6157489.0
09:46:02.212797,6157408.0
09:46:02.252797,6160152.0
09:46:02.292797,6155073.0
09:46:02.332797,6157542.0
09:46:02.372797,6157396.0
09:46:02.412797,6157256.0
09:46:02.452797,6159238.0
09:46:02.492797,6158063.0
09:46:02.532797,6158703.0
09:46:02.572797,6158315.0
09:46:02.612797,6158404.0
09:46:02.652797,6157397.0
09:46:02.692797,6157333.0
09:46:02.732797,6158727.0
09:46:02.772797,6155163.0
09:46:02.812797,6157725.0
09:46:02.852797,6157733.0
09:46:02.892797,6157843.0
09:46:02.932797,6157866.0
09:46:02.972797,6158181.0
09:46:03.012797,6158911.0
09:46:03.052797,6158820.0
09:46:03.092797,6157788.0
09:46:03.132797,6157474.0
09:46:03.172797,6158449.0
09:46:03.212797,6158452.0
09:46:03.252797,6158134.0
09:46:03.292797,6157735.0
09:46:03.332797,6157525.0
09:46:03.674174,6158061.0
09:46:03.714174,6157526.0
09:46:03.754174,6157696.0
09:46:03.794174,6157990.0
09:46:03.834174,6158734.0
09:46:03.874174,6158336.0
09:46:03.914174,6158652.0
09:46:03.954174,6158260.0
09:46:03.994174,6157679.0
09:46:04.034174,6157519.0
09:46:04.074174,6157652.0
09:46:04.114174,6157767.0
09:46:04.154174,6157515.0
09:46:04.194174,6157831.0
09:46:04.234174,6157889.0
09:46:04.274174,6160563.0
09:46:04.314174,6154769.0
09:46:04.354174,6157548.0
09:46:04.394174,6157992.0
09:46:04.434174,6158130.0
09:46:04.474174,6157844.0
09:46:04.514174,6157657.0
09:46:04.554174,6159564.0
09:46:04.594174,6158973.0
09:46:04.634174,6157811.0
09:46:04.674174,6157210.0
09:46:04.714174,6157048.0
09:46:04.754174,6158794.0
09:46:04.794174,6157809.0
09:46:04.834174,6159006.0
09:46:04.874174,6155958.0
09:46:04.914174,6157059.0
09:46:04.954174,6159501.0
09:46:04.994174,6157755.0
09:46:05.034174,6157505.0
09:46:05.074174,6157810.0
09:46:05.114174,6159184.0
09:46:05.154174,6158457.0
09:46:05.194174,6157425.0
09:46:05.234174,6157183.0
09:46:05.274174,6159902.0
09:46:05.314174,6155550.0
09:46:05.354174,6157961.0
09:46:05.394174,6157477.0
09:46:05.434174,6157287.0
09:46:05.474174,6157573.0
09:46:05.514174,6158399.0
09:46:05.554174,6158670.0
09:46:05.594174,6158195.0
09:46:05.634174,6157571.0
09:46:05.674174,6159100.0
09:46:05.714174,6155930.0
09:46:05.754174,6158165.0
09:46:05.794174,6157750.0
09:46:05.834174,6157590.0
09:46:05.874174,6158642.0
09:46:05.914174,6158515.0
09:46:05.954174,6158827.0
09:46:05.994174,6158149.0
09:46:06.034174,6158014.0
09:46:06.074174,6158074.0
09:46:06.114174,6158480.0
09:46:06.154174,6158129.0
09:46:06.194174,6157006.0
09:46:06.234174,6155745.0
09:46:06.274174,6157488.0
09:46:06.314174,6158008.0
09:46:06.354174,6157614.0
09:46:06.394174,6157589.0
09:46:06.434174,6157884.0
09:46:06.474174,6158517.0
09:46:06.514174,6158307.0
09:46:06.554174,6157622.0
09:46:06.594174,6157688.0
09:46:06.634174,6157837.0
09:46:06.674174,6157516.0
09:46:06.714174,6157151.0
09:46:06.754174,6157418.0
09:46:06.794174,6159050.0
09:46:06.834174,6157816.0
09:46:06.874174,6157154.0
09:46:06.914174,6157021.0
09:46:06.954174,6158094.0
09:46:06.994174,6158189.0
09:46:07.034174,6157907.0
09:46:07.074174,6160506.0
09:46:07.114174,6155784.0
09:46:07.154174,6157865.0
09:46:07.194174,6157748.0
09:46:07.234174,6157629.0
09:46:07.274174,6157889.0
09:46:07.314174,6158473.0
09:46:07.354174,6158432.0
09:46:07.394174,6158268.0
09:46:07.434174,6157591.0
09:46:07.474174,6157937.0
09:46:07.514174,6157528.0
09:46:07.554174,6157764.0
09:46:07.594174,6158093.0
09:46:07.634174,6154709.0
09:46:10.637162,6157819.0
09:46:10.677162,6158003.0
09:46:10.717162,6158553.0
09:46:10.757162,6158716.0
09:46:10.797162,6157668.0
09:46:10.837162,6157527.0
09:46:10.877162,6157657.0
09:46:10.917162,6157766.0
09:46:10.957162,6159709.0
09:46:10.997162,6156775.0
09:46:11.037162,6157459.0
09:46:11.077162,6157420.0
09:46:11.117162,6157664.0
09:46:11.157162,6158735.0
09:46:11.197162,6158349.0
09:46:11.237162,6158650.0
09:46:11.277162,6157816.0
09:46:11.317162,6157302.0
09:46:11.357162,6157641.0
09:46:11.397162,6157270.0
09:46:11.437162,6160519.0
09:46:11.477162,6154605.0
09:46:11.517162,6158845.0
09:46:11.557162,6157391.0
09:46:11.597162,6156999.0
09:46:11.637162,6157275.0
09:46:11.677162,6159589.0
09:46:11.717162,6158114.0
09:46:11.757162,6156923.0
09:46:11.797162,6156764.0
09:46:11.837162,6158749.0
09:46:11.877162,6157167.0
09:46:11.917162,6156839.0
09:46:11.957162,6156970.0
09:46:11.997162,6157245.0
09:46:12.037162,6153833.0
09:46:12.077162,6156933.0
09:46:12.117162,6156792.0
09:46:12.157162,6157044.0
09:46:12.197162,6159041.0
09:46:12.237162,6157828.0
09:46:12.277162,6158056.0
09:46:12.317162,6158112.0
09:46:12.357162,6158621.0
09:46:12.397162,6157667.0
09:46:12.437162,6157054.0
09:46:12.477162,6157085.0
09:46:12.517162,6157551.0
09:46:12.557162,6157655.0
09:46:12.597162,6157469.0
09:46:12.637162,6157696.0
09:46:12.677162,6157422.0
09:46:12.717162,6160828.0
09:46:12.757162,6155118.0
09:46:12.797162,6157423.0
09:46:12.837162,6157480.0
09:46:12.877162,6158911.0
09:46:12.917162,6158119.0
09:46:12.957162,6158618.0
09:46:12.997162,6159006.0
09:46:13.037162,6158640.0
09:46:13.077162,6158212.0
09:46:13.117162,6157708.0
09:46:13.157162,6157319.0
09:46:13.197162,6157388.0
09:46:13.237162,6158423.0
09:46:13.277162,6158187.0
09:46:13.317162,6158260.0
09:46:13.357162,6157915.0
09:46:13.397162,6157913.0
09:46:13.437162,6158811.0
09:46:13.477162,6157884.0
09:46:13.517162,6157819.0
09:46:13.557162,6157966.0
09:46:13.597162,6157791.0
09:46:13.637162,6157794.0
09:46:13.677162,6160426.0
09:46:13.717162,6155568.0
09:46:13.757162,6157839.0
09:46:13.797162,6157655.0
09:46:13.837162,6157863.0
09:46:13.877162,6157720.0
09:46:13.917162,6158129.0
09:46:13.957162,6158452.0
09:46:13.997162,6158700.0
09:46:14.037162,6157999.0
09:46:14.077162,6158168.0
09:46:14.117162,6157266.0
09:46:14.157162,6157357.0
09:46:14.197162,6157823.0
09:46:14.237162,6157716.0
09:46:14.277162,6157554.0
09:46:14.317162,6157445.0
09:46:14.357162,6157380.0
09:46:14.397162,6157661.0
09:46:14.437162,6158101.0
09:46:14.477162,6158040.0
09:46:14.517162,6158074.0
09:46:14.557162,6157837.0
09:46:14.597162,6159034.0
09:46:17.806237,6157584.0
09:46:17.846237,6157740.0
09:46:17.886237,6157668.0
09:46:17.926237,6157679.0
09:46:17.966237,6158246.0
09:46:18.006237,6159041.0
09:46:18.046237,6158032.0
09:46:18.086237,6157568.0
09:46:18.126237,6157644.0
09:46:18.166237,6157917.0
09:46:18.206237,6158011.0
09:46:18.246237,6157916.0
09:46:18.286237,6157517.0
09:46:18.326237,6158688.0
09:46:18.366237,6157562.0
09:46:18.406237,6157035.0
09:46:18.446237,6157180.0
09:46:18.486237,6161261.0
09:46:18.526237,6154952.0
09:46:18.566237,6156928.0
09:46:18.606237,6157193.0
09:46:18.646237,6158405.0
09:46:18.686237,6157455.0
09:46:18.726237,6157417.0
09:46:18.766237,6159202.0
09:46:18.806237,6159096.0
09:46:18.846237,6157438.0
09:46:18.886237,6156988.0
09:46:18.926237,6158653.0
09:46:18.966237,6157775.0
09:46:19.006237,6157388.0
09:46:19.046237,6157279.0
09:46:19.086237,6158876.0
09:46:19.126237,6158125.0
09:46:19.166237,6157513.0
09:46:19.206237,6158790.0
09:46:19.246237,6155566.0
09:46:19.286237,6158437.0
09:46:19.326237,6157466.0
09:46:19.366237,6157433.0
09:46:19.406237,6157847.0
09:46:19.446237,6159835.0
09:46:19.486237,6158901.0
09:46:19.526237,6158853.0
09:46:19.566237,6157746.0
09:46:19.606237,6158629.0
09:46:19.646237,6157786.0
09:46:19.686237,6157986.0
09:46:19.726237,6157702.0
09:46:19.766237,6158767.0
09:46:19.806237,6159305.0
09:46:19.846237,6155475.0
09:46:19.886237,6158033.0
09:46:19.926237,6158312.0
09:46:19.966237,6158338.0
09:46:20.006237,6158395.0
09:46:20.046237,6158196.0
09:46:20.086237,6159283.0
09:46:20.126237,6159186.0
09:46:20.166237,6158141.0
09:46:20.206237,6157641.0
09:46:20.246237,6157763.0
09:46:20.286237,6157810.0
09:46:20.326237,6157976.0
09:46:20.366237,6157296.0
09:46:20.406237,6157602.0
09:46:20.446237,6160652.0
09:46:20.486237,6156278.0
09:46:20.526237,6157788.0
09:46:20.566237,6157220.0
09:46:20.606237,6157914.0
09:46:20.646237,6158409.0
09:46:20.686237,6158796.0
09:46:20.726237,6158736.0
09:46:20.766237,6159481.0
09:46:20.806237,6158077.0
09:46:20.846237,6158015.0
09:46:20.886237,6157623.0
09:46:20.926237,6157826.0
09:46:20.966237,6158067.0
09:46:21.006237,6157911.0
09:46:21.046237,6157669.0
09:46:21.086237,6157600.0
09:46:21.126237,6155024.0
09:46:21.166237,6157653.0
09:46:21.206237,6158021.0
09:46:21.246237,6157699.0
09:46:21.286237,6157872.0
09:46:21.326237,6158089.0
09:46:21.366237,6158843.0
09:46:21.406237,6158827.0
09:46:21.446237,6157519.0
09:46:21.486237,6157247.0
09:46:21.526237,6157991.0
09:46:21.566237,6159402.0
09:46:21.606237,6155386.0
09:46:21.646237,6157381.0
09:46:21.686237,6157167.0
09:46:21.726237,6157890.0
09:46:21.766237,6157852.0
09:46:22.313668,6157818.0
09:46:22.353668,6158281.0
09:46:22.393668,6158701.0
09:46:22.433668,6158970.0
09:46:22.473668,6158286.0
09:46:22.513668,6158146.0
09:46:22.553668,6157897.0
09:46:22.593668,6162092.0
09:46:22.633668,6158445.0
09:46:22.673668,6159171.0
09:46:22.713668,6157624.0
09:46:22.753668,6157734.0
09:46:22.793668,6157758.0
09:46:22.833668,6157064.0
