'Time','ECG1'
'[08:40:00.000]',-0.185
'[08:40:00.008]',-0.155
'[08:40:00.016]',-0.145
'[08:40:00.023]',-0.135
'[08:40:00.031]',-0.105
'[08:40:00.039]',-0.095
'[08:40:00.047]',-0.095
'[08:40:00.055]',-0.065
'[08:40:00.063]',-0.055
'[08:40:00.070]',-0.025
'[08:40:00.078]',-0.005
'[08:40:00.086]',0.025
'[08:40:00.094]',0.045
'[08:40:00.102]',0.075
'[08:40:00.109]',0.095
'[08:40:00.117]',0.105
'[08:40:00.125]',0.105
'[08:40:00.133]',0.115
'[08:40:00.141]',0.105
'[08:40:00.148]',0.075
'[08:40:00.156]',0.045
'[08:40:00.164]',0.005
'[08:40:00.172]',-0.045
'[08:40:00.180]',-0.075
'[08:40:00.188]',-0.105
'[08:40:00.195]',-0.115
'[08:40:00.203]',-0.125
'[08:40:00.211]',-0.125
'[08:40:00.219]',-0.125
'[08:40:00.227]',-0.125
'[08:40:00.234]',-0.125
'[08:40:00.242]',-0.135
'[08:40:00.250]',-0.135
'[08:40:00.258]',-0.135
'[08:40:00.266]',-0.135
'[08:40:00.273]',-0.125
'[08:40:00.281]',-0.125
'[08:40:00.289]',-0.125
'[08:40:00.297]',-0.135
'[08:40:00.305]',-0.135
'[08:40:00.313]',-0.155
'[08:40:00.320]',-0.145
'[08:40:00.328]',-0.165
'[08:40:00.336]',-0.165
'[08:40:00.344]',-0.155
'[08:40:00.352]',-0.175
'[08:40:00.359]',-0.165
'[08:40:00.367]',-0.145
'[08:40:00.375]',-0.095
'[08:40:00.383]',-0.045
'[08:40:00.391]',-0.055
'[08:40:00.398]',-0.105
'[08:40:00.406]',-0.105
'[08:40:00.414]',-0.165
'[08:40:00.422]',-0.195
'[08:40:00.430]',-0.205
'[08:40:00.438]',-0.225
'[08:40:00.445]',-0.215
'[08:40:00.453]',-0.215
'[08:40:00.461]',-0.215
'[08:40:00.469]',-0.205
'[08:40:00.477]',-0.205
'[08:40:00.484]',-0.215
'[08:40:00.492]',-0.215
'[08:40:00.500]',-0.215
'[08:40:00.508]',-0.215
'[08:40:00.516]',-0.195
'[08:40:00.523]',-0.175
'[08:40:00.531]',-0.265
'[08:40:00.539]',-0.435
'[08:40:00.547]',-0.235
'[08:40:00.555]',0.385
'[08:40:00.563]',1325
'[08:40:00.570]',1495
'[08:40:00.578]',0.355
'[08:40:00.586]',-0.515
'[08:40:00.594]',-0.565
'[08:40:00.602]',-0.365
'[08:40:00.609]',-0.225
'[08:40:00.617]',-0.205
'[08:40:00.625]',-0.215
'[08:40:00.633]',-0.235
'[08:40:00.641]',-0.225
'[08:40:00.648]',-0.225
'[08:40:00.656]',-0.215
'[08:40:00.664]',-0.195
'[08:40:00.672]',-0.195
'[08:40:00.680]',-0.205
'[08:40:00.688]',-0.175
'[08:40:00.695]',-0.185
'[08:40:00.703]',-0.175
'[08:40:00.711]',-0.165
'[08:40:00.719]',-0.145
'[08:40:00.727]',-0.125
'[08:40:00.734]',-0.115
'[08:40:00.742]',-0.105
'[08:40:00.750]',-0.085
'[08:40:00.758]',-0.085
'[08:40:00.766]',-0.055
'[08:40:00.773]',-0.045
'[08:40:00.781]',-0.015
'[08:40:00.789]',0.015
'[08:40:00.797]',0.035
'[08:40:00.805]',0.045
'[08:40:00.813]',0.085
'[08:40:00.820]',0.105
'[08:40:00.828]',0.135
'[08:40:00.836]',0.145
'[08:40:00.844]',0.155
'[08:40:00.852]',0.165
'[08:40:00.859]',0.145
'[08:40:00.867]',0.105
'[08:40:00.875]',0.085
'[08:40:00.883]',0.035
'[08:40:00.891]',0.005
'[08:40:00.898]',-0.035
'[08:40:00.906]',-0.065
'[08:40:00.914]',-0.065
'[08:40:00.922]',-0.085
'[08:40:00.930]',-0.095
'[08:40:00.938]',-0.095
'[08:40:00.945]',-0.095
'[08:40:00.953]',-0.105
'[08:40:00.961]',-0.105
'[08:40:00.969]',-0.085
'[08:40:00.977]',-0.085
'[08:40:00.984]',-0.095
'[08:40:00.992]',-0.095
'[08:40:01.000]',-0.085
'[08:40:01.008]',-0.085
'[08:40:01.016]',-0.085
'[08:40:01.023]',-0.095
'[08:40:01.031]',-0.085
'[08:40:01.039]',-0.085
'[08:40:01.047]',-0.095
'[08:40:01.055]',-0.105
'[08:40:01.063]',-0.125
'[08:40:01.070]',-0.115
'[08:40:01.078]',-0.125
'[08:40:01.086]',-0.135
'[08:40:01.094]',-0.125
'[08:40:01.102]',-0.115
'[08:40:01.109]',-0.135
'[08:40:01.117]',-0.145
'[08:40:01.125]',-0.125
'[08:40:01.133]',-0.065
'[08:40:01.141]',0.005
'[08:40:01.148]',0.005
'[08:40:01.156]',-0.035
'[08:40:01.164]',-0.055
'[08:40:01.172]',-0.085
'[08:40:01.180]',-0.135
'[08:40:01.188]',-0.145
'[08:40:01.195]',-0.165
'[08:40:01.203]',-0.165
'[08:40:01.211]',-0.165
'[08:40:01.219]',-0.175
'[08:40:01.227]',-0.155
'[08:40:01.234]',-0.165
'[08:40:01.242]',-0.175
'[08:40:01.250]',-0.155
'[08:40:01.258]',-0.165
'[08:40:01.266]',-0.155
'[08:40:01.273]',-0.145
'[08:40:01.281]',-0.155
'[08:40:01.289]',-0.395
'[08:40:01.297]',-0.255
'[08:40:01.305]',0.355
'[08:40:01.313]',1455
'[08:40:01.320]',1535
'[08:40:01.328]',0.085
'[08:40:01.336]',-0.575
'[08:40:01.344]',-0.455
'[08:40:01.352]',-0.225
'[08:40:01.359]',-0.125
'[08:40:01.367]',-0.155
'[08:40:01.375]',-0.185
'[08:40:01.383]',-0.175
'[08:40:01.391]',-0.175
'[08:40:01.398]',-0.175
'[08:40:01.406]',-0.155
'[08:40:01.414]',-0.165
'[08:40:01.422]',-0.155
'[08:40:01.430]',-0.155
'[08:40:01.438]',-0.145
'[08:40:01.445]',-0.125
'[08:40:01.453]',-0.125
'[08:40:01.461]',-0.115
'[08:40:01.469]',-0.095
'[08:40:01.477]',-0.085
'[08:40:01.484]',-0.065
'[08:40:01.492]',-0.055
'[08:40:01.500]',-0.055
'[08:40:01.508]',-0.025
'[08:40:01.516]',-0.005
'[08:40:01.523]',0.015
'[08:40:01.531]',0.045
'[08:40:01.539]',0.065
'[08:40:01.547]',0.075
'[08:40:01.555]',0.105
'[08:40:01.563]',0.135
'[08:40:01.570]',0.175
'[08:40:01.578]',0.195
'[08:40:01.586]',0.215
'[08:40:01.594]',0.235
'[08:40:01.602]',0.225
'[08:40:01.609]',0.195
'[08:40:01.617]',0.165
'[08:40:01.625]',0.115
'[08:40:01.633]',0.095
'[08:40:01.641]',0.045
'[08:40:01.648]',0.015
'[08:40:01.656]',-0.015
'[08:40:01.664]',-0.035
'[08:40:01.672]',-0.045
'[08:40:01.680]',-0.055
'[08:40:01.688]',-0.065
'[08:40:01.695]',-0.055
'[08:40:01.703]',-0.055
'[08:40:01.711]',-0.045
'[08:40:01.719]',-0.035
'[08:40:01.727]',-0.045
'[08:40:01.734]',-0.045
'[08:40:01.742]',-0.045
'[08:40:01.750]',-0.065
'[08:40:01.758]',-0.055
'[08:40:01.766]',-0.045
'[08:40:01.773]',-0.045
'[08:40:01.781]',-0.045
'[08:40:01.789]',-0.045
'[08:40:01.797]',-0.045
'[08:40:01.805]',-0.055
'[08:40:01.813]',-0.075
'[08:40:01.820]',-0.065
'[08:40:01.828]',-0.085
'[08:40:01.836]',-0.095
'[08:40:01.844]',-0.095
'[08:40:01.852]',-0.095
'[08:40:01.859]',-0.095
'[08:40:01.867]',-0.095
'[08:40:01.875]',-0.115
'[08:40:01.883]',-0.105
'[08:40:01.891]',-0.105
'[08:40:01.898]',-0.085
'[08:40:01.906]',-0.005
'[08:40:01.914]',0.055
'[08:40:01.922]',0.035
'[08:40:01.930]',-0.025
'[08:40:01.938]',-0.075
'[08:40:01.945]',-0.085
'[08:40:01.953]',-0.105
'[08:40:01.961]',-0.135
'[08:40:01.969]',-0.145
'[08:40:01.977]',-0.125
'[08:40:01.984]',-0.125
'[08:40:01.992]',-0.145
'[08:40:02.000]',-0.145
'[08:40:02.008]',-0.155
'[08:40:02.016]',-0.155
'[08:40:02.023]',-0.145
'[08:40:02.031]',-0.145
'[08:40:02.039]',-0.125
'[08:40:02.047]',-0.125
'[08:40:02.055]',-0.115
'[08:40:02.063]',-0.245
'[08:40:02.070]',-0.425
'[08:40:02.078]',-0.035
'[08:40:02.086]',0.775
'[08:40:02.094]',1745
'[08:40:02.102]',0.975
'[08:40:02.109]',-0.335
'[08:40:02.117]',-0.535
'[08:40:02.125]',-0.355
'[08:40:02.133]',-0.155
'[08:40:02.141]',-0.125
'[08:40:02.148]',-0.145
'[08:40:02.156]',-0.165
'[08:40:02.164]',-0.145
'[08:40:02.172]',-0.155
'[08:40:02.180]',-0.155
'[08:40:02.188]',-0.135
'[08:40:02.195]',-0.145
'[08:40:02.203]',-0.135
'[08:40:02.211]',-0.135
'[08:40:02.219]',-0.125
'[08:40:02.227]',-0.105
'[08:40:02.234]',-0.095
'[08:40:02.242]',-0.095
'[08:40:02.250]',-0.085
'[08:40:02.258]',-0.045
'[08:40:02.266]',-0.035
'[08:40:02.273]',-0.025
'[08:40:02.281]',0.005
'[08:40:02.289]',0.015
'[08:40:02.297]',0.025
'[08:40:02.305]',0.065
'[08:40:02.313]',0.075
'[08:40:02.320]',0.105
'[08:40:02.328]',0.135
'[08:40:02.336]',0.165
'[08:40:02.344]',0.195
'[08:40:02.352]',0.205
'[08:40:02.359]',0.215
'[08:40:02.367]',0.225
'[08:40:02.375]',0.195
'[08:40:02.383]',0.185
'[08:40:02.391]',0.135
'[08:40:02.398]',0.085
'[08:40:02.406]',0.065
'[08:40:02.414]',0.035
'[08:40:02.422]',-0.015
'[08:40:02.430]',-0.015
'[08:40:02.438]',-0.055
'[08:40:02.445]',-0.045
'[08:40:02.453]',-0.065
'[08:40:02.461]',-0.055
'[08:40:02.469]',-0.045
'[08:40:02.477]',-0.055
'[08:40:02.484]',-0.055
'[08:40:02.492]',-0.045
'[08:40:02.500]',-0.055
'[08:40:02.508]',-0.055
'[08:40:02.516]',-0.045
'[08:40:02.523]',-0.065
'[08:40:02.531]',-0.055
'[08:40:02.539]',-0.045
'[08:40:02.547]',-0.055
'[08:40:02.555]',-0.055
'[08:40:02.563]',-0.075
'[08:40:02.570]',-0.065
'[08:40:02.578]',-0.075
'[08:40:02.586]',-0.085
'[08:40:02.594]',-0.085
'[08:40:02.602]',-0.085
'[08:40:02.609]',-0.105
'[08:40:02.617]',-0.095
'[08:40:02.625]',-0.105
'[08:40:02.633]',-0.105
'[08:40:02.641]',-0.115
'[08:40:02.648]',-0.105
'[08:40:02.656]',-0.065
'[08:40:02.664]',-0.005
'[08:40:02.672]',0.035
'[08:40:02.680]',0.015
'[08:40:02.688]',-0.055
'[08:40:02.695]',-0.055
'[08:40:02.703]',-0.095
'[08:40:02.711]',-0.125
'[08:40:02.719]',-0.125
'[08:40:02.727]',-0.125
'[08:40:02.734]',-0.145
'[08:40:02.742]',-0.145
'[08:40:02.750]',-0.155
'[08:40:02.758]',-0.145
'[08:40:02.766]',-0.145
'[08:40:02.773]',-0.145
'[08:40:02.781]',-0.125
'[08:40:02.789]',-0.135
'[08:40:02.797]',-0.115
'[08:40:02.805]',-0.115
'[08:40:02.813]',-0.345
'[08:40:02.820]',-0.375
'[08:40:02.828]',0.025
'[08:40:02.836]',0.965
'[08:40:02.844]',1805
'[08:40:02.852]',1045
'[08:40:02.859]',-0.255
'[08:40:02.867]',-0.585
'[08:40:02.875]',-0.405
'[08:40:02.883]',-0.205
'[08:40:02.891]',-0.105
'[08:40:02.898]',-0.135
'[08:40:02.906]',-0.135
'[08:40:02.914]',-0.145
'[08:40:02.922]',-0.145
'[08:40:02.930]',-0.145
'[08:40:02.938]',-0.145
'[08:40:02.945]',-0.135
'[08:40:02.953]',-0.135
'[08:40:02.961]',-0.115
'[08:40:02.969]',-0.105
'[08:40:02.977]',-0.085
'[08:40:02.984]',-0.095
'[08:40:02.992]',-0.085
'[08:40:03.000]',-0.095
'[08:40:03.008]',-0.065
'[08:40:03.016]',-0.035
'[08:40:03.023]',-0.045
'[08:40:03.031]',-0.005
'[08:40:03.039]',0.025
'[08:40:03.047]',0.035
'[08:40:03.055]',0.035
'[08:40:03.063]',0.045
'[08:40:03.070]',0.095
'[08:40:03.078]',0.135
'[08:40:03.086]',0.135
'[08:40:03.094]',0.185
'[08:40:03.102]',0.205
'[08:40:03.109]',0.235
'[08:40:03.117]',0.235
'[08:40:03.125]',0.245
'[08:40:03.133]',0.245
'[08:40:03.141]',0.235
'[08:40:03.148]',0.185
'[08:40:03.156]',0.165
'[08:40:03.164]',0.125
'[08:40:03.172]',0.075
'[08:40:03.180]',0.035
'[08:40:03.188]',0.025
'[08:40:03.195]',-0.025
'[08:40:03.203]',-0.045
'[08:40:03.211]',-0.035
'[08:40:03.219]',-0.055
'[08:40:03.227]',-0.055
'[08:40:03.234]',-0.055
'[08:40:03.242]',-0.055
'[08:40:03.250]',-0.035
'[08:40:03.258]',-0.055
'[08:40:03.266]',-0.035
'[08:40:03.273]',-0.045
'[08:40:03.281]',-0.035
'[08:40:03.289]',-0.025
'[08:40:03.297]',-0.025
'[08:40:03.305]',-0.045
'[08:40:03.313]',-0.035
'[08:40:03.320]',-0.055
'[08:40:03.328]',-0.035
'[08:40:03.336]',-0.045
'[08:40:03.344]',-0.055
'[08:40:03.352]',-0.035
'[08:40:03.359]',-0.035
'[08:40:03.367]',0.035
'[08:40:03.375]',0.065
'[08:40:03.383]',0.015
'[08:40:03.391]',0.005
'[08:40:03.398]',-0.025
'[08:40:03.406]',-0.085
'[08:40:03.414]',-0.095
'[08:40:03.422]',-0.115
'[08:40:03.430]',-0.135
'[08:40:03.438]',-0.125
'[08:40:03.445]',-0.145
'[08:40:03.453]',-0.135
'[08:40:03.461]',-0.135
'[08:40:03.469]',-0.145
'[08:40:03.477]',-0.125
'[08:40:03.484]',-0.135
'[08:40:03.492]',-0.135
'[08:40:03.500]',-0.125
'[08:40:03.508]',-0.095
'[08:40:03.516]',-0.185
'[08:40:03.523]',-0.435
'[08:40:03.531]',-0.265
'[08:40:03.539]',0.555
'[08:40:03.547]',1665
'[08:40:03.555]',1495
'[08:40:03.563]',0.105
'[08:40:03.570]',-0.585
'[08:40:03.578]',-0.505
'[08:40:03.586]',-0.315
'[08:40:03.594]',-0.155
'[08:40:03.602]',-0.125
'[08:40:03.609]',-0.155
'[08:40:03.617]',-0.175
'[08:40:03.625]',-0.155
'[08:40:03.633]',-0.155
'[08:40:03.641]',-0.155
'[08:40:03.648]',-0.145
'[08:40:03.656]',-0.145
'[08:40:03.664]',-0.115
'[08:40:03.672]',-0.125
'[08:40:03.680]',-0.125
'[08:40:03.688]',-0.105
'[08:40:03.695]',-0.105
'[08:40:03.703]',-0.085
'[08:40:03.711]',-0.085
'[08:40:03.719]',-0.045
'[08:40:03.727]',-0.035
'[08:40:03.734]',-0.035
'[08:40:03.742]',-0.015
'[08:40:03.750]',-0.005
'[08:40:03.758]',0.045
'[08:40:03.766]',0.055
'[08:40:03.773]',0.065
'[08:40:03.781]',0.115
'[08:40:03.789]',0.135
'[08:40:03.797]',0.145
'[08:40:03.805]',0.165
'[08:40:03.813]',0.175
'[08:40:03.820]',0.205
'[08:40:03.828]',0.195
'[08:40:03.836]',0.155
'[08:40:03.844]',0.135
'[08:40:03.852]',0.085
'[08:40:03.859]',0.055
'[08:40:03.867]',0.015
'[08:40:03.875]',-0.045
'[08:40:03.883]',-0.055
'[08:40:03.891]',-0.065
'[08:40:03.898]',-0.085
'[08:40:03.906]',-0.075
'[08:40:03.914]',-0.075
'[08:40:03.922]',-0.085
'[08:40:03.930]',-0.085
'[08:40:03.938]',-0.095
'[08:40:03.945]',-0.085
'[08:40:03.953]',-0.075
'[08:40:03.961]',-0.075
'[08:40:03.969]',-0.065
'[08:40:03.977]',-0.065
'[08:40:03.984]',-0.065
'[08:40:03.992]',-0.065
'[08:40:04.000]',-0.085
'[08:40:04.008]',-0.075
'[08:40:04.016]',-0.075
'[08:40:04.023]',-0.085
'[08:40:04.031]',-0.085
'[08:40:04.039]',-0.095
'[08:40:04.047]',-0.075
'[08:40:04.055]',-0.055
'[08:40:04.063]',-0.015
'[08:40:04.070]',0.015
'[08:40:04.078]',-0.025
'[08:40:04.086]',-0.055
'[08:40:04.094]',-0.085
'[08:40:04.102]',-0.135
'[08:40:04.109]',-0.145
'[08:40:04.117]',-0.175
'[08:40:04.125]',-0.175
'[08:40:04.133]',-0.165
'[08:40:04.141]',-0.175
'[08:40:04.148]',-0.175
'[08:40:04.156]',-0.155
'[08:40:04.164]',-0.165
'[08:40:04.172]',-0.175
'[08:40:04.180]',-0.165
'[08:40:04.188]',-0.175
'[08:40:04.195]',-0.145
'[08:40:04.203]',-0.155
'[08:40:04.211]',-0.325
'[08:40:04.219]',-0.365
'[08:40:04.227]',-0.035
'[08:40:04.234]',0.715
'[08:40:04.242]',1625
'[08:40:04.250]',1215
'[08:40:04.258]',-0.085
'[08:40:04.266]',-0.575
'[08:40:04.273]',-0.465
'[08:40:04.281]',-0.235
'[08:40:04.289]',-0.145
'[08:40:04.297]',-0.175
'[08:40:04.305]',-0.185
'[08:40:04.313]',-0.205
'[08:40:04.320]',-0.185
'[08:40:04.328]',-0.185
'[08:40:04.336]',-0.175
'[08:40:04.344]',-0.155
'[08:40:04.352]',-0.165
'[08:40:04.359]',-0.155
'[08:40:04.367]',-0.145
'[08:40:04.375]',-0.165
'[08:40:04.383]',-0.135
'[08:40:04.391]',-0.125
'[08:40:04.398]',-0.115
'[08:40:04.406]',-0.095
'[08:40:04.414]',-0.085
'[08:40:04.422]',-0.065
'[08:40:04.430]',-0.045
'[08:40:04.438]',-0.045
'[08:40:04.445]',-0.015
'[08:40:04.453]',0.005
'[08:40:04.461]',0.025
'[08:40:04.469]',0.075
'[08:40:04.477]',0.075
'[08:40:04.484]',0.105
'[08:40:04.492]',0.125
'[08:40:04.500]',0.135
'[08:40:04.508]',0.165
'[08:40:04.516]',0.175
'[08:40:04.523]',0.185
'[08:40:04.531]',0.165
'[08:40:04.539]',0.125
'[08:40:04.547]',0.085
'[08:40:04.555]',0.035
'[08:40:04.563]',-0.015
'[08:40:04.570]',-0.035
'[08:40:04.578]',-0.065
'[08:40:04.586]',-0.085
'[08:40:04.594]',-0.075
'[08:40:04.602]',-0.105
'[08:40:04.609]',-0.115
'[08:40:04.617]',-0.115
'[08:40:04.625]',-0.125
'[08:40:04.633]',-0.105
'[08:40:04.641]',-0.095
'[08:40:04.648]',-0.115
'[08:40:04.656]',-0.095
'[08:40:04.664]',-0.085
'[08:40:04.672]',-0.095
'[08:40:04.680]',-0.095
'[08:40:04.688]',-0.115
'[08:40:04.695]',-0.095
'[08:40:04.703]',-0.095
'[08:40:04.711]',-0.095
'[08:40:04.719]',-0.095
'[08:40:04.727]',-0.085
'[08:40:04.734]',-0.095
'[08:40:04.742]',-0.115
'[08:40:04.750]',-0.135
'[08:40:04.758]',-0.115
'[08:40:04.766]',-0.125
'[08:40:04.773]',-0.145
'[08:40:04.781]',-0.135
'[08:40:04.789]',-0.105
'[08:40:04.797]',-0.055
'[08:40:04.805]',0.005
'[08:40:04.813]',-0.025
'[08:40:04.820]',-0.065
'[08:40:04.828]',-0.095
'[08:40:04.836]',-0.145
'[08:40:04.844]',-0.135
'[08:40:04.852]',-0.165
'[08:40:04.859]',-0.165
'[08:40:04.867]',-0.185
'[08:40:04.875]',-0.175
'[08:40:04.883]',-0.175
'[08:40:04.891]',-0.185
'[08:40:04.898]',-0.185
'[08:40:04.906]',-0.165
'[08:40:04.914]',-0.155
'[08:40:04.922]',-0.165
'[08:40:04.930]',-0.155
'[08:40:04.938]',-0.155
'[08:40:04.945]',-0.335
'[08:40:04.953]',-0.395
'[08:40:04.961]',0.065
'[08:40:04.969]',1025
'[08:40:04.977]',1755
'[08:40:04.984]',0.595
'[08:40:04.992]',-0.505
'[08:40:05.000]',-0.545
'[08:40:05.008]',-0.315
'[08:40:05.016]',-0.155
'[08:40:05.023]',-0.155
'[08:40:05.031]',-0.175
'[08:40:05.039]',-0.175
'[08:40:05.047]',-0.185
'[08:40:05.055]',-0.165
'[08:40:05.063]',-0.175
'[08:40:05.070]',-0.165
'[08:40:05.078]',-0.165
'[08:40:05.086]',-0.165
'[08:40:05.094]',-0.145
'[08:40:05.102]',-0.135
'[08:40:05.109]',-0.135
'[08:40:05.117]',-0.125
'[08:40:05.125]',-0.115
'[08:40:05.133]',-0.095
'[08:40:05.141]',-0.085
'[08:40:05.148]',-0.075
'[08:40:05.156]',-0.045
'[08:40:05.164]',-0.025
'[08:40:05.172]',-0.015
'[08:40:05.180]',0.005
'[08:40:05.188]',0.005
'[08:40:05.195]',0.055
'[08:40:05.203]',0.085
'[08:40:05.211]',0.095
'[08:40:05.219]',0.145
'[08:40:05.227]',0.165
'[08:40:05.234]',0.185
'[08:40:05.242]',0.185
'[08:40:05.250]',0.185
'[08:40:05.258]',0.215
'[08:40:05.266]',0.185
'[08:40:05.273]',0.145
'[08:40:05.281]',0.125
'[08:40:05.289]',0.085
'[08:40:05.297]',0.035
'[08:40:05.305]',0.005
'[08:40:05.313]',-0.015
'[08:40:05.320]',-0.065
'[08:40:05.328]',-0.075
'[08:40:05.336]',-0.075
'[08:40:05.344]',-0.075
'[08:40:05.352]',-0.065
'[08:40:05.359]',-0.085
'[08:40:05.367]',-0.085
'[08:40:05.375]',-0.075
'[08:40:05.383]',-0.095
'[08:40:05.391]',-0.075
'[08:40:05.398]',-0.075
'[08:40:05.406]',-0.075
'[08:40:05.414]',-0.065
'[08:40:05.422]',-0.065
'[08:40:05.430]',-0.065
'[08:40:05.438]',-0.075
'[08:40:05.445]',-0.095
'[08:40:05.453]',-0.075
'[08:40:05.461]',-0.085
'[08:40:05.469]',-0.075
'[08:40:05.477]',-0.075
'[08:40:05.484]',-0.085
'[08:40:05.492]',-0.095
'[08:40:05.500]',-0.105
'[08:40:05.508]',-0.135
'[08:40:05.516]',-0.115
'[08:40:05.523]',-0.115
'[08:40:05.531]',-0.125
'[08:40:05.539]',-0.105
'[08:40:05.547]',-0.125
'[08:40:05.555]',-0.125
'[08:40:05.563]',-0.115
'[08:40:05.570]',-0.145
'[08:40:05.578]',-0.125
'[08:40:05.586]',-0.115
'[08:40:05.594]',-0.125
'[08:40:05.602]',-0.125
'[08:40:05.609]',-0.115
'[08:40:05.617]',-0.125
'[08:40:05.625]',-0.125
'[08:40:05.633]',-0.145
'[08:40:05.641]',-0.125
'[08:40:05.648]',-0.135
'[08:40:05.656]',-0.095
'[08:40:05.664]',-0.035
'[08:40:05.672]',0.015
'[08:40:05.680]',-0.015
'[08:40:05.688]',-0.055
'[08:40:05.695]',-0.105
'[08:40:05.703]',-0.115
'[08:40:05.711]',-0.135
'[08:40:05.719]',-0.135
'[08:40:05.727]',-0.135
'[08:40:05.734]',-0.145
'[08:40:05.742]',-0.155
'[08:40:05.750]',-0.165
'[08:40:05.758]',-0.155
'[08:40:05.766]',-0.145
'[08:40:05.773]',-0.155
'[08:40:05.781]',-0.115
'[08:40:05.789]',-0.095
'[08:40:05.797]',-0.185
'[08:40:05.805]',-0.405
'[08:40:05.813]',-0.195
'[08:40:05.820]',0.435
'[08:40:05.828]',1555
'[08:40:05.836]',1445
'[08:40:05.844]',0.075
'[08:40:05.852]',-0.525
'[08:40:05.859]',-0.435
'[08:40:05.867]',-0.185
'[08:40:05.875]',-0.125
'[08:40:05.883]',-0.135
'[08:40:05.891]',-0.155
'[08:40:05.898]',-0.155
'[08:40:05.906]',-0.145
'[08:40:05.914]',-0.145
'[08:40:05.922]',-0.135
'[08:40:05.930]',-0.135
'[08:40:05.938]',-0.145
'[08:40:05.945]',-0.135
'[08:40:05.953]',-0.125
'[08:40:05.961]',-0.115
'[08:40:05.969]',-0.095
'[08:40:05.977]',-0.105
'[08:40:05.984]',-0.085
'[08:40:05.992]',-0.085
'[08:40:06.000]',-0.075
'[08:40:06.008]',-0.045
'[08:40:06.016]',-0.035
'[08:40:06.023]',-0.005
'[08:40:06.031]',0.015
'[08:40:06.039]',0.035
'[08:40:06.047]',0.055
'[08:40:06.055]',0.075
'[08:40:06.063]',0.085
'[08:40:06.070]',0.125
'[08:40:06.078]',0.165
'[08:40:06.086]',0.195
'[08:40:06.094]',0.235
'[08:40:06.102]',0.245
'[08:40:06.109]',0.255
'[08:40:06.117]',0.255
'[08:40:06.125]',0.235
'[08:40:06.133]',0.205
'[08:40:06.141]',0.175
'[08:40:06.148]',0.135
'[08:40:06.156]',0.105
'[08:40:06.164]',0.075
'[08:40:06.172]',0.015
'[08:40:06.180]',-0.015
'[08:40:06.188]',-0.015
'[08:40:06.195]',-0.055
'[08:40:06.203]',-0.045
'[08:40:06.211]',-0.065
'[08:40:06.219]',-0.055
'[08:40:06.227]',-0.045
'[08:40:06.234]',-0.045
'[08:40:06.242]',-0.045
'[08:40:06.250]',-0.055
'[08:40:06.258]',-0.055
'[08:40:06.266]',-0.055
'[08:40:06.273]',-0.055
'[08:40:06.281]',-0.045
'[08:40:06.289]',-0.035
'[08:40:06.297]',-0.055
'[08:40:06.305]',-0.055
'[08:40:06.313]',-0.075
'[08:40:06.320]',-0.065
'[08:40:06.328]',-0.055
'[08:40:06.336]',-0.065
'[08:40:06.344]',-0.055
'[08:40:06.352]',-0.075
'[08:40:06.359]',-0.085
'[08:40:06.367]',-0.105
'[08:40:06.375]',-0.115
'[08:40:06.383]',-0.105
'[08:40:06.391]',-0.105
'[08:40:06.398]',-0.105
'[08:40:06.406]',-0.105
'[08:40:06.414]',-0.105
'[08:40:06.422]',-0.105
'[08:40:06.430]',-0.115
'[08:40:06.438]',-0.135
'[08:40:06.445]',-0.115
'[08:40:06.453]',-0.105
'[08:40:06.461]',-0.115
'[08:40:06.469]',-0.095
'[08:40:06.477]',-0.105
'[08:40:06.484]',-0.115
'[08:40:06.492]',-0.105
'[08:40:06.500]',-0.115
'[08:40:06.508]',-0.115
'[08:40:06.516]',-0.105
'[08:40:06.523]',-0.105
'[08:40:06.531]',-0.105
'[08:40:06.539]',-0.095
'[08:40:06.547]',-0.115
'[08:40:06.555]',-0.105
'[08:40:06.563]',-0.115
'[08:40:06.570]',-0.105
'[08:40:06.578]',-0.065
'[08:40:06.586]',0.005
'[08:40:06.594]',0.055
'[08:40:06.602]',0.015
'[08:40:06.609]',-0.025
'[08:40:06.617]',-0.045
'[08:40:06.625]',-0.085
'[08:40:06.633]',-0.095
'[08:40:06.641]',-0.115
'[08:40:06.648]',-0.125
'[08:40:06.656]',-0.115
'[08:40:06.664]',-0.115
'[08:40:06.672]',-0.115
'[08:40:06.680]',-0.125
'[08:40:06.688]',-0.135
'[08:40:06.695]',-0.125
'[08:40:06.703]',-0.125
'[08:40:06.711]',-0.115
'[08:40:06.719]',-0.085
'[08:40:06.727]',-0.105
'[08:40:06.734]',-0.295
'[08:40:06.742]',-0.305
'[08:40:06.750]',0.065
'[08:40:06.758]',0.875
'[08:40:06.766]',1605
'[08:40:06.773]',1005
'[08:40:06.781]',-0.105
'[08:40:06.789]',-0.485
'[08:40:06.797]',-0.375
'[08:40:06.805]',-0.225
'[08:40:06.813]',-0.135
'[08:40:06.820]',-0.135
'[08:40:06.828]',-0.145
'[08:40:06.836]',-0.155
'[08:40:06.844]',-0.145
'[08:40:06.852]',-0.135
'[08:40:06.859]',-0.135
'[08:40:06.867]',-0.145
'[08:40:06.875]',-0.135
'[08:40:06.883]',-0.125
'[08:40:06.891]',-0.125
'[08:40:06.898]',-0.115
'[08:40:06.906]',-0.115
'[08:40:06.914]',-0.105
'[08:40:06.922]',-0.095
'[08:40:06.930]',-0.085
'[08:40:06.938]',-0.055
'[08:40:06.945]',-0.055
'[08:40:06.953]',-0.035
'[08:40:06.961]',-0.025
'[08:40:06.969]',-0.015
'[08:40:06.977]',0.015
'[08:40:06.984]',0.035
'[08:40:06.992]',0.055
'[08:40:07.000]',0.085
'[08:40:07.008]',0.095
'[08:40:07.016]',0.145
'[08:40:07.023]',0.165
'[08:40:07.031]',0.185
'[08:40:07.039]',0.215
'[08:40:07.047]',0.225
'[08:40:07.055]',0.215
'[08:40:07.063]',0.215
'[08:40:07.070]',0.165
'[08:40:07.078]',0.135
'[08:40:07.086]',0.095
'[08:40:07.094]',0.045
'[08:40:07.102]',0.025
'[08:40:07.109]',-0.025
'[08:40:07.117]',-0.055
'[08:40:07.125]',-0.055
'[08:40:07.133]',-0.085
'[08:40:07.141]',-0.095
'[08:40:07.148]',-0.115
'[08:40:07.156]',-0.115
'[08:40:07.164]',-0.095
'[08:40:07.172]',-0.105
'[08:40:07.180]',-0.115
'[08:40:07.188]',-0.105
'[08:40:07.195]',-0.095
'[08:40:07.203]',-0.095
'[08:40:07.211]',-0.105
'[08:40:07.219]',-0.095
'[08:40:07.227]',-0.085
'[08:40:07.234]',-0.095
'[08:40:07.242]',-0.095
'[08:40:07.250]',-0.095
'[08:40:07.258]',-0.105
'[08:40:07.266]',-0.105
'[08:40:07.273]',-0.115
'[08:40:07.281]',-0.115
'[08:40:07.289]',-0.115
'[08:40:07.297]',-0.125
'[08:40:07.305]',-0.135
'[08:40:07.313]',-0.155
'[08:40:07.320]',-0.145
'[08:40:07.328]',-0.145
'[08:40:07.336]',-0.155
'[08:40:07.344]',-0.145
'[08:40:07.352]',-0.145
'[08:40:07.359]',-0.155
'[08:40:07.367]',-0.165
'[08:40:07.375]',-0.175
'[08:40:07.383]',-0.145
'[08:40:07.391]',-0.065
'[08:40:07.398]',-0.025
'[08:40:07.406]',-0.035
'[08:40:07.414]',-0.085
'[08:40:07.422]',-0.095
'[08:40:07.430]',-0.145
'[08:40:07.438]',-0.175
'[08:40:07.445]',-0.165
'[08:40:07.453]',-0.175
'[08:40:07.461]',-0.195
'[08:40:07.469]',-0.185
'[08:40:07.477]',-0.185
'[08:40:07.484]',-0.175
'[08:40:07.492]',-0.195
'[08:40:07.500]',-0.175
'[08:40:07.508]',-0.175
'[08:40:07.516]',-0.175
'[08:40:07.523]',-0.165
'[08:40:07.531]',-0.135
'[08:40:07.539]',-0.195
'[08:40:07.547]',-0.445
'[08:40:07.555]',-0.335
'[08:40:07.563]',0.205
'[08:40:07.570]',1285
'[08:40:07.578]',1785
'[08:40:07.586]',0.675
'[08:40:07.594]',-0.395
'[08:40:07.602]',-0.595
'[08:40:07.609]',-0.445
'[08:40:07.617]',-0.265
'[08:40:07.625]',-0.175
'[08:40:07.633]',-0.185
'[08:40:07.641]',-0.185
'[08:40:07.648]',-0.195
'[08:40:07.656]',-0.185
'[08:40:07.664]',-0.205
'[08:40:07.672]',-0.175
'[08:40:07.680]',-0.175
'[08:40:07.688]',-0.155
'[08:40:07.695]',-0.155
'[08:40:07.703]',-0.155
'[08:40:07.711]',-0.165
'[08:40:07.719]',-0.135
'[08:40:07.727]',-0.125
'[08:40:07.734]',-0.135
'[08:40:07.742]',-0.135
'[08:40:07.750]',-0.105
'[08:40:07.758]',-0.085
'[08:40:07.766]',-0.065
'[08:40:07.773]',-0.045
'[08:40:07.781]',-0.005
'[08:40:07.789]',0.015
'[08:40:07.797]',0.025
'[08:40:07.805]',0.045
'[08:40:07.813]',0.095
'[08:40:07.820]',0.105
'[08:40:07.828]',0.125
'[08:40:07.836]',0.145
'[08:40:07.844]',0.165
'[08:40:07.852]',0.155
'[08:40:07.859]',0.165
'[08:40:07.867]',0.135
'[08:40:07.875]',0.085
'[08:40:07.883]',0.025
'[08:40:07.891]',0.015
'[08:40:07.898]',-0.025
'[08:40:07.906]',-0.075
'[08:40:07.914]',-0.105
'[08:40:07.922]',-0.085
'[08:40:07.930]',-0.155
'[08:40:07.938]',-0.165
'[08:40:07.945]',-0.155
'[08:40:07.953]',-0.135
'[08:40:07.961]',-0.165
'[08:40:07.969]',-0.175
'[08:40:07.977]',-0.115
'[08:40:07.984]',-0.135
'[08:40:07.992]',-0.155
'[08:40:08.000]',-0.125
'[08:40:08.008]',-0.145
'[08:40:08.016]',-0.115
'[08:40:08.023]',-0.115
'[08:40:08.031]',-0.105
'[08:40:08.039]',-0.115
'[08:40:08.047]',-0.115
'[08:40:08.055]',-0.125
'[08:40:08.063]',-0.115
'[08:40:08.070]',-0.145
'[08:40:08.078]',-0.135
'[08:40:08.086]',-0.135
'[08:40:08.094]',-0.155
'[08:40:08.102]',-0.135
'[08:40:08.109]',-0.185
'[08:40:08.117]',-0.115
'[08:40:08.125]',-0.095
'[08:40:08.133]',-0.035
'[08:40:08.141]',-0.065
'[08:40:08.148]',-0.085
'[08:40:08.156]',-0.095
'[08:40:08.164]',-0.155
'[08:40:08.172]',-0.205
'[08:40:08.180]',-0.205
'[08:40:08.188]',-0.225
'[08:40:08.195]',-0.225
'[08:40:08.203]',-0.225
'[08:40:08.211]',-0.205
'[08:40:08.219]',-0.215
'[08:40:08.227]',-0.205
'[08:40:08.234]',-0.205
'[08:40:08.242]',-0.215
'[08:40:08.250]',-0.225
'[08:40:08.258]',-0.205
'[08:40:08.266]',-0.185
'[08:40:08.273]',-0.195
'[08:40:08.281]',-0.355
'[08:40:08.289]',-0.225
'[08:40:08.297]',0.295
'[08:40:08.305]',1115
'[08:40:08.313]',1495
'[08:40:08.320]',0.405
'[08:40:08.328]',-0.365
'[08:40:08.336]',-0.505
'[08:40:08.344]',-0.345
'[08:40:08.352]',-0.235
'[08:40:08.359]',-0.195
'[08:40:08.367]',-0.185
'[08:40:08.375]',-0.195
'[08:40:08.383]',-0.185
'[08:40:08.391]',-0.175
'[08:40:08.398]',-0.195
'[08:40:08.406]',-0.155
'[08:40:08.414]',-0.155
'[08:40:08.422]',-0.165
'[08:40:08.430]',-0.125
'[08:40:08.438]',-0.105
'[08:40:08.445]',-0.115
'[08:40:08.453]',-0.125
'[08:40:08.461]',-0.065
'[08:40:08.469]',-0.055
'[08:40:08.477]',-0.045
'[08:40:08.484]',-0.055
'[08:40:08.492]',-0.025
'[08:40:08.500]',-0.015
'[08:40:08.508]',0.005
'[08:40:08.516]',0.025
'[08:40:08.523]',0.055
'[08:40:08.531]',0.065
'[08:40:08.539]',0.085
'[08:40:08.547]',0.115
'[08:40:08.555]',0.125
'[08:40:08.563]',0.155
'[08:40:08.570]',0.165
'[08:40:08.578]',0.195
'[08:40:08.586]',0.175
'[08:40:08.594]',0.165
'[08:40:08.602]',0.125
'[08:40:08.609]',0.105
'[08:40:08.617]',0.025
'[08:40:08.625]',-0.015
'[08:40:08.633]',-0.045
'[08:40:08.641]',-0.085
'[08:40:08.648]',-0.115
'[08:40:08.656]',-0.125
'[08:40:08.664]',-0.145
'[08:40:08.672]',-0.185
'[08:40:08.680]',-0.175
'[08:40:08.688]',-0.195
'[08:40:08.695]',-0.165
'[08:40:08.703]',-0.185
'[08:40:08.711]',-0.185
'[08:40:08.719]',-0.155
'[08:40:08.727]',-0.155
'[08:40:08.734]',-0.165
'[08:40:08.742]',-0.155
'[08:40:08.750]',-0.145
'[08:40:08.758]',-0.135
'[08:40:08.766]',-0.145
'[08:40:08.773]',-0.155
'[08:40:08.781]',-0.135
'[08:40:08.789]',-0.145
'[08:40:08.797]',-0.155
'[08:40:08.805]',-0.145
'[08:40:08.813]',-0.155
'[08:40:08.820]',-0.185
'[08:40:08.828]',-0.155
'[08:40:08.836]',-0.115
'[08:40:08.844]',-0.075
'[08:40:08.852]',-0.035
'[08:40:08.859]',-0.085
'[08:40:08.867]',-0.105
'[08:40:08.875]',-0.125
'[08:40:08.883]',-0.195
'[08:40:08.891]',-0.195
'[08:40:08.898]',-0.215
'[08:40:08.906]',-0.215
'[08:40:08.914]',-0.205
'[08:40:08.922]',-0.205
'[08:40:08.930]',-0.225
'[08:40:08.938]',-0.215
'[08:40:08.945]',-0.215
'[08:40:08.953]',-0.205
'[08:40:08.961]',-0.215
'[08:40:08.969]',-0.205
'[08:40:08.977]',-0.195
'[08:40:08.984]',-0.175
'[08:40:08.992]',-0.295
'[08:40:09.000]',-0.495
'[08:40:09.008]',-0.275
'[08:40:09.016]',0.485
'[08:40:09.023]',1555
'[08:40:09.031]',1675
'[08:40:09.039]',0.065
'[08:40:09.047]',-0.635
'[08:40:09.055]',-0.565
'[08:40:09.063]',-0.345
'[08:40:09.070]',-0.225
'[08:40:09.078]',-0.205
'[08:40:09.086]',-0.215
'[08:40:09.094]',-0.215
'[08:40:09.102]',-0.205
'[08:40:09.109]',-0.205
'[08:40:09.117]',-0.225
'[08:40:09.125]',-0.215
'[08:40:09.133]',-0.205
'[08:40:09.141]',-0.195
'[08:40:09.148]',-0.195
'[08:40:09.156]',-0.165
'[08:40:09.164]',-0.155
'[08:40:09.172]',-0.155
'[08:40:09.180]',-0.165
'[08:40:09.188]',-0.145
'[08:40:09.195]',-0.115
'[08:40:09.203]',-0.105
'[08:40:09.211]',-0.085
'[08:40:09.219]',-0.045
'[08:40:09.227]',-0.045
'[08:40:09.234]',-0.025
'[08:40:09.242]',0.005
'[08:40:09.250]',0.025
'[08:40:09.258]',0.065
'[08:40:09.266]',0.095
'[08:40:09.273]',0.115
'[08:40:09.281]',0.145
'[08:40:09.289]',0.155
'[08:40:09.297]',0.155
'[08:40:09.305]',0.145
'[08:40:09.313]',0.105
'[08:40:09.320]',0.085
'[08:40:09.328]',0.025
'[08:40:09.336]',-0.025
'[08:40:09.344]',-0.045
'[08:40:09.352]',-0.075
'[08:40:09.359]',-0.105
'[08:40:09.367]',-0.125
'[08:40:09.375]',-0.155
'[08:40:09.383]',-0.155
'[08:40:09.391]',-0.155
'[08:40:09.398]',-0.155
'[08:40:09.406]',-0.155
'[08:40:09.414]',-0.155
'[08:40:09.422]',-0.145
'[08:40:09.430]',-0.155
'[08:40:09.438]',-0.175
'[08:40:09.445]',-0.155
'[08:40:09.453]',-0.145
'[08:40:09.461]',-0.135
'[08:40:09.469]',-0.135
'[08:40:09.477]',-0.145
'[08:40:09.484]',-0.135
'[08:40:09.492]',-0.135
'[08:40:09.500]',-0.145
'[08:40:09.508]',-0.145
'[08:40:09.516]',-0.145
'[08:40:09.523]',-0.145
'[08:40:09.531]',-0.145
'[08:40:09.539]',-0.145
'[08:40:09.547]',-0.155
'[08:40:09.555]',-0.165
'[08:40:09.563]',-0.175
'[08:40:09.570]',-0.165
'[08:40:09.578]',-0.095
'[08:40:09.586]',-0.045
'[08:40:09.594]',-0.065
'[08:40:09.602]',-0.095
'[08:40:09.609]',-0.115
'[08:40:09.617]',-0.155
'[08:40:09.625]',-0.175
'[08:40:09.633]',-0.205
'[08:40:09.641]',-0.205
'[08:40:09.648]',-0.215
'[08:40:09.656]',-0.215
'[08:40:09.664]',-0.195
'[08:40:09.672]',-0.205
'[08:40:09.680]',-0.215
'[08:40:09.688]',-0.205
'[08:40:09.695]',-0.205
'[08:40:09.703]',-0.205
'[08:40:09.711]',-0.195
'[08:40:09.719]',-0.165
'[08:40:09.727]',-0.235
'[08:40:09.734]',-0.435
'[08:40:09.742]',-0.205
'[08:40:09.750]',0.455
'[08:40:09.758]',1485
'[08:40:09.766]',1435
'[08:40:09.773]',-0.055
'[08:40:09.781]',-0.625
'[08:40:09.789]',-0.465
'[08:40:09.797]',-0.255
'[08:40:09.805]',-0.185
'[08:40:09.813]',-0.215
'[08:40:09.820]',-0.205
'[08:40:09.828]',-0.205
'[08:40:09.836]',-0.205
'[08:40:09.844]',-0.195
'[08:40:09.852]',-0.195
'[08:40:09.859]',-0.195
'[08:40:09.867]',-0.185
'[08:40:09.875]',-0.185
'[08:40:09.883]',-0.175
'[08:40:09.891]',-0.155
'[08:40:09.898]',-0.145
'[08:40:09.906]',-0.125
'[08:40:09.914]',-0.125
'[08:40:09.922]',-0.115
'[08:40:09.930]',-0.095
'[08:40:09.938]',-0.085
'[08:40:09.945]',-0.055
'[08:40:09.953]',-0.035
'[08:40:09.961]',-0.025
'[08:40:09.969]',0.015
'[08:40:09.977]',0.045
'[08:40:09.984]',0.065
'[08:40:09.992]',0.095
'[08:40:10.000]',0.125
'[08:40:10.008]',0.155
'[08:40:10.016]',0.185
'[08:40:10.023]',0.205
'[08:40:10.031]',0.215
'[08:40:10.039]',0.195
'[08:40:10.047]',0.165
'[08:40:10.055]',0.145
'[08:40:10.063]',0.075
'[08:40:10.070]',0.055
'[08:40:10.078]',0.015
'[08:40:10.086]',-0.025
'[08:40:10.094]',-0.035
'[08:40:10.102]',-0.065
'[08:40:10.109]',-0.085
'[08:40:10.117]',-0.105
'[08:40:10.125]',-0.125
'[08:40:10.133]',-0.105
'[08:40:10.141]',-0.095
'[08:40:10.148]',-0.095
'[08:40:10.156]',-0.115
'[08:40:10.164]',-0.095
'[08:40:10.172]',-0.105
'[08:40:10.180]',-0.115
'[08:40:10.188]',-0.095
'[08:40:10.195]',-0.095
'[08:40:10.203]',-0.095
'[08:40:10.211]',-0.105
'[08:40:10.219]',-0.095
'[08:40:10.227]',-0.075
'[08:40:10.234]',-0.085
'[08:40:10.242]',-0.095
'[08:40:10.250]',-0.075
'[08:40:10.258]',-0.105
'[08:40:10.266]',-0.105
'[08:40:10.273]',-0.105
'[08:40:10.281]',-0.105
'[08:40:10.289]',-0.095
'[08:40:10.297]',-0.115
'[08:40:10.305]',-0.115
'[08:40:10.313]',-0.105
'[08:40:10.320]',-0.145
'[08:40:10.328]',-0.105
'[08:40:10.336]',-0.095
'[08:40:10.344]',-0.015
'[08:40:10.352]',0.025
'[08:40:10.359]',-0.035
'[08:40:10.367]',-0.065
'[08:40:10.375]',-0.095
'[08:40:10.383]',-0.135
'[08:40:10.391]',-0.135
'[08:40:10.398]',-0.155
'[08:40:10.406]',-0.145
'[08:40:10.414]',-0.145
'[08:40:10.422]',-0.155
'[08:40:10.430]',-0.155
'[08:40:10.438]',-0.155
'[08:40:10.445]',-0.175
'[08:40:10.453]',-0.155
'[08:40:10.461]',-0.165
'[08:40:10.469]',-0.145
'[08:40:10.477]',-0.125
'[08:40:10.484]',-0.135
'[08:40:10.492]',-0.335
'[08:40:10.500]',-0.295
'[08:40:10.508]',0.265
'[08:40:10.516]',1285
'[08:40:10.523]',1745
'[08:40:10.531]',0.435
'[08:40:10.539]',-0.555
'[08:40:10.547]',-0.495
'[08:40:10.555]',-0.245
'[08:40:10.563]',-0.145
'[08:40:10.570]',-0.145
'[08:40:10.578]',-0.165
'[08:40:10.586]',-0.165
'[08:40:10.594]',-0.145
'[08:40:10.602]',-0.155
'[08:40:10.609]',-0.155
'[08:40:10.617]',-0.135
'[08:40:10.625]',-0.145
'[08:40:10.633]',-0.135
'[08:40:10.641]',-0.135
'[08:40:10.648]',-0.115
'[08:40:10.656]',-0.105
'[08:40:10.664]',-0.085
'[08:40:10.672]',-0.075
'[08:40:10.680]',-0.065
'[08:40:10.688]',-0.065
'[08:40:10.695]',-0.035
'[08:40:10.703]',-0.025
'[08:40:10.711]',-0.005
'[08:40:10.719]',0.025
'[08:40:10.727]',0.045
'[08:40:10.734]',0.055
'[08:40:10.742]',0.075
'[08:40:10.750]',0.095
'[08:40:10.758]',0.135
'[08:40:10.766]',0.155
'[08:40:10.773]',0.185
'[08:40:10.781]',0.215
'[08:40:10.789]',0.235
'[08:40:10.797]',0.235
'[08:40:10.805]',0.205
'[08:40:10.813]',0.175
'[08:40:10.820]',0.155
'[08:40:10.828]',0.125
'[08:40:10.836]',0.075
'[08:40:10.844]',0.045
'[08:40:10.852]',0.015
'[08:40:10.859]',-0.015
'[08:40:10.867]',-0.045
'[08:40:10.875]',-0.055
'[08:40:10.883]',-0.055
'[08:40:10.891]',-0.055
'[08:40:10.898]',-0.065
'[08:40:10.906]',-0.055
'[08:40:10.914]',-0.045
'[08:40:10.922]',-0.065
'[08:40:10.930]',-0.065
'[08:40:10.938]',-0.055
'[08:40:10.945]',-0.055
'[08:40:10.953]',-0.055
'[08:40:10.961]',-0.055
'[08:40:10.969]',-0.055
'[08:40:10.977]',-0.045
'[08:40:10.984]',-0.045
'[08:40:10.992]',-0.055
'[08:40:11.000]',-0.045
'[08:40:11.008]',-0.055
'[08:40:11.016]',-0.055
'[08:40:11.023]',-0.065
'[08:40:11.031]',-0.065
'[08:40:11.039]',-0.065
'[08:40:11.047]',-0.065
'[08:40:11.055]',-0.075
'[08:40:11.063]',-0.075
'[08:40:11.070]',-0.085
'[08:40:11.078]',-0.085
'[08:40:11.086]',-0.095
'[08:40:11.094]',-0.085
'[08:40:11.102]',-0.085
'[08:40:11.109]',-0.085
'[08:40:11.117]',-0.095
'[08:40:11.125]',-0.095
'[08:40:11.133]',-0.095
'[08:40:11.141]',-0.085
'[08:40:11.148]',-0.085
'[08:40:11.156]',-0.085
'[08:40:11.164]',-0.075
'[08:40:11.172]',-0.055
'[08:40:11.180]',0.025
'[08:40:11.188]',0.025
'[08:40:11.195]',-0.015
'[08:40:11.203]',-0.025
'[08:40:11.211]',-0.055
'[08:40:11.219]',-0.055
'[08:40:11.227]',-0.085
'[08:40:11.234]',-0.105
'[08:40:11.242]',-0.105
'[08:40:11.250]',-0.125
'[08:40:11.258]',-0.115
'[08:40:11.266]',-0.115
'[08:40:11.273]',-0.115
'[08:40:11.281]',-0.105
'[08:40:11.289]',-0.105
'[08:40:11.297]',-0.105
'[08:40:11.305]',-0.085
'[08:40:11.313]',-0.085
'[08:40:11.320]',-0.225
'[08:40:11.328]',-0.315
'[08:40:11.336]',0.025
'[08:40:11.344]',0.775
'[08:40:11.352]',1685
'[08:40:11.359]',1175
'[08:40:11.367]',-0.145
'[08:40:11.375]',-0.525
'[08:40:11.383]',-0.365
'[08:40:11.391]',-0.155
'[08:40:11.398]',-0.095
'[08:40:11.406]',-0.105
'[08:40:11.414]',-0.125
'[08:40:11.422]',-0.135
'[08:40:11.430]',-0.125
'[08:40:11.438]',-0.145
'[08:40:11.445]',-0.125
'[08:40:11.453]',-0.115
'[08:40:11.461]',-0.115
'[08:40:11.469]',-0.095
'[08:40:11.477]',-0.095
'[08:40:11.484]',-0.095
'[08:40:11.492]',-0.105
'[08:40:11.500]',-0.095
'[08:40:11.508]',-0.065
'[08:40:11.516]',-0.045
'[08:40:11.523]',-0.055
'[08:40:11.531]',-0.015
'[08:40:11.539]',-0.005
'[08:40:11.547]',0.015
'[08:40:11.555]',0.025
'[08:40:11.563]',0.045
'[08:40:11.570]',0.075
'[08:40:11.578]',0.105
'[08:40:11.586]',0.145
'[08:40:11.594]',0.165
'[08:40:11.602]',0.205
'[08:40:11.609]',0.225
'[08:40:11.617]',0.255
'[08:40:11.625]',0.275
'[08:40:11.633]',0.285
'[08:40:11.641]',0.275
'[08:40:11.648]',0.255
'[08:40:11.656]',0.215
'[08:40:11.664]',0.185
'[08:40:11.672]',0.135
'[08:40:11.680]',0.085
'[08:40:11.688]',0.055
'[08:40:11.695]',0.015
'[08:40:11.703]',-0.005
'[08:40:11.711]',-0.025
'[08:40:11.719]',-0.025
'[08:40:11.727]',-0.035
'[08:40:11.734]',-0.035
'[08:40:11.742]',-0.045
'[08:40:11.750]',-0.035
'[08:40:11.758]',-0.045
'[08:40:11.766]',-0.035
'[08:40:11.773]',-0.035
'[08:40:11.781]',-0.035
'[08:40:11.789]',-0.025
'[08:40:11.797]',-0.035
'[08:40:11.805]',-0.045
'[08:40:11.813]',-0.025
'[08:40:11.820]',-0.045
'[08:40:11.828]',-0.035
'[08:40:11.836]',-0.035
'[08:40:11.844]',-0.045
'[08:40:11.852]',-0.035
'[08:40:11.859]',-0.055
'[08:40:11.867]',-0.065
'[08:40:11.875]',-0.065
'[08:40:11.883]',-0.065
'[08:40:11.891]',-0.085
'[08:40:11.898]',-0.095
'[08:40:11.906]',-0.095
'[08:40:11.914]',-0.085
'[08:40:11.922]',-0.105
'[08:40:11.930]',-0.115
'[08:40:11.938]',-0.105
'[08:40:11.945]',-0.105
'[08:40:11.953]',-0.105
'[08:40:11.961]',-0.115
'[08:40:11.969]',-0.095
'[08:40:11.977]',-0.095
'[08:40:11.984]',-0.105
'[08:40:11.992]',-0.105
'[08:40:12.000]',-0.125
'[08:40:12.008]',-0.115
'[08:40:12.016]',-0.095
'[08:40:12.023]',-0.055
'[08:40:12.031]',0.025
'[08:40:12.039]',0.045
'[08:40:12.047]',0.005
'[08:40:12.055]',-0.025
'[08:40:12.063]',-0.085
'[08:40:12.070]',-0.075
'[08:40:12.078]',-0.105
'[08:40:12.086]',-0.125
'[08:40:12.094]',-0.115
'[08:40:12.102]',-0.125
'[08:40:12.109]',-0.135
'[08:40:12.117]',-0.135
'[08:40:12.125]',-0.135
'[08:40:12.133]',-0.135
'[08:40:12.141]',-0.135
'[08:40:12.148]',-0.125
'[08:40:12.156]',-0.105
'[08:40:12.164]',-0.075
'[08:40:12.172]',-0.185
'[08:40:12.180]',-0.375
'[08:40:12.188]',-0.185
'[08:40:12.195]',0.425
'[08:40:12.203]',1475
'[08:40:12.211]',1555
'[08:40:12.219]',0.135
'[08:40:12.227]',-0.505
'[08:40:12.234]',-0.425
'[08:40:12.242]',-0.185
'[08:40:12.250]',-0.115
'[08:40:12.258]',-0.115
'[08:40:12.266]',-0.145
'[08:40:12.273]',-0.145
'[08:40:12.281]',-0.135
'[08:40:12.289]',-0.125
'[08:40:12.297]',-0.135
'[08:40:12.305]',-0.125
'[08:40:12.313]',-0.135
'[08:40:12.320]',-0.125
'[08:40:12.328]',-0.115
'[08:40:12.336]',-0.105
'[08:40:12.344]',-0.085
'[08:40:12.352]',-0.095
'[08:40:12.359]',-0.075
'[08:40:12.367]',-0.065
'[08:40:12.375]',-0.055
'[08:40:12.383]',-0.025
'[08:40:12.391]',-0.005
'[08:40:12.398]',0.015
'[08:40:12.406]',0.025
'[08:40:12.414]',0.055
'[08:40:12.422]',0.075
'[08:40:12.430]',0.095
'[08:40:12.438]',0.125
'[08:40:12.445]',0.155
'[08:40:12.453]',0.195
'[08:40:12.461]',0.215
'[08:40:12.469]',0.255
'[08:40:12.477]',0.285
'[08:40:12.484]',0.285
'[08:40:12.492]',0.285
'[08:40:12.500]',0.255
'[08:40:12.508]',0.235
'[08:40:12.516]',0.195
'[08:40:12.523]',0.145
'[08:40:12.531]',0.115
'[08:40:12.539]',0.085
'[08:40:12.547]',0.035
'[08:40:12.555]',0.005
'[08:40:12.563]',-0.015
'[08:40:12.570]',-0.015
'[08:40:12.578]',-0.025
'[08:40:12.586]',-0.035
'[08:40:12.594]',-0.015
'[08:40:12.602]',-0.015
'[08:40:12.609]',-0.025
'[08:40:12.617]',-0.035
'[08:40:12.625]',-0.035
'[08:40:12.633]',-0.025
'[08:40:12.641]',-0.025
'[08:40:12.648]',-0.025
'[08:40:12.656]',-0.015
'[08:40:12.664]',-0.015
'[08:40:12.672]',-0.035
'[08:40:12.680]',-0.035
'[08:40:12.688]',-0.045
'[08:40:12.695]',-0.025
'[08:40:12.703]',-0.035
'[08:40:12.711]',-0.045
'[08:40:12.719]',-0.035
'[08:40:12.727]',-0.045
'[08:40:12.734]',-0.065
'[08:40:12.742]',-0.055
'[08:40:12.750]',-0.085
'[08:40:12.758]',-0.075
'[08:40:12.766]',-0.075
'[08:40:12.773]',-0.085
'[08:40:12.781]',-0.065
'[08:40:12.789]',-0.085
'[08:40:12.797]',-0.085
'[08:40:12.805]',-0.085
'[08:40:12.813]',-0.095
'[08:40:12.820]',-0.085
'[08:40:12.828]',-0.085
'[08:40:12.836]',-0.095
'[08:40:12.844]',-0.065
'[08:40:12.852]',-0.065
'[08:40:12.859]',-0.085
'[08:40:12.867]',-0.085
'[08:40:12.875]',-0.065
'[08:40:12.883]',0.005
'[08:40:12.891]',0.055
'[08:40:12.898]',0.045
'[08:40:12.906]',0.025
'[08:40:12.914]',-0.015
'[08:40:12.922]',-0.055
'[08:40:12.930]',-0.075
'[08:40:12.938]',-0.115
'[08:40:12.945]',-0.105
'[08:40:12.953]',-0.105
'[08:40:12.961]',-0.105
'[08:40:12.969]',-0.105
'[08:40:12.977]',-0.095
'[08:40:12.984]',-0.105
'[08:40:12.992]',-0.115
'[08:40:13.000]',-0.115
'[08:40:13.008]',-0.095
'[08:40:13.016]',-0.085
'[08:40:13.023]',-0.105
'[08:40:13.031]',-0.235
'[08:40:13.039]',-0.285
'[08:40:13.047]',0.035
'[08:40:13.055]',0.705
'[08:40:13.063]',1615
'[08:40:13.070]',1255
'[08:40:13.078]',-0.055
'[08:40:13.086]',-0.505
'[08:40:13.094]',-0.355
'[08:40:13.102]',-0.135
'[08:40:13.109]',-0.085
'[08:40:13.117]',-0.105
'[08:40:13.125]',-0.135
'[08:40:13.133]',-0.115
'[08:40:13.141]',-0.115
'[08:40:13.148]',-0.115
'[08:40:13.156]',-0.105
'[08:40:13.164]',-0.105
'[08:40:13.172]',-0.105
'[08:40:13.180]',-0.095
'[08:40:13.188]',-0.105
'[08:40:13.195]',-0.085
'[08:40:13.203]',-0.075
'[08:40:13.211]',-0.065
'[08:40:13.219]',-0.055
'[08:40:13.227]',-0.055
'[08:40:13.234]',-0.025
'[08:40:13.242]',-0.015
'[08:40:13.250]',0.005
'[08:40:13.258]',0.035
'[08:40:13.266]',0.065
'[08:40:13.273]',0.075
'[08:40:13.281]',0.115
'[08:40:13.289]',0.155
'[08:40:13.297]',0.165
'[08:40:13.305]',0.195
'[08:40:13.313]',0.235
'[08:40:13.320]',0.265
'[08:40:13.328]',0.295
'[08:40:13.336]',0.295
'[08:40:13.344]',0.295
'[08:40:13.352]',0.275
'[08:40:13.359]',0.235
'[08:40:13.367]',0.185
'[08:40:13.375]',0.135
'[08:40:13.383]',0.095
'[08:40:13.391]',0.045
'[08:40:13.398]',0.015
'[08:40:13.406]',-0.015
'[08:40:13.414]',-0.025
'[08:40:13.422]',-0.045
'[08:40:13.430]',-0.055
'[08:40:13.438]',-0.075
'[08:40:13.445]',-0.055
'[08:40:13.453]',-0.075
'[08:40:13.461]',-0.075
'[08:40:13.469]',-0.065
'[08:40:13.477]',-0.065
'[08:40:13.484]',-0.075
'[08:40:13.492]',-0.075
'[08:40:13.500]',-0.065
'[08:40:13.508]',-0.075
'[08:40:13.516]',-0.075
'[08:40:13.523]',-0.085
'[08:40:13.531]',-0.075
'[08:40:13.539]',-0.065
'[08:40:13.547]',-0.065
'[08:40:13.555]',-0.085
'[08:40:13.563]',-0.075
'[08:40:13.570]',-0.085
'[08:40:13.578]',-0.085
'[08:40:13.586]',-0.085
'[08:40:13.594]',-0.105
'[08:40:13.602]',-0.105
'[08:40:13.609]',-0.105
'[08:40:13.617]',-0.105
'[08:40:13.625]',-0.105
'[08:40:13.633]',-0.135
'[08:40:13.641]',-0.135
'[08:40:13.648]',-0.105
'[08:40:13.656]',-0.045
'[08:40:13.664]',0.025
'[08:40:13.672]',-0.015
'[08:40:13.680]',-0.055
'[08:40:13.688]',-0.075
'[08:40:13.695]',-0.125
'[08:40:13.703]',-0.145
'[08:40:13.711]',-0.165
'[08:40:13.719]',-0.175
'[08:40:13.727]',-0.165
'[08:40:13.734]',-0.175
'[08:40:13.742]',-0.175
'[08:40:13.750]',-0.165
'[08:40:13.758]',-0.185
'[08:40:13.766]',-0.185
'[08:40:13.773]',-0.175
'[08:40:13.781]',-0.165
'[08:40:13.789]',-0.155
'[08:40:13.797]',-0.165
'[08:40:13.805]',-0.415
'[08:40:13.813]',-0.425
'[08:40:13.820]',0.065
'[08:40:13.828]',1165
'[08:40:13.836]',1755
'[08:40:13.844]',0.515
'[08:40:13.852]',-0.445
'[08:40:13.859]',-0.585
'[08:40:13.867]',-0.395
'[08:40:13.875]',-0.235
'[08:40:13.883]',-0.175
'[08:40:13.891]',-0.195
'[08:40:13.898]',-0.205
'[08:40:13.906]',-0.185
'[08:40:13.914]',-0.185
'[08:40:13.922]',-0.195
'[08:40:13.930]',-0.185
'[08:40:13.938]',-0.185
'[08:40:13.945]',-0.175
'[08:40:13.953]',-0.165
'[08:40:13.961]',-0.155
'[08:40:13.969]',-0.135
'[08:40:13.977]',-0.135
'[08:40:13.984]',-0.125
'[08:40:13.992]',-0.105
'[08:40:14.000]',-0.115
'[08:40:14.008]',-0.085
'[08:40:14.016]',-0.065
'[08:40:14.023]',-0.055
'[08:40:14.031]',-0.025
'[08:40:14.039]',-0.015
'[08:40:14.047]',0.015
'[08:40:14.055]',0.045
'[08:40:14.063]',0.065
'[08:40:14.070]',0.095
'[08:40:14.078]',0.125
'[08:40:14.086]',0.145
'[08:40:14.094]',0.185
'[08:40:14.102]',0.185
'[08:40:14.109]',0.185
'[08:40:14.117]',0.185
'[08:40:14.125]',0.145
'[08:40:14.133]',0.125
'[08:40:14.141]',0.085
'[08:40:14.148]',0.045
'[08:40:14.156]',0.005
'[08:40:14.164]',-0.025
'[08:40:14.172]',-0.055
'[08:40:14.180]',-0.075
'[08:40:14.188]',-0.105
'[08:40:14.195]',-0.095
'[08:40:14.203]',-0.095
'[08:40:14.211]',-0.105
'[08:40:14.219]',-0.095
'[08:40:14.227]',-0.095
'[08:40:14.234]',-0.105
'[08:40:14.242]',-0.095
'[08:40:14.250]',-0.105
'[08:40:14.258]',-0.085
'[08:40:14.266]',-0.095
'[08:40:14.273]',-0.095
'[08:40:14.281]',-0.085
'[08:40:14.289]',-0.085
'[08:40:14.297]',-0.085
'[08:40:14.305]',-0.095
'[08:40:14.313]',-0.085
'[08:40:14.320]',-0.105
'[08:40:14.328]',-0.105
'[08:40:14.336]',-0.115
'[08:40:14.344]',-0.115
'[08:40:14.352]',-0.115
'[08:40:14.359]',-0.125
'[08:40:14.367]',-0.135
'[08:40:14.375]',-0.135
'[08:40:14.383]',-0.155
'[08:40:14.391]',-0.145
'[08:40:14.398]',-0.145
'[08:40:14.406]',-0.165
'[08:40:14.414]',-0.155
'[08:40:14.422]',-0.125
'[08:40:14.430]',-0.065
'[08:40:14.438]',-0.025
'[08:40:14.445]',-0.085
'[08:40:14.453]',-0.095
'[08:40:14.461]',-0.125
'[08:40:14.469]',-0.165
'[08:40:14.477]',-0.165
'[08:40:14.484]',-0.185
'[08:40:14.492]',-0.185
'[08:40:14.500]',-0.195
'[08:40:14.508]',-0.185
'[08:40:14.516]',-0.185
'[08:40:14.523]',-0.195
'[08:40:14.531]',-0.185
'[08:40:14.539]',-0.175
'[08:40:14.547]',-0.175
'[08:40:14.555]',-0.175
'[08:40:14.563]',-0.165
'[08:40:14.570]',-0.305
'[08:40:14.578]',-0.425
'[08:40:14.586]',-0.135
'[08:40:14.594]',0.615
'[08:40:14.602]',1595
'[08:40:14.609]',1235
'[08:40:14.617]',-0.065
'[08:40:14.625]',-0.585
'[08:40:14.633]',-0.435
'[08:40:14.641]',-0.235
'[08:40:14.648]',-0.165
'[08:40:14.656]',-0.165
'[08:40:14.664]',-0.185
'[08:40:14.672]',-0.195
'[08:40:14.680]',-0.205
'[08:40:14.688]',-0.205
'[08:40:14.695]',-0.185
'[08:40:14.703]',-0.185
'[08:40:14.711]',-0.175
'[08:40:14.719]',-0.165
'[08:40:14.727]',-0.165
'[08:40:14.734]',-0.155
'[08:40:14.742]',-0.145
'[08:40:14.750]',-0.145
'[08:40:14.758]',-0.125
'[08:40:14.766]',-0.105
'[08:40:14.773]',-0.085
'[08:40:14.781]',-0.065
'[08:40:14.789]',-0.055
'[08:40:14.797]',-0.035
'[08:40:14.805]',-0.015
'[08:40:14.813]',-0.015
'[08:40:14.820]',0.025
'[08:40:14.828]',0.055
'[08:40:14.836]',0.085
'[08:40:14.844]',0.115
'[08:40:14.852]',0.145
'[08:40:14.859]',0.165
'[08:40:14.867]',0.185
'[08:40:14.875]',0.175
'[08:40:14.883]',0.185
'[08:40:14.891]',0.165
'[08:40:14.898]',0.135
'[08:40:14.906]',0.105
'[08:40:14.914]',0.055
'[08:40:14.922]',0.015
'[08:40:14.930]',-0.015
'[08:40:14.938]',-0.055
'[08:40:14.945]',-0.065
'[08:40:14.953]',-0.085
'[08:40:14.961]',-0.085
'[08:40:14.969]',-0.095
'[08:40:14.977]',-0.095
'[08:40:14.984]',-0.095
'[08:40:14.992]',-0.095
'[08:40:15.000]',-0.105
'[08:40:15.008]',-0.105
'[08:40:15.016]',-0.105
'[08:40:15.023]',-0.095
'[08:40:15.031]',-0.085
'[08:40:15.039]',-0.085
'[08:40:15.047]',-0.095
'[08:40:15.055]',-0.095
'[08:40:15.063]',-0.105
'[08:40:15.070]',-0.095
'[08:40:15.078]',-0.105
'[08:40:15.086]',-0.095
'[08:40:15.094]',-0.085
'[08:40:15.102]',-0.095
'[08:40:15.109]',-0.115
'[08:40:15.117]',-0.125
'[08:40:15.125]',-0.135
'[08:40:15.133]',-0.135
'[08:40:15.141]',-0.135
'[08:40:15.148]',-0.145
'[08:40:15.156]',-0.135
'[08:40:15.164]',-0.145
'[08:40:15.172]',-0.145
'[08:40:15.180]',-0.135
'[08:40:15.188]',-0.155
'[08:40:15.195]',-0.145
'[08:40:15.203]',-0.135
'[08:40:15.211]',-0.115
'[08:40:15.219]',-0.025
'[08:40:15.227]',0.005
'[08:40:15.234]',-0.045
'[08:40:15.242]',-0.085
'[08:40:15.250]',-0.115
'[08:40:15.258]',-0.135
'[08:40:15.266]',-0.155
'[08:40:15.273]',-0.165
'[08:40:15.281]',-0.165
'[08:40:15.289]',-0.165
'[08:40:15.297]',-0.175
'[08:40:15.305]',-0.175
'[08:40:15.313]',-0.185
'[08:40:15.320]',-0.175
'[08:40:15.328]',-0.165
'[08:40:15.336]',-0.165
'[08:40:15.344]',-0.145
'[08:40:15.352]',-0.115
'[08:40:15.359]',-0.245
'[08:40:15.367]',-0.415
'[08:40:15.375]',-0.105
'[08:40:15.383]',0.675
'[08:40:15.391]',1655
'[08:40:15.398]',1055
'[08:40:15.406]',-0.215
'[08:40:15.414]',-0.525
'[08:40:15.422]',-0.385
'[08:40:15.430]',-0.175
'[08:40:15.438]',-0.145
'[08:40:15.445]',-0.155
'[08:40:15.453]',-0.165
'[08:40:15.461]',-0.175
'[08:40:15.469]',-0.165
'[08:40:15.477]',-0.155
'[08:40:15.484]',-0.165
'[08:40:15.492]',-0.155
'[08:40:15.500]',-0.165
'[08:40:15.508]',-0.145
'[08:40:15.516]',-0.135
'[08:40:15.523]',-0.135
'[08:40:15.531]',-0.135
'[08:40:15.539]',-0.125
'[08:40:15.547]',-0.105
'[08:40:15.555]',-0.105
'[08:40:15.563]',-0.085
'[08:40:15.570]',-0.075
'[08:40:15.578]',-0.055
'[08:40:15.586]',-0.035
'[08:40:15.594]',-0.015
'[08:40:15.602]',0.015
'[08:40:15.609]',0.035
'[08:40:15.617]',0.055
'[08:40:15.625]',0.075
'[08:40:15.633]',0.095
'[08:40:15.641]',0.135
'[08:40:15.648]',0.165
'[08:40:15.656]',0.185
'[08:40:15.664]',0.215
'[08:40:15.672]',0.235
'[08:40:15.680]',0.225
'[08:40:15.688]',0.215
'[08:40:15.695]',0.175
'[08:40:15.703]',0.155
'[08:40:15.711]',0.115
'[08:40:15.719]',0.075
'[08:40:15.727]',0.035
'[08:40:15.734]',-0.005
'[08:40:15.742]',-0.035
'[08:40:15.750]',-0.035
'[08:40:15.758]',-0.055
'[08:40:15.766]',-0.065
'[08:40:15.773]',-0.065
'[08:40:15.781]',-0.055
'[08:40:15.789]',-0.045
'[08:40:15.797]',-0.055
'[08:40:15.805]',-0.065
'[08:40:15.813]',-0.065
'[08:40:15.820]',-0.055
'[08:40:15.828]',-0.055
'[08:40:15.836]',-0.055
'[08:40:15.844]',-0.045
'[08:40:15.852]',-0.055
'[08:40:15.859]',-0.055
'[08:40:15.867]',-0.055
'[08:40:15.875]',-0.055
'[08:40:15.883]',-0.065
'[08:40:15.891]',-0.065
'[08:40:15.898]',-0.075
'[08:40:15.906]',-0.065
'[08:40:15.914]',-0.075
'[08:40:15.922]',-0.085
'[08:40:15.930]',-0.085
'[08:40:15.938]',-0.105
'[08:40:15.945]',-0.095
'[08:40:15.953]',-0.095
'[08:40:15.961]',-0.095
'[08:40:15.969]',-0.095
'[08:40:15.977]',-0.105
'[08:40:15.984]',-0.115
'[08:40:15.992]',-0.095
'[08:40:16.000]',-0.095
'[08:40:16.008]',-0.095
'[08:40:16.016]',-0.095
'[08:40:16.023]',-0.095
'[08:40:16.031]',-0.085
'[08:40:16.039]',-0.065
'[08:40:16.047]',-0.005
'[08:40:16.055]',0.035
'[08:40:16.063]',0.015
'[08:40:16.070]',-0.015
'[08:40:16.078]',-0.045
'[08:40:16.086]',-0.075
'[08:40:16.094]',-0.095
'[08:40:16.102]',-0.105
'[08:40:16.109]',-0.115
'[08:40:16.117]',-0.115
'[08:40:16.125]',-0.135
'[08:40:16.133]',-0.115
'[08:40:16.141]',-0.115
'[08:40:16.148]',-0.115
'[08:40:16.156]',-0.115
'[08:40:16.164]',-0.105
'[08:40:16.172]',-0.105
'[08:40:16.180]',-0.095
'[08:40:16.188]',-0.105
'[08:40:16.195]',-0.255
'[08:40:16.203]',-0.335
'[08:40:16.211]',-0.035
'[08:40:16.219]',0.665
'[08:40:16.227]',1575
'[08:40:16.234]',1465
'[08:40:16.242]',0.265
'[08:40:16.250]',-0.455
'[08:40:16.258]',-0.435
'[08:40:16.266]',-0.225
'[08:40:16.273]',-0.085
'[08:40:16.281]',-0.095
'[08:40:16.289]',-0.105
'[08:40:16.297]',-0.125
'[08:40:16.305]',-0.115
'[08:40:16.313]',-0.115
'[08:40:16.320]',-0.135
'[08:40:16.328]',-0.115
'[08:40:16.336]',-0.115
'[08:40:16.344]',-0.105
'[08:40:16.352]',-0.085
'[08:40:16.359]',-0.095
'[08:40:16.367]',-0.085
'[08:40:16.375]',-0.075
'[08:40:16.383]',-0.085
'[08:40:16.391]',-0.045
'[08:40:16.398]',-0.045
'[08:40:16.406]',-0.015
'[08:40:16.414]',0.015
'[08:40:16.422]',0.015
'[08:40:16.430]',0.025
'[08:40:16.438]',0.065
'[08:40:16.445]',0.065
'[08:40:16.453]',0.115
'[08:40:16.461]',0.125
'[08:40:16.469]',0.155
'[08:40:16.477]',0.205
'[08:40:16.484]',0.235
'[08:40:16.492]',0.255
'[08:40:16.500]',0.275
'[08:40:16.508]',0.285
'[08:40:16.516]',0.285
'[08:40:16.523]',0.265
'[08:40:16.531]',0.235
'[08:40:16.539]',0.205
'[08:40:16.547]',0.145
'[08:40:16.555]',0.095
'[08:40:16.563]',0.045
'[08:40:16.570]',0.025
'[08:40:16.578]',0.005
'[08:40:16.586]',-0.015
'[08:40:16.594]',-0.015
'[08:40:16.602]',-0.015
'[08:40:16.609]',-0.025
'[08:40:16.617]',-0.035
'[08:40:16.625]',-0.025
'[08:40:16.633]',-0.025
'[08:40:16.641]',-0.015
'[08:40:16.648]',0.005
'[08:40:16.656]',-0.015
'[08:40:16.664]',-0.015
'[08:40:16.672]',-0.015
'[08:40:16.680]',-0.015
'[08:40:16.688]',-0.035
'[08:40:16.695]',-0.015
'[08:40:16.703]',-0.025
'[08:40:16.711]',-0.035
'[08:40:16.719]',-0.015
'[08:40:16.727]',-0.035
'[08:40:16.734]',-0.035
'[08:40:16.742]',-0.045
'[08:40:16.750]',-0.065
'[08:40:16.758]',-0.055
'[08:40:16.766]',-0.045
'[08:40:16.773]',-0.055
'[08:40:16.781]',-0.065
'[08:40:16.789]',-0.055
'[08:40:16.797]',-0.065
'[08:40:16.805]',-0.075
'[08:40:16.813]',-0.065
'[08:40:16.820]',-0.075
'[08:40:16.828]',-0.065
'[08:40:16.836]',-0.065
'[08:40:16.844]',-0.085
'[08:40:16.852]',-0.035
'[08:40:16.859]',0.005
'[08:40:16.867]',0.055
'[08:40:16.875]',0.045
'[08:40:16.883]',0.015
'[08:40:16.891]',-0.015
'[08:40:16.898]',-0.065
'[08:40:16.906]',-0.055
'[08:40:16.914]',-0.085
'[08:40:16.922]',-0.105
'[08:40:16.930]',-0.095
'[08:40:16.938]',-0.115
'[08:40:16.945]',-0.105
'[08:40:16.953]',-0.105
'[08:40:16.961]',-0.095
'[08:40:16.969]',-0.095
'[08:40:16.977]',-0.105
'[08:40:16.984]',-0.085
'[08:40:16.992]',-0.065
'[08:40:17.000]',-0.125
'[08:40:17.008]',-0.335
'[08:40:17.016]',-0.255
'[08:40:17.023]',0.255
'[08:40:17.031]',1335
'[08:40:17.039]',1725
'[08:40:17.047]',0.495
'[08:40:17.055]',-0.435
'[08:40:17.063]',-0.455
'[08:40:17.070]',-0.255
'[08:40:17.078]',-0.085
'[08:40:17.086]',-0.105
'[08:40:17.094]',-0.105
'[08:40:17.102]',-0.115
'[08:40:17.109]',-0.115
'[08:40:17.117]',-0.125
'[08:40:17.125]',-0.145
'[08:40:17.133]',-0.115
'[08:40:17.141]',-0.115
'[08:40:17.148]',-0.105
'[08:40:17.156]',-0.095
'[08:40:17.164]',-0.095
'[08:40:17.172]',-0.085
'[08:40:17.180]',-0.075
'[08:40:17.188]',-0.085
'[08:40:17.195]',-0.065
'[08:40:17.203]',-0.045
'[08:40:17.211]',-0.025
'[08:40:17.219]',0.005
'[08:40:17.227]',0.015
'[08:40:17.234]',0.015
'[08:40:17.242]',0.065
'[08:40:17.250]',0.075
'[08:40:17.258]',0.095
'[08:40:17.266]',0.115
'[08:40:17.273]',0.155
'[08:40:17.281]',0.195
'[08:40:17.289]',0.205
'[08:40:17.297]',0.235
'[08:40:17.305]',0.255
'[08:40:17.313]',0.255
'[08:40:17.320]',0.265
'[08:40:17.328]',0.235
'[08:40:17.336]',0.205
'[08:40:17.344]',0.155
'[08:40:17.352]',0.125
'[08:40:17.359]',0.075
'[08:40:17.367]',0.035
'[08:40:17.375]',-0.005
'[08:40:17.383]',-0.015
'[08:40:17.391]',-0.035
'[08:40:17.398]',-0.045
'[08:40:17.406]',-0.045
'[08:40:17.414]',-0.045
'[08:40:17.422]',-0.055
'[08:40:17.430]',-0.055
'[08:40:17.438]',-0.065
'[08:40:17.445]',-0.045
'[08:40:17.453]',-0.055
'[08:40:17.461]',-0.055
'[08:40:17.469]',-0.035
'[08:40:17.477]',-0.045
'[08:40:17.484]',-0.045
'[08:40:17.492]',-0.045
'[08:40:17.500]',-0.055
'[08:40:17.508]',-0.055
'[08:40:17.516]',-0.055
'[08:40:17.523]',-0.045
'[08:40:17.531]',-0.055
'[08:40:17.539]',-0.045
'[08:40:17.547]',-0.075
'[08:40:17.555]',-0.095
'[08:40:17.563]',-0.115
'[08:40:17.570]',-0.095
'[08:40:17.578]',-0.095
'[08:40:17.586]',-0.105
'[08:40:17.594]',-0.085
'[08:40:17.602]',-0.095
'[08:40:17.609]',-0.105
'[08:40:17.617]',-0.135
'[08:40:17.625]',-0.095
'[08:40:17.633]',-0.075
'[08:40:17.641]',-0.005
'[08:40:17.648]',0.035
'[08:40:17.656]',0.015
'[08:40:17.664]',-0.025
'[08:40:17.672]',-0.065
'[08:40:17.680]',-0.115
'[08:40:17.688]',-0.115
'[08:40:17.695]',-0.145
'[08:40:17.703]',-0.145
'[08:40:17.711]',-0.145
'[08:40:17.719]',-0.135
'[08:40:17.727]',-0.135
'[08:40:17.734]',-0.155
'[08:40:17.742]',-0.145
'[08:40:17.750]',-0.135
'[08:40:17.758]',-0.165
'[08:40:17.766]',-0.135
'[08:40:17.773]',-0.125
'[08:40:17.781]',-0.135
'[08:40:17.789]',-0.295
'[08:40:17.797]',-0.435
'[08:40:17.805]',-0.245
'[08:40:17.813]',0.375
'[08:40:17.820]',1495
'[08:40:17.828]',1395
'[08:40:17.836]',0.075
'[08:40:17.844]',-0.525
'[08:40:17.852]',-0.435
'[08:40:17.859]',-0.225
'[08:40:17.867]',-0.145
'[08:40:17.875]',-0.165
'[08:40:17.883]',-0.165
'[08:40:17.891]',-0.165
'[08:40:17.898]',-0.165
'[08:40:17.906]',-0.155
'[08:40:17.914]',-0.165
'[08:40:17.922]',-0.155
'[08:40:17.930]',-0.155
'[08:40:17.938]',-0.135
'[08:40:17.945]',-0.145
'[08:40:17.953]',-0.125
'[08:40:17.961]',-0.105
'[08:40:17.969]',-0.105
'[08:40:17.977]',-0.085
'[08:40:17.984]',-0.075
'[08:40:17.992]',-0.065
'[08:40:18.000]',-0.035
'[08:40:18.008]',-0.035
'[08:40:18.016]',-0.005
'[08:40:18.023]',0.015
'[08:40:18.031]',0.055
'[08:40:18.039]',0.075
'[08:40:18.047]',0.095
'[08:40:18.055]',0.125
'[08:40:18.063]',0.135
'[08:40:18.070]',0.175
'[08:40:18.078]',0.205
'[08:40:18.086]',0.215
'[08:40:18.094]',0.225
'[08:40:18.102]',0.215
'[08:40:18.109]',0.185
'[08:40:18.117]',0.145
'[08:40:18.125]',0.085
'[08:40:18.133]',0.055
'[08:40:18.141]',0.015
'[08:40:18.148]',-0.035
'[08:40:18.156]',-0.045
'[08:40:18.164]',-0.075
'[08:40:18.172]',-0.095
'[08:40:18.180]',-0.095
'[08:40:18.188]',-0.115
'[08:40:18.195]',-0.095
'[08:40:18.203]',-0.095
'[08:40:18.211]',-0.085
'[08:40:18.219]',-0.085
'[08:40:18.227]',-0.095
'[08:40:18.234]',-0.085
'[08:40:18.242]',-0.085
'[08:40:18.250]',-0.095
'[08:40:18.258]',-0.085
'[08:40:18.266]',-0.065
'[08:40:18.273]',-0.085
'[08:40:18.281]',-0.065
'[08:40:18.289]',-0.085
'[08:40:18.297]',-0.095
'[08:40:18.305]',-0.095
'[08:40:18.313]',-0.115
'[08:40:18.320]',-0.105
'[08:40:18.328]',-0.105
'[08:40:18.336]',-0.105
'[08:40:18.344]',-0.025
'[08:40:18.352]',0.005
'[08:40:18.359]',-0.005
'[08:40:18.367]',-0.075
'[08:40:18.375]',-0.115
'[08:40:18.383]',-0.135
'[08:40:18.391]',-0.155
'[08:40:18.398]',-0.165
'[08:40:18.406]',-0.195
'[08:40:18.414]',-0.175
'[08:40:18.422]',-0.185
'[08:40:18.430]',-0.195
'[08:40:18.438]',-0.185
'[08:40:18.445]',-0.195
'[08:40:18.453]',-0.205
'[08:40:18.461]',-0.185
'[08:40:18.469]',-0.185
'[08:40:18.477]',-0.165
'[08:40:18.484]',-0.165
'[08:40:18.492]',-0.175
'[08:40:18.500]',-0.395
'[08:40:18.508]',-0.435
'[08:40:18.516]',-0.015
'[08:40:18.523]',0.985
'[08:40:18.531]',1775
'[08:40:18.539]',0.765
'[08:40:18.547]',-0.355
'[08:40:18.555]',-0.615
'[08:40:18.563]',-0.445
'[08:40:18.570]',-0.255
'[08:40:18.578]',-0.165
'[08:40:18.586]',-0.185
'[08:40:18.594]',-0.195
'[08:40:18.602]',-0.185
'[08:40:18.609]',-0.195
'[08:40:18.617]',-0.185
'[08:40:18.625]',-0.185
'[08:40:18.633]',-0.165
'[08:40:18.641]',-0.175
'[08:40:18.648]',-0.155
'[08:40:18.656]',-0.135
'[08:40:18.664]',-0.135
'[08:40:18.672]',-0.125
'[08:40:18.680]',-0.115
'[08:40:18.688]',-0.125
'[08:40:18.695]',-0.085
'[08:40:18.703]',-0.075
'[08:40:18.711]',-0.055
'[08:40:18.719]',-0.015
'[08:40:18.727]',-0.015
'[08:40:18.734]',0.015
'[08:40:18.742]',0.015
'[08:40:18.750]',0.045
'[08:40:18.758]',0.085
'[08:40:18.766]',0.115
'[08:40:18.773]',0.155
'[08:40:18.781]',0.185
'[08:40:18.789]',0.205
'[08:40:18.797]',0.205
'[08:40:18.805]',0.205
'[08:40:18.813]',0.185
'[08:40:18.820]',0.175
'[08:40:18.828]',0.125
'[08:40:18.836]',0.085
'[08:40:18.844]',0.055
'[08:40:18.852]',0.015
'[08:40:18.859]',-0.015
'[08:40:18.867]',-0.035
'[08:40:18.875]',-0.075
'[08:40:18.883]',-0.055
'[08:40:18.891]',-0.055
'[08:40:18.898]',-0.065
'[08:40:18.906]',-0.045
'[08:40:18.914]',-0.055
'[08:40:18.922]',-0.055
'[08:40:18.930]',-0.055
'[08:40:18.938]',-0.065
'[08:40:18.945]',-0.035
'[08:40:18.953]',-0.045
'[08:40:18.961]',-0.035
'[08:40:18.969]',-0.035
'[08:40:18.977]',-0.025
'[08:40:18.984]',-0.035
'[08:40:18.992]',-0.045
'[08:40:19.000]',-0.035
'[08:40:19.008]',-0.045
'[08:40:19.016]',-0.055
'[08:40:19.023]',-0.045
'[08:40:19.031]',-0.045
'[08:40:19.039]',-0.045
'[08:40:19.047]',-0.055
'[08:40:19.055]',-0.045
'[08:40:19.063]',0.035
'[08:40:19.070]',0.065
'[08:40:19.078]',0.035
'[08:40:19.086]',-0.015
'[08:40:19.094]',-0.045
'[08:40:19.102]',-0.065
'[08:40:19.109]',-0.105
'[08:40:19.117]',-0.125
'[08:40:19.125]',-0.125
'[08:40:19.133]',-0.145
'[08:40:19.141]',-0.115
'[08:40:19.148]',-0.125
'[08:40:19.156]',-0.135
'[08:40:19.164]',-0.135
'[08:40:19.172]',-0.125
'[08:40:19.180]',-0.135
'[08:40:19.188]',-0.135
'[08:40:19.195]',-0.125
'[08:40:19.203]',-0.085
'[08:40:19.211]',-0.215
'[08:40:19.219]',-0.395
'[08:40:19.227]',-0.105
'[08:40:19.234]',0.595
'[08:40:19.242]',1645
'[08:40:19.250]',1315
'[08:40:19.258]',-0.155
'[08:40:19.266]',-0.525
'[08:40:19.273]',-0.375
'[08:40:19.281]',-0.155
'[08:40:19.289]',-0.085
'[08:40:19.297]',-0.125
'[08:40:19.305]',-0.155
'[08:40:19.313]',-0.145
'[08:40:19.320]',-0.145
'[08:40:19.328]',-0.135
'[08:40:19.336]',-0.135
'[08:40:19.344]',-0.125
'[08:40:19.352]',-0.125
'[08:40:19.359]',-0.125
'[08:40:19.367]',-0.105
'[08:40:19.375]',-0.125
'[08:40:19.383]',-0.095
'[08:40:19.391]',-0.085
'[08:40:19.398]',-0.065
'[08:40:19.406]',-0.055
'[08:40:19.414]',-0.035
'[08:40:19.422]',-0.025
'[08:40:19.430]',0.005
'[08:40:19.438]',0.005
'[08:40:19.445]',0.045
'[08:40:19.453]',0.065
'[08:40:19.461]',0.105
'[08:40:19.469]',0.145
'[08:40:19.477]',0.155
'[08:40:19.484]',0.185
'[08:40:19.492]',0.215
'[08:40:19.500]',0.225
'[08:40:19.508]',0.245
'[08:40:19.516]',0.255
'[08:40:19.523]',0.235
'[08:40:19.531]',0.215
'[08:40:19.539]',0.175
'[08:40:19.547]',0.125
'[08:40:19.555]',0.085
'[08:40:19.563]',0.035
'[08:40:19.570]',0.005
'[08:40:19.578]',-0.015
'[08:40:19.586]',-0.035
'[08:40:19.594]',-0.025
'[08:40:19.602]',-0.035
'[08:40:19.609]',-0.035
'[08:40:19.617]',-0.045
'[08:40:19.625]',-0.065
'[08:40:19.633]',-0.045
'[08:40:19.641]',-0.045
'[08:40:19.648]',-0.045
'[08:40:19.656]',-0.025
'[08:40:19.664]',-0.035
'[08:40:19.672]',-0.025
'[08:40:19.680]',-0.035
'[08:40:19.688]',-0.025
'[08:40:19.695]',-0.035
'[08:40:19.703]',-0.025
'[08:40:19.711]',-0.035
'[08:40:19.719]',-0.035
'[08:40:19.727]',-0.025
'[08:40:19.734]',-0.025
'[08:40:19.742]',-0.035
'[08:40:19.750]',-0.045
'[08:40:19.758]',-0.065
'[08:40:19.766]',-0.035
'[08:40:19.773]',0.015
'[08:40:19.781]',0.065
'[08:40:19.789]',0.065
'[08:40:19.797]',0.005
'[08:40:19.805]',-0.025
'[08:40:19.813]',-0.055
'[08:40:19.820]',-0.105
'[08:40:19.828]',-0.115
'[08:40:19.836]',-0.125
'[08:40:19.844]',-0.115
'[08:40:19.852]',-0.115
'[08:40:19.859]',-0.115
'[08:40:19.867]',-0.125
'[08:40:19.875]',-0.125
'[08:40:19.883]',-0.145
'[08:40:19.891]',-0.135
'[08:40:19.898]',-0.125
'[08:40:19.906]',-0.115
'[08:40:19.914]',-0.085
'[08:40:19.922]',-0.135
'[08:40:19.930]',-0.365
'[08:40:19.938]',-0.255
'[08:40:19.945]',0.255
'[08:40:19.953]',1295
'[08:40:19.961]',1675
'[08:40:19.969]',0.435
'[08:40:19.977]',-0.495
'[08:40:19.984]',-0.445
'[08:40:19.992]',-0.215
'[08:40:20.000]',-0.105
'[08:40:20.008]',-0.145
'[08:40:20.016]',-0.155
'[08:40:20.023]',-0.145
'[08:40:20.031]',-0.155
'[08:40:20.039]',-0.135
'[08:40:20.047]',-0.145
'[08:40:20.055]',-0.145
'[08:40:20.063]',-0.145
'[08:40:20.070]',-0.135
'[08:40:20.078]',-0.135
'[08:40:20.086]',-0.115
'[08:40:20.094]',-0.105
'[08:40:20.102]',-0.085
'[08:40:20.109]',-0.085
'[08:40:20.117]',-0.075
'[08:40:20.125]',-0.055
'[08:40:20.133]',-0.065
'[08:40:20.141]',-0.025
'[08:40:20.148]',-0.015
'[08:40:20.156]',0.005
'[08:40:20.164]',0.045
'[08:40:20.172]',0.065
'[08:40:20.180]',0.085
'[08:40:20.188]',0.125
'[08:40:20.195]',0.155
'[08:40:20.203]',0.175
'[08:40:20.211]',0.195
'[08:40:20.219]',0.225
'[08:40:20.227]',0.245
'[08:40:20.234]',0.225
'[08:40:20.242]',0.195
'[08:40:20.250]',0.155
'[08:40:20.258]',0.135
'[08:40:20.266]',0.095
'[08:40:20.273]',0.045
'[08:40:20.281]',0.025
'[08:40:20.289]',-0.005
'[08:40:20.297]',-0.025
'[08:40:20.305]',-0.045
'[08:40:20.313]',-0.065
'[08:40:20.320]',-0.055
'[08:40:20.328]',-0.055
'[08:40:20.336]',-0.055
'[08:40:20.344]',-0.045
'[08:40:20.352]',-0.045
'[08:40:20.359]',-0.045
'[08:40:20.367]',-0.035
'[08:40:20.375]',-0.055
'[08:40:20.383]',-0.045
'[08:40:20.391]',-0.045
'[08:40:20.398]',-0.045
'[08:40:20.406]',-0.025
'[08:40:20.414]',-0.035
'[08:40:20.422]',-0.045
'[08:40:20.430]',-0.045
'[08:40:20.438]',-0.065
'[08:40:20.445]',-0.045
'[08:40:20.453]',-0.045
'[08:40:20.461]',-0.055
'[08:40:20.469]',-0.055
'[08:40:20.477]',-0.065
'[08:40:20.484]',-0.075
'[08:40:20.492]',-0.075
'[08:40:20.500]',-0.045
'[08:40:20.508]',0.025
'[08:40:20.516]',0.055
'[08:40:20.523]',0.015
'[08:40:20.531]',-0.015
'[08:40:20.539]',-0.045
'[08:40:20.547]',-0.075
'[08:40:20.555]',-0.105
'[08:40:20.563]',-0.125
'[08:40:20.570]',-0.125
'[08:40:20.578]',-0.125
'[08:40:20.586]',-0.135
'[08:40:20.594]',-0.125
'[08:40:20.602]',-0.125
'[08:40:20.609]',-0.125
'[08:40:20.617]',-0.135
'[08:40:20.625]',-0.135
'[08:40:20.633]',-0.125
'[08:40:20.641]',-0.115
'[08:40:20.648]',-0.115
'[08:40:20.656]',-0.285
'[08:40:20.664]',-0.365
'[08:40:20.672]',0.035
'[08:40:20.680]',0.945
'[08:40:20.688]',1705
'[08:40:20.695]',0.775
'[08:40:20.703]',-0.365
'[08:40:20.711]',-0.495
'[08:40:20.719]',-0.305
'[08:40:20.727]',-0.135
'[08:40:20.734]',-0.115
'[08:40:20.742]',-0.155
'[08:40:20.750]',-0.175
'[08:40:20.758]',-0.175
'[08:40:20.766]',-0.175
'[08:40:20.773]',-0.165
'[08:40:20.781]',-0.145
'[08:40:20.789]',-0.145
'[08:40:20.797]',-0.145
'[08:40:20.805]',-0.155
'[08:40:20.813]',-0.165
'[08:40:20.820]',-0.135
'[08:40:20.828]',-0.115
'[08:40:20.836]',-0.125
'[08:40:20.844]',-0.095
'[08:40:20.852]',-0.095
'[08:40:20.859]',-0.085
'[08:40:20.867]',-0.065
'[08:40:20.875]',-0.065
'[08:40:20.883]',-0.025
'[08:40:20.891]',-0.005
'[08:40:20.898]',0.015
'[08:40:20.906]',0.065
'[08:40:20.914]',0.075
'[08:40:20.922]',0.095
'[08:40:20.930]',0.125
'[08:40:20.938]',0.145
'[08:40:20.945]',0.175
'[08:40:20.953]',0.195
'[08:40:20.961]',0.215
'[08:40:20.969]',0.215
'[08:40:20.977]',0.185
'[08:40:20.984]',0.135
'[08:40:20.992]',0.095
'[08:40:21.000]',0.045
'[08:40:21.008]',0.015
'[08:40:21.016]',-0.015
'[08:40:21.023]',-0.055
'[08:40:21.031]',-0.075
'[08:40:21.039]',-0.085
'[08:40:21.047]',-0.095
'[08:40:21.055]',-0.105
'[08:40:21.063]',-0.105
'[08:40:21.070]',-0.115
'[08:40:21.078]',-0.105
'[08:40:21.086]',-0.105
'[08:40:21.094]',-0.095
'[08:40:21.102]',-0.095
'[08:40:21.109]',-0.095
'[08:40:21.117]',-0.105
'[08:40:21.125]',-0.085
'[08:40:21.133]',-0.105
'[08:40:21.141]',-0.095
'[08:40:21.148]',-0.105
'[08:40:21.156]',-0.095
'[08:40:21.164]',-0.085
'[08:40:21.172]',-0.085
'[08:40:21.180]',-0.115
'[08:40:21.188]',-0.105
'[08:40:21.195]',-0.125
'[08:40:21.203]',-0.105
'[08:40:21.211]',-0.125
'[08:40:21.219]',-0.125
'[08:40:21.227]',-0.095
'[08:40:21.234]',-0.055
'[08:40:21.242]',-0.005
'[08:40:21.250]',0.005
'[08:40:21.258]',-0.055
'[08:40:21.266]',-0.085
'[08:40:21.273]',-0.115
'[08:40:21.281]',-0.135
'[08:40:21.289]',-0.155
'[08:40:21.297]',-0.155
'[08:40:21.305]',-0.165
'[08:40:21.313]',-0.175
'[08:40:21.320]',-0.185
'[08:40:21.328]',-0.165
'[08:40:21.336]',-0.175
'[08:40:21.344]',-0.165
'[08:40:21.352]',-0.165
'[08:40:21.359]',-0.165
'[08:40:21.367]',-0.165
'[08:40:21.375]',-0.145
'[08:40:21.383]',-0.155
'[08:40:21.391]',-0.365
'[08:40:21.398]',-0.405
'[08:40:21.406]',0.025
'[08:40:21.414]',1165
'[08:40:21.422]',1745
'[08:40:21.430]',0.525
'[08:40:21.438]',-0.465
'[08:40:21.445]',-0.575
'[08:40:21.453]',-0.365
'[08:40:21.461]',-0.195
'[08:40:21.469]',-0.165
'[08:40:21.477]',-0.175
'[08:40:21.484]',-0.195
'[08:40:21.492]',-0.195
'[08:40:21.500]',-0.185
'[08:40:21.508]',-0.165
'[08:40:21.516]',-0.155
'[08:40:21.523]',-0.155
'[08:40:21.531]',-0.135
'[08:40:21.539]',-0.145
'[08:40:21.547]',-0.125
'[08:40:21.555]',-0.135
'[08:40:21.563]',-0.125
'[08:40:21.570]',-0.095
'[08:40:21.578]',-0.085
'[08:40:21.586]',-0.065
'[08:40:21.594]',-0.045
'[08:40:21.602]',-0.045
'[08:40:21.609]',-0.025
'[08:40:21.617]',-0.005
'[08:40:21.625]',0.015
'[08:40:21.633]',0.035
'[08:40:21.641]',0.065
'[08:40:21.648]',0.085
'[08:40:21.656]',0.115
'[08:40:21.664]',0.155
'[08:40:21.672]',0.155
'[08:40:21.680]',0.175
'[08:40:21.688]',0.205
'[08:40:21.695]',0.185
'[08:40:21.703]',0.195
'[08:40:21.711]',0.165
'[08:40:21.719]',0.135
'[08:40:21.727]',0.115
'[08:40:21.734]',0.065
'[08:40:21.742]',0.005
'[08:40:21.750]',-0.015
'[08:40:21.758]',-0.055
'[08:40:21.766]',-0.065
'[08:40:21.773]',-0.085
'[08:40:21.781]',-0.085
'[08:40:21.789]',-0.075
'[08:40:21.797]',-0.105
'[08:40:21.805]',-0.115
'[08:40:21.813]',-0.095
'[08:40:21.820]',-0.105
'[08:40:21.828]',-0.085
'[08:40:21.836]',-0.085
'[08:40:21.844]',-0.075
'[08:40:21.852]',-0.065
'[08:40:21.859]',-0.085
'[08:40:21.867]',-0.085
'[08:40:21.875]',-0.075
'[08:40:21.883]',-0.095
'[08:40:21.891]',-0.085
'[08:40:21.898]',-0.085
'[08:40:21.906]',-0.085
'[08:40:21.914]',-0.085
'[08:40:21.922]',-0.085
'[08:40:21.930]',-0.055
'[08:40:21.938]',0.005
'[08:40:21.945]',-0.015
'[08:40:21.953]',-0.035
'[08:40:21.961]',-0.065
'[08:40:21.969]',-0.115
'[08:40:21.977]',-0.125
'[08:40:21.984]',-0.165
'[08:40:21.992]',-0.175
'[08:40:22.000]',-0.175
'[08:40:22.008]',-0.195
'[08:40:22.016]',-0.185
'[08:40:22.023]',-0.185
'[08:40:22.031]',-0.185
'[08:40:22.039]',-0.175
'[08:40:22.047]',-0.185
'[08:40:22.055]',-0.185
'[08:40:22.063]',-0.175
'[08:40:22.070]',-0.175
'[08:40:22.078]',-0.155
'[08:40:22.086]',-0.185
'[08:40:22.094]',-0.415
'[08:40:22.102]',-0.365
'[08:40:22.109]',0.165
'[08:40:22.117]',1165
'[08:40:22.125]',1735
'[08:40:22.133]',0.495
'[08:40:22.141]',-0.455
'[08:40:22.148]',-0.585
'[08:40:22.156]',-0.385
'[08:40:22.164]',-0.205
'[08:40:22.172]',-0.165
'[08:40:22.180]',-0.195
'[08:40:22.188]',-0.185
'[08:40:22.195]',-0.195
'[08:40:22.203]',-0.195
'[08:40:22.211]',-0.185
'[08:40:22.219]',-0.175
'[08:40:22.227]',-0.165
'[08:40:22.234]',-0.165
'[08:40:22.242]',-0.165
'[08:40:22.250]',-0.145
'[08:40:22.258]',-0.135
'[08:40:22.266]',-0.135
'[08:40:22.273]',-0.125
'[08:40:22.281]',-0.085
'[08:40:22.289]',-0.085
'[08:40:22.297]',-0.075
'[08:40:22.305]',-0.055
'[08:40:22.313]',-0.045
'[08:40:22.320]',-0.025
'[08:40:22.328]',0.005
'[08:40:22.336]',0.045
'[08:40:22.344]',0.065
'[08:40:22.352]',0.085
'[08:40:22.359]',0.105
'[08:40:22.367]',0.125
'[08:40:22.375]',0.155
'[08:40:22.383]',0.175
'[08:40:22.391]',0.185
'[08:40:22.398]',0.185
'[08:40:22.406]',0.175
'[08:40:22.414]',0.155
'[08:40:22.422]',0.115
'[08:40:22.430]',0.065
'[08:40:22.438]',0.045
'[08:40:22.445]',-0.015
'[08:40:22.453]',-0.035
'[08:40:22.461]',-0.055
'[08:40:22.469]',-0.075
'[08:40:22.477]',-0.075
'[08:40:22.484]',-0.075
'[08:40:22.492]',-0.085
'[08:40:22.500]',-0.075
'[08:40:22.508]',-0.095
'[08:40:22.516]',-0.075
'[08:40:22.523]',-0.095
'[08:40:22.531]',-0.075
'[08:40:22.539]',-0.065
'[08:40:22.547]',-0.065
'[08:40:22.555]',-0.065
'[08:40:22.563]',-0.065
'[08:40:22.570]',-0.065
'[08:40:22.578]',-0.055
'[08:40:22.586]',-0.065
'[08:40:22.594]',-0.065
'[08:40:22.602]',-0.055
'[08:40:22.609]',-0.065
'[08:40:22.617]',-0.095
'[08:40:22.625]',-0.085
'[08:40:22.633]',-0.085
'[08:40:22.641]',-0.095
'[08:40:22.648]',-0.105
'[08:40:22.656]',-0.075
'[08:40:22.664]',-0.025
'[08:40:22.672]',0.015
'[08:40:22.680]',0.005
'[08:40:22.688]',-0.025
'[08:40:22.695]',-0.055
'[08:40:22.703]',-0.085
'[08:40:22.711]',-0.125
'[08:40:22.719]',-0.145
'[08:40:22.727]',-0.145
'[08:40:22.734]',-0.145
'[08:40:22.742]',-0.155
'[08:40:22.750]',-0.135
'[08:40:22.758]',-0.155
'[08:40:22.766]',-0.155
'[08:40:22.773]',-0.145
'[08:40:22.781]',-0.155
'[08:40:22.789]',-0.135
'[08:40:22.797]',-0.135
'[08:40:22.805]',-0.135
'[08:40:22.813]',-0.115
'[08:40:22.820]',-0.295
'[08:40:22.828]',-0.375
'[08:40:22.836]',0.015
'[08:40:22.844]',0.795
'[08:40:22.852]',1765
'[08:40:22.859]',1215
'[08:40:22.867]',-0.255
'[08:40:22.875]',-0.555
'[08:40:22.883]',-0.395
'[08:40:22.891]',-0.165
'[08:40:22.898]',-0.125
'[08:40:22.906]',-0.155
'[08:40:22.914]',-0.165
'[08:40:22.922]',-0.165
'[08:40:22.930]',-0.175
'[08:40:22.938]',-0.165
'[08:40:22.945]',-0.165
'[08:40:22.953]',-0.155
'[08:40:22.961]',-0.155
'[08:40:22.969]',-0.145
'[08:40:22.977]',-0.125
'[08:40:22.984]',-0.125
'[08:40:22.992]',-0.125
'[08:40:23.000]',-0.105
'[08:40:23.008]',-0.115
'[08:40:23.016]',-0.085
'[08:40:23.023]',-0.075
'[08:40:23.031]',-0.055
'[08:40:23.039]',-0.045
'[08:40:23.047]',-0.025
'[08:40:23.055]',-0.005
'[08:40:23.063]',0.015
'[08:40:23.070]',0.045
'[08:40:23.078]',0.075
'[08:40:23.086]',0.095
'[08:40:23.094]',0.125
'[08:40:23.102]',0.155
'[08:40:23.109]',0.175
'[08:40:23.117]',0.185
'[08:40:23.125]',0.195
'[08:40:23.133]',0.185
'[08:40:23.141]',0.185
'[08:40:23.148]',0.135
'[08:40:23.156]',0.115
'[08:40:23.164]',0.065
'[08:40:23.172]',0.015
'[08:40:23.180]',-0.015
'[08:40:23.188]',-0.045
'[08:40:23.195]',-0.055
'[08:40:23.203]',-0.065
'[08:40:23.211]',-0.085
'[08:40:23.219]',-0.085
'[08:40:23.227]',-0.085
'[08:40:23.234]',-0.075
'[08:40:23.242]',-0.075
'[08:40:23.250]',-0.085
'[08:40:23.258]',-0.085
'[08:40:23.266]',-0.075
'[08:40:23.273]',-0.085
'[08:40:23.281]',-0.085
'[08:40:23.289]',-0.065
'[08:40:23.297]',-0.075
'[08:40:23.305]',-0.075
'[08:40:23.313]',-0.065
'[08:40:23.320]',-0.085
'[08:40:23.328]',-0.075
'[08:40:23.336]',-0.075
'[08:40:23.344]',-0.085
'[08:40:23.352]',-0.085
'[08:40:23.359]',-0.085
'[08:40:23.367]',-0.105
'[08:40:23.375]',-0.095
'[08:40:23.383]',-0.115
'[08:40:23.391]',-0.125
'[08:40:23.398]',-0.125
'[08:40:23.406]',-0.125
'[08:40:23.414]',-0.125
'[08:40:23.422]',-0.135
'[08:40:23.430]',-0.135
'[08:40:23.438]',-0.115
'[08:40:23.445]',-0.145
'[08:40:23.453]',-0.145
'[08:40:23.461]',-0.125
'[08:40:23.469]',-0.065
'[08:40:23.477]',0.005
'[08:40:23.484]',-0.005
'[08:40:23.492]',-0.075
'[08:40:23.500]',-0.065
'[08:40:23.508]',-0.115
'[08:40:23.516]',-0.145
'[08:40:23.523]',-0.175
'[08:40:23.531]',-0.175
'[08:40:23.539]',-0.155
'[08:40:23.547]',-0.175
'[08:40:23.555]',-0.175
'[08:40:23.563]',-0.165
'[08:40:23.570]',-0.175
'[08:40:23.578]',-0.165
'[08:40:23.586]',-0.175
'[08:40:23.594]',-0.165
'[08:40:23.602]',-0.145
'[08:40:23.609]',-0.125
'[08:40:23.617]',-0.245
'[08:40:23.625]',-0.415
'[08:40:23.633]',-0.125
'[08:40:23.641]',0.545
'[08:40:23.648]',1485
'[08:40:23.656]',1545
'[08:40:23.664]',1145
'[08:40:23.672]',-0.395
'[08:40:23.680]',-0.555
'[08:40:23.688]',-0.315
'[08:40:23.695]',-0.155
'[08:40:23.703]',-0.155
'[08:40:23.711]',-0.185
'[08:40:23.719]',-0.185
'[08:40:23.727]',-0.165
'[08:40:23.734]',-0.175
'[08:40:23.742]',-0.185
'[08:40:23.750]',-0.165
'[08:40:23.758]',-0.175
'[08:40:23.766]',-0.155
'[08:40:23.773]',-0.165
'[08:40:23.781]',-0.145
'[08:40:23.789]',-0.135
'[08:40:23.797]',-0.135
'[08:40:23.805]',-0.125
'[08:40:23.813]',-0.095
'[08:40:23.820]',-0.095
'[08:40:23.828]',-0.075
'[08:40:23.836]',-0.055
'[08:40:23.844]',-0.035
'[08:40:23.852]',0.005
'[08:40:23.859]',0.005
'[08:40:23.867]',0.035
'[08:40:23.875]',0.055
'[08:40:23.883]',0.085
'[08:40:23.891]',0.125
'[08:40:23.898]',0.155
'[08:40:23.906]',0.185
'[08:40:23.914]',0.205
'[08:40:23.922]',0.225
'[08:40:23.930]',0.215
'[08:40:23.938]',0.185
'[08:40:23.945]',0.175
'[08:40:23.953]',0.145
'[08:40:23.961]',0.095
'[08:40:23.969]',0.045
'[08:40:23.977]',0.005
'[08:40:23.984]',-0.025
'[08:40:23.992]',-0.055
'[08:40:24.000]',-0.085
'[08:40:24.008]',-0.085
'[08:40:24.016]',-0.075
'[08:40:24.023]',-0.085
'[08:40:24.031]',-0.075
'[08:40:24.039]',-0.085
'[08:40:24.047]',-0.085
'[08:40:24.055]',-0.075
'[08:40:24.063]',-0.095
'[08:40:24.070]',-0.085
'[08:40:24.078]',-0.075
'[08:40:24.086]',-0.075
'[08:40:24.094]',-0.065
'[08:40:24.102]',-0.075
'[08:40:24.109]',-0.085
'[08:40:24.117]',-0.085
'[08:40:24.125]',-0.095
'[08:40:24.133]',-0.085
'[08:40:24.141]',-0.085
'[08:40:24.148]',-0.105
'[08:40:24.156]',-0.095
'[08:40:24.164]',-0.105
'[08:40:24.172]',-0.115
'[08:40:24.180]',-0.115
'[08:40:24.188]',-0.125
'[08:40:24.195]',-0.135
'[08:40:24.203]',-0.135
'[08:40:24.211]',-0.135
'[08:40:24.219]',-0.125
'[08:40:24.227]',-0.135
'[08:40:24.234]',-0.135
'[08:40:24.242]',-0.125
'[08:40:24.250]',-0.145
'[08:40:24.258]',-0.145
'[08:40:24.266]',-0.135
'[08:40:24.273]',-0.125
'[08:40:24.281]',-0.135
'[08:40:24.289]',-0.145
'[08:40:24.297]',-0.115
'[08:40:24.305]',-0.055
'[08:40:24.313]',-0.015
'[08:40:24.320]',-0.015
'[08:40:24.328]',-0.065
'[08:40:24.336]',-0.085
'[08:40:24.344]',-0.105
'[08:40:24.352]',-0.135
'[08:40:24.359]',-0.145
'[08:40:24.367]',-0.165
'[08:40:24.375]',-0.155
'[08:40:24.383]',-0.175
'[08:40:24.391]',-0.165
'[08:40:24.398]',-0.175
'[08:40:24.406]',-0.165
'[08:40:24.414]',-0.145
'[08:40:24.422]',-0.155
'[08:40:24.430]',-0.165
'[08:40:24.438]',-0.145
'[08:40:24.445]',-0.155
'[08:40:24.453]',-0.125
'[08:40:24.461]',-0.265
'[08:40:24.469]',-0.355
'[08:40:24.477]',-0.255
'[08:40:24.484]',-0.215
'[08:40:24.492]',0.605
'[08:40:24.500]',1575
'[08:40:24.508]',1245
'[08:40:24.516]',-0.185
'[08:40:24.523]',-0.565
'[08:40:24.531]',-0.425
'[08:40:24.539]',-0.195
'[08:40:24.547]',-0.135
'[08:40:24.555]',-0.165
'[08:40:24.563]',-0.185
'[08:40:24.570]',-0.165
'[08:40:24.578]',-0.175
'[08:40:24.586]',-0.165
'[08:40:24.594]',-0.175
'[08:40:24.602]',-0.165
'[08:40:24.609]',-0.155
'[08:40:24.617]',-0.155
'[08:40:24.625]',-0.155
'[08:40:24.633]',-0.135
'[08:40:24.641]',-0.135
'[08:40:24.648]',-0.125
'[08:40:24.656]',-0.105
'[08:40:24.664]',-0.075
'[08:40:24.672]',-0.065
'[08:40:24.680]',-0.055
'[08:40:24.688]',-0.035
'[08:40:24.695]',-0.035
'[08:40:24.703]',0.005
'[08:40:24.711]',0.035
'[08:40:24.719]',0.055
'[08:40:24.727]',0.105
'[08:40:24.734]',0.125
'[08:40:24.742]',0.155
'[08:40:24.750]',0.195
'[08:40:24.758]',0.205
'[08:40:24.766]',0.215
'[08:40:24.773]',0.215
'[08:40:24.781]',0.205
'[08:40:24.789]',0.175
'[08:40:24.797]',0.115
'[08:40:24.805]',0.055
'[08:40:24.813]',-0.015
'[08:40:24.820]',-0.025
'[08:40:24.828]',-0.045
'[08:40:24.836]',-0.075
'[08:40:24.844]',-0.075
'[08:40:24.852]',-0.085
'[08:40:24.859]',-0.105
'[08:40:24.867]',-0.105
'[08:40:24.875]',-0.125
'[08:40:24.883]',-0.115
'[08:40:24.891]',-0.105
'[08:40:24.898]',-0.105
'[08:40:24.906]',-0.085
'[08:40:24.914]',-0.105
'[08:40:24.922]',-0.095
'[08:40:24.930]',-0.105
'[08:40:24.938]',-0.115
'[08:40:24.945]',-0.085
'[08:40:24.953]',-0.095
'[08:40:24.961]',-0.105
'[08:40:24.969]',-0.095
'[08:40:24.977]',-0.095
'[08:40:24.984]',-0.115
'[08:40:24.992]',-0.115
'[08:40:25.000]',-0.135
'[08:40:25.008]',-0.125
'[08:40:25.016]',-0.115
'[08:40:25.023]',-0.135
'[08:40:25.031]',-0.135
'[08:40:25.039]',-0.135
'[08:40:25.047]',-0.145
'[08:40:25.055]',-0.145
'[08:40:25.063]',-0.155
'[08:40:25.070]',-0.155
'[08:40:25.078]',-0.135
'[08:40:25.086]',-0.105
'[08:40:25.094]',-0.035
'[08:40:25.102]',-0.015
'[08:40:25.109]',-0.045
'[08:40:25.117]',-0.075
'[08:40:25.125]',-0.105
'[08:40:25.133]',-0.145
'[08:40:25.141]',-0.165
'[08:40:25.148]',-0.185
'[08:40:25.156]',-0.175
'[08:40:25.164]',-0.165
'[08:40:25.172]',-0.175
'[08:40:25.180]',-0.185
'[08:40:25.188]',-0.185
'[08:40:25.195]',-0.195
'[08:40:25.203]',-0.175
'[08:40:25.211]',-0.185
'[08:40:25.219]',-0.175
'[08:40:25.227]',-0.165
'[08:40:25.234]',-0.155
'[08:40:25.242]',-0.195
'[08:40:25.250]',-0.395
'[08:40:25.258]',-0.355
'[08:40:25.266]',0.115
'[08:40:25.273]',1055
'[08:40:25.281]',1725
'[08:40:25.289]',0.735
'[08:40:25.297]',-0.355
'[08:40:25.305]',-0.605
'[08:40:25.313]',-0.435
'[08:40:25.320]',-0.255
'[08:40:25.328]',-0.185
'[08:40:25.336]',-0.195
'[08:40:25.344]',-0.205
'[08:40:25.352]',-0.195
'[08:40:25.359]',-0.195
'[08:40:25.367]',-0.215
'[08:40:25.375]',-0.195
'[08:40:25.383]',-0.185
'[08:40:25.391]',-0.175
'[08:40:25.398]',-0.175
'[08:40:25.406]',-0.175
'[08:40:25.414]',-0.145
'[08:40:25.422]',-0.145
'[08:40:25.430]',-0.155
'[08:40:25.438]',-0.125
'[08:40:25.445]',-0.115
'[08:40:25.453]',-0.105
'[08:40:25.461]',-0.085
'[08:40:25.469]',-0.065
'[08:40:25.477]',-0.045
'[08:40:25.484]',-0.025
'[08:40:25.492]',-0.025
'[08:40:25.500]',0.015
'[08:40:25.508]',0.045
'[08:40:25.516]',0.075
'[08:40:25.523]',0.095
'[08:40:25.531]',0.125
'[08:40:25.539]',0.145
'[08:40:25.547]',0.165
'[08:40:25.555]',0.175
'[08:40:25.563]',0.175
'[08:40:25.570]',0.155
'[08:40:25.578]',0.125
'[08:40:25.586]',0.075
'[08:40:25.594]',0.055
'[08:40:25.602]',-0.005
'[08:40:25.609]',-0.055
'[08:40:25.617]',-0.075
'[08:40:25.625]',-0.105
'[08:40:25.633]',-0.115
'[08:40:25.641]',-0.125
'[08:40:25.648]',-0.145
'[08:40:25.656]',-0.145
'[08:40:25.664]',-0.125
'[08:40:25.672]',-0.135
'[08:40:25.680]',-0.145
'[08:40:25.688]',-0.145
'[08:40:25.695]',-0.135
'[08:40:25.703]',-0.125
'[08:40:25.711]',-0.125
'[08:40:25.719]',-0.115
'[08:40:25.727]',-0.125
'[08:40:25.734]',-0.115
'[08:40:25.742]',-0.125
'[08:40:25.750]',-0.145
'[08:40:25.758]',-0.135
'[08:40:25.766]',-0.155
'[08:40:25.773]',-0.155
'[08:40:25.781]',-0.155
'[08:40:25.789]',-0.155
'[08:40:25.797]',-0.165
'[08:40:25.805]',-0.165
'[08:40:25.813]',-0.195
'[08:40:25.820]',-0.185
'[08:40:25.828]',-0.155
'[08:40:25.836]',-0.105
'[08:40:25.844]',-0.055
'[08:40:25.852]',-0.065
'[08:40:25.859]',-0.105
'[08:40:25.867]',-0.135
'[08:40:25.875]',-0.175
'[08:40:25.883]',-0.205
'[08:40:25.891]',-0.215
'[08:40:25.898]',-0.215
'[08:40:25.906]',-0.215
'[08:40:25.914]',-0.215
'[08:40:25.922]',-0.225
'[08:40:25.930]',-0.215
'[08:40:25.938]',-0.235
'[08:40:25.945]',-0.225
'[08:40:25.953]',-0.225
'[08:40:25.961]',-0.225
'[08:40:25.969]',-0.215
'[08:40:25.977]',-0.205
'[08:40:25.984]',-0.185
'[08:40:25.992]',-0.335
'[08:40:26.000]',-0.515
'[08:40:26.008]',-0.225
'[08:40:26.016]',0.545
'[08:40:26.023]',1545
'[08:40:26.031]',1435
'[08:40:26.039]',0.045
'[08:40:26.047]',-0.625
'[08:40:26.055]',-0.565
'[08:40:26.063]',-0.345
'[08:40:26.070]',-0.245
'[08:40:26.078]',-0.205
'[08:40:26.086]',-0.225
'[08:40:26.094]',-0.235
'[08:40:26.102]',-0.215
'[08:40:26.109]',-0.225
'[08:40:26.117]',-0.215
'[08:40:26.125]',-0.205
'[08:40:26.133]',-0.205
'[08:40:26.141]',-0.195
'[08:40:26.148]',-0.195
'[08:40:26.156]',-0.185
'[08:40:26.164]',-0.175
'[08:40:26.172]',-0.165
'[08:40:26.180]',-0.155
'[08:40:26.188]',-0.145
'[08:40:26.195]',-0.135
'[08:40:26.203]',-0.115
'[08:40:26.211]',-0.095
'[08:40:26.219]',-0.065
'[08:40:26.227]',-0.055
'[08:40:26.234]',-0.025
'[08:40:26.242]',-0.005
'[08:40:26.250]',0.015
'[08:40:26.258]',0.045
'[08:40:26.266]',0.085
'[08:40:26.273]',0.105
'[08:40:26.281]',0.135
'[08:40:26.289]',0.155
'[08:40:26.297]',0.165
'[08:40:26.305]',0.175
'[08:40:26.313]',0.135
'[08:40:26.320]',0.125
'[08:40:26.328]',0.095
'[08:40:26.336]',0.035
'[08:40:26.344]',0.015
'[08:40:26.352]',-0.035
'[08:40:26.359]',-0.075
'[08:40:26.367]',-0.075
'[08:40:26.375]',-0.105
'[08:40:26.383]',-0.105
'[08:40:26.391]',-0.105
'[08:40:26.398]',-0.115
'[08:40:26.406]',-0.105
'[08:40:26.414]',-0.115
'[08:40:26.422]',-0.115
'[08:40:26.430]',-0.125
'[08:40:26.438]',-0.125
'[08:40:26.445]',-0.105
'[08:40:26.453]',-0.105
'[08:40:26.461]',-0.105
'[08:40:26.469]',-0.095
'[08:40:26.477]',-0.095
'[08:40:26.484]',-0.095
'[08:40:26.492]',-0.095
'[08:40:26.500]',-0.105
'[08:40:26.508]',-0.115
'[08:40:26.516]',-0.105
'[08:40:26.523]',-0.115
'[08:40:26.531]',-0.115
'[08:40:26.539]',-0.115
'[08:40:26.547]',-0.125
'[08:40:26.555]',-0.135
'[08:40:26.563]',-0.135
'[08:40:26.570]',-0.155
'[08:40:26.578]',-0.145
'[08:40:26.586]',-0.145
'[08:40:26.594]',-0.145
'[08:40:26.602]',-0.145
'[08:40:26.609]',-0.145
'[08:40:26.617]',-0.115
'[08:40:26.625]',-0.035
'[08:40:26.633]',-0.015
'[08:40:26.641]',-0.025
'[08:40:26.648]',-0.055
'[08:40:26.656]',-0.075
'[08:40:26.664]',-0.105
'[08:40:26.672]',-0.135
'[08:40:26.680]',-0.155
'[08:40:26.688]',-0.165
'[08:40:26.695]',-0.175
'[08:40:26.703]',-0.155
'[08:40:26.711]',-0.155
'[08:40:26.719]',-0.155
'[08:40:26.727]',-0.155
'[08:40:26.734]',-0.155
'[08:40:26.742]',-0.145
'[08:40:26.750]',-0.145
'[08:40:26.758]',-0.155
'[08:40:26.766]',-0.115
'[08:40:26.773]',-0.225
'[08:40:26.781]',-0.395
'[08:40:26.789]',-0.055
'[08:40:26.797]',0.645
'[08:40:26.805]',1655
'[08:40:26.813]',1345
'[08:40:26.820]',-0.125
'[08:40:26.828]',-0.555
'[08:40:26.836]',-0.385
'[08:40:26.844]',-0.165
'[08:40:26.852]',-0.115
'[08:40:26.859]',-0.145
'[08:40:26.867]',-0.165
'[08:40:26.875]',-0.145
'[08:40:26.883]',-0.165
'[08:40:26.891]',-0.155
'[08:40:26.898]',-0.145
'[08:40:26.906]',-0.145
'[08:40:26.914]',-0.125
'[08:40:26.922]',-0.125
'[08:40:26.930]',-0.115
'[08:40:26.938]',-0.125
'[08:40:26.945]',-0.095
'[08:40:26.953]',-0.075
'[08:40:26.961]',-0.065
'[08:40:26.969]',-0.035
'[08:40:26.977]',-0.025
'[08:40:26.984]',-0.015
'[08:40:26.992]',0.005
'[08:40:27.000]',0.015
'[08:40:27.008]',0.055
'[08:40:27.016]',0.075
'[08:40:27.023]',0.095
'[08:40:27.031]',0.145
'[08:40:27.039]',0.165
'[08:40:27.047]',0.185
'[08:40:27.055]',0.205
'[08:40:27.063]',0.225
'[08:40:27.070]',0.265
'[08:40:27.078]',0.265
'[08:40:27.086]',0.265
'[08:40:27.094]',0.245
'[08:40:27.102]',0.205
'[08:40:27.109]',0.165
'[08:40:27.117]',0.115
'[08:40:27.125]',0.075
'[08:40:27.133]',0.045
'[08:40:27.141]',0.005
'[08:40:27.148]',-0.015
'[08:40:27.156]',-0.015
'[08:40:27.164]',-0.025
'[08:40:27.172]',-0.025
'[08:40:27.180]',-0.035
'[08:40:27.188]',-0.025
'[08:40:27.195]',-0.035
'[08:40:27.203]',-0.035
'[08:40:27.211]',-0.035
'[08:40:27.219]',-0.035
'[08:40:27.227]',-0.025
'[08:40:27.234]',-0.035
'[08:40:27.242]',-0.035
'[08:40:27.250]',-0.015
'[08:40:27.258]',-0.045
'[08:40:27.266]',-0.025
'[08:40:27.273]',-0.045
'[08:40:27.281]',-0.035
'[08:40:27.289]',-0.025
'[08:40:27.297]',-0.045
'[08:40:27.305]',-0.055
'[08:40:27.313]',-0.035
'[08:40:27.320]',-0.065
'[08:40:27.328]',-0.065
'[08:40:27.336]',-0.075
'[08:40:27.344]',-0.075
'[08:40:27.352]',-0.075
'[08:40:27.359]',-0.095
'[08:40:27.367]',-0.085
'[08:40:27.375]',-0.085
'[08:40:27.383]',-0.085
'[08:40:27.391]',-0.085
'[08:40:27.398]',-0.095
'[08:40:27.406]',-0.055
'[08:40:27.414]',-0.015
'[08:40:27.422]',0.055
'[08:40:27.430]',0.045
'[08:40:27.438]',-0.005
'[08:40:27.445]',-0.035
'[08:40:27.453]',-0.055
'[08:40:27.461]',-0.085
'[08:40:27.469]',-0.085
'[08:40:27.477]',-0.105
'[08:40:27.484]',-0.105
'[08:40:27.492]',-0.115
'[08:40:27.500]',-0.105
'[08:40:27.508]',-0.115
'[08:40:27.516]',-0.105
'[08:40:27.523]',-0.115
'[08:40:27.531]',-0.095
'[08:40:27.539]',-0.095
'[08:40:27.547]',-0.085
'[08:40:27.555]',-0.075
'[08:40:27.563]',-0.275
'[08:40:27.570]',-0.335
'[08:40:27.578]',0.025
'[08:40:27.586]',0.765
'[08:40:27.594]',1755
'[08:40:27.602]',1365
'[08:40:27.609]',-0.025
'[08:40:27.617]',-0.495
'[08:40:27.625]',-0.375
'[08:40:27.633]',-0.155
'[08:40:27.641]',-0.085
'[08:40:27.648]',-0.095
'[08:40:27.656]',-0.105
'[08:40:27.664]',-0.115
'[08:40:27.672]',-0.115
'[08:40:27.680]',-0.115
'[08:40:27.688]',-0.125
'[08:40:27.695]',-0.105
'[08:40:27.703]',-0.105
'[08:40:27.711]',-0.105
'[08:40:27.719]',-0.085
'[08:40:27.727]',-0.085
'[08:40:27.734]',-0.075
'[08:40:27.742]',-0.065
'[08:40:27.750]',-0.075
'[08:40:27.758]',-0.045
'[08:40:27.766]',-0.025
'[08:40:27.773]',-0.015
'[08:40:27.781]',0.005
'[08:40:27.789]',0.035
'[08:40:27.797]',0.055
'[08:40:27.805]',0.065
'[08:40:27.813]',0.085
'[08:40:27.820]',0.125
'[08:40:27.828]',0.155
'[08:40:27.836]',0.175
'[08:40:27.844]',0.215
'[08:40:27.852]',0.235
'[08:40:27.859]',0.275
'[08:40:27.867]',0.285
'[08:40:27.875]',0.305
'[08:40:27.883]',0.285
'[08:40:27.891]',0.265
'[08:40:27.898]',0.225
'[08:40:27.906]',0.205
'[08:40:27.914]',0.175
'[08:40:27.922]',0.115
'[08:40:27.930]',0.065
'[08:40:27.938]',0.045
'[08:40:27.945]',0.005
'[08:40:27.953]',0.015
'[08:40:27.961]',-0.005
'[08:40:27.969]',-0.015
'[08:40:27.977]',0.005
'[08:40:27.984]',-0.005
'[08:40:27.992]',-0.015
'[08:40:28.000]',-0.015
'[08:40:28.008]',-0.025
'[08:40:28.016]',-0.025
'[08:40:28.023]',-0.015
'[08:40:28.031]',-0.015
'[08:40:28.039]',0.005
'[08:40:28.047]',-0.005
'[08:40:28.055]',-0.015
'[08:40:28.063]',-0.005
'[08:40:28.070]',-0.025
'[08:40:28.078]',-0.015
'[08:40:28.086]',-0.025
'[08:40:28.094]',-0.035
'[08:40:28.102]',-0.025
'[08:40:28.109]',-0.025
'[08:40:28.117]',-0.045
'[08:40:28.125]',-0.035
'[08:40:28.133]',-0.045
'[08:40:28.141]',-0.055
'[08:40:28.148]',-0.055
'[08:40:28.156]',-0.065
'[08:40:28.164]',-0.065
'[08:40:28.172]',-0.055
'[08:40:28.180]',-0.075
'[08:40:28.188]',-0.065
'[08:40:28.195]',-0.045
'[08:40:28.203]',-0.065
'[08:40:28.211]',-0.065
'[08:40:28.219]',-0.085
'[08:40:28.227]',-0.045
'[08:40:28.234]',0.035
'[08:40:28.242]',0.095
'[08:40:28.250]',0.065
'[08:40:28.258]',0.005
'[08:40:28.266]',-0.015
'[08:40:28.273]',-0.055
'[08:40:28.281]',-0.085
'[08:40:28.289]',-0.085
'[08:40:28.297]',-0.085
'[08:40:28.305]',-0.085
'[08:40:28.313]',-0.095
'[08:40:28.320]',-0.115
'[08:40:28.328]',-0.105
'[08:40:28.336]',-0.095
'[08:40:28.344]',-0.095
'[08:40:28.352]',-0.075
'[08:40:28.359]',-0.075
'[08:40:28.367]',-0.065
'[08:40:28.375]',-0.175
'[08:40:28.383]',-0.325
'[08:40:28.391]',-0.025
'[08:40:28.398]',0.695
'[08:40:28.406]',1635
'[08:40:28.414]',1115
'[08:40:28.422]',-0.125
'[08:40:28.430]',-0.465
'[08:40:28.438]',-0.315
'[08:40:28.445]',-0.135
'[08:40:28.453]',-0.085
'[08:40:28.461]',-0.105
'[08:40:28.469]',-0.105
'[08:40:28.477]',-0.105
'[08:40:28.484]',-0.115
'[08:40:28.492]',-0.115
'[08:40:28.500]',-0.105
'[08:40:28.508]',-0.095
'[08:40:28.516]',-0.095
'[08:40:28.523]',-0.095
'[08:40:28.531]',-0.075
'[08:40:28.539]',-0.075
'[08:40:28.547]',-0.075
'[08:40:28.555]',-0.055
'[08:40:28.563]',-0.055
'[08:40:28.570]',-0.035
'[08:40:28.578]',-0.005
'[08:40:28.586]',0.005
'[08:40:28.594]',0.025
'[08:40:28.602]',0.035
'[08:40:28.609]',0.055
'[08:40:28.617]',0.075
'[08:40:28.625]',0.095
'[08:40:28.633]',0.125
'[08:40:28.641]',0.155
'[08:40:28.648]',0.175
'[08:40:28.656]',0.205
'[08:40:28.664]',0.245
'[08:40:28.672]',0.255
'[08:40:28.680]',0.255
'[08:40:28.688]',0.255
'[08:40:28.695]',0.245
'[08:40:28.703]',0.225
'[08:40:28.711]',0.185
'[08:40:28.719]',0.145
'[08:40:28.727]',0.105
'[08:40:28.734]',0.045
'[08:40:28.742]',0.015
'[08:40:28.750]',-0.015
'[08:40:28.758]',-0.025
'[08:40:28.766]',-0.035
'[08:40:28.773]',-0.025
'[08:40:28.781]',-0.025
'[08:40:28.789]',-0.045
'[08:40:28.797]',-0.045
'[08:40:28.805]',-0.035
'[08:40:28.813]',-0.055
'[08:40:28.820]',-0.035
'[08:40:28.828]',-0.045
'[08:40:28.836]',-0.045
'[08:40:28.844]',-0.045
'[08:40:28.852]',-0.035
'[08:40:28.859]',-0.025
'[08:40:28.867]',-0.045
'[08:40:28.875]',-0.055
'[08:40:28.883]',-0.055
'[08:40:28.891]',-0.045
'[08:40:28.898]',-0.065
'[08:40:28.906]',-0.065
'[08:40:28.914]',-0.065
'[08:40:28.922]',-0.065
'[08:40:28.930]',-0.085
'[08:40:28.938]',-0.095
'[08:40:28.945]',-0.085
'[08:40:28.953]',-0.065
'[08:40:28.961]',0.005
'[08:40:28.969]',0.055
'[08:40:28.977]',0.015
'[08:40:28.984]',-0.005
'[08:40:28.992]',-0.065
'[08:40:29.000]',-0.115
'[08:40:29.008]',-0.125
'[08:40:29.016]',-0.135
'[08:40:29.023]',-0.145
'[08:40:29.031]',-0.135
'[08:40:29.039]',-0.125
'[08:40:29.047]',-0.145
'[08:40:29.055]',-0.155
'[08:40:29.063]',-0.165
'[08:40:29.070]',-0.145
'[08:40:29.078]',-0.145
'[08:40:29.086]',-0.145
'[08:40:29.094]',-0.125
'[08:40:29.102]',-0.105
'[08:40:29.109]',-0.205
'[08:40:29.117]',-0.445
'[08:40:29.125]',-0.335
'[08:40:29.133]',0.325
'[08:40:29.141]',1455
'[08:40:29.148]',1675
'[08:40:29.156]',0.295
'[08:40:29.164]',-0.465
'[08:40:29.172]',-0.555
'[08:40:29.180]',-0.395
'[08:40:29.188]',-0.215
'[08:40:29.195]',-0.155
'[08:40:29.203]',-0.145
'[08:40:29.211]',-0.175
'[08:40:29.219]',-0.175
'[08:40:29.227]',-0.165
'[08:40:29.234]',-0.155
'[08:40:29.242]',-0.165
'[08:40:29.250]',-0.145
'[08:40:29.258]',-0.155
'[08:40:29.266]',-0.145
'[08:40:29.273]',-0.145
'[08:40:29.281]',-0.135
'[08:40:29.289]',-0.115
'[08:40:29.297]',-0.105
'[08:40:29.305]',-0.115
'[08:40:29.313]',-0.085
'[08:40:29.320]',-0.085
'[08:40:29.328]',-0.065
'[08:40:29.336]',-0.045
'[08:40:29.344]',-0.025
'[08:40:29.352]',-0.005
'[08:40:29.359]',0.015
'[08:40:29.367]',0.035
'[08:40:29.375]',0.045
'[08:40:29.383]',0.065
'[08:40:29.391]',0.095
'[08:40:29.398]',0.125
'[08:40:29.406]',0.165
'[08:40:29.414]',0.185
'[08:40:29.422]',0.195
'[08:40:29.430]',0.195
'[08:40:29.438]',0.185
'[08:40:29.445]',0.175
'[08:40:29.453]',0.135
'[08:40:29.461]',0.095
'[08:40:29.469]',0.055
'[08:40:29.477]',0.025
'[08:40:29.484]',-0.015
'[08:40:29.492]',-0.055
'[08:40:29.500]',-0.075
'[08:40:29.508]',-0.105
'[08:40:29.516]',-0.105
'[08:40:29.523]',-0.115
'[08:40:29.531]',-0.105
'[08:40:29.539]',-0.095
'[08:40:29.547]',-0.115
'[08:40:29.555]',-0.105
'[08:40:29.563]',-0.105
'[08:40:29.570]',-0.105
'[08:40:29.578]',-0.085
'[08:40:29.586]',-0.105
'[08:40:29.594]',-0.095
'[08:40:29.602]',-0.085
'[08:40:29.609]',-0.105
'[08:40:29.617]',-0.105
'[08:40:29.625]',-0.105
'[08:40:29.633]',-0.125
'[08:40:29.641]',-0.125
'[08:40:29.648]',-0.125
'[08:40:29.656]',-0.135
'[08:40:29.664]',-0.135
'[08:40:29.672]',-0.115
'[08:40:29.680]',-0.085
'[08:40:29.688]',-0.045
'[08:40:29.695]',-0.025
'[08:40:29.703]',-0.075
'[08:40:29.711]',-0.095
'[08:40:29.719]',-0.125
'[08:40:29.727]',-0.165
'[08:40:29.734]',-0.175
'[08:40:29.742]',-0.195
'[08:40:29.750]',-0.195
'[08:40:29.758]',-0.195
'[08:40:29.766]',-0.185
'[08:40:29.773]',-0.195
'[08:40:29.781]',-0.195
'[08:40:29.789]',-0.195
'[08:40:29.797]',-0.205
'[08:40:29.805]',-0.195
'[08:40:29.813]',-0.195
'[08:40:29.820]',-0.185
'[08:40:29.828]',-0.185
'[08:40:29.836]',-0.355
'[08:40:29.844]',-0.455
'[08:40:29.852]',-0.215
'[08:40:29.859]',0.455
'[08:40:29.867]',1445
'[08:40:29.875]',1705
'[08:40:29.883]',0.445
'[08:40:29.891]',-0.515
'[08:40:29.898]',-0.625
'[08:40:29.906]',-0.425
'[08:40:29.914]',-0.225
'[08:40:29.922]',-0.195
'[08:40:29.930]',-0.215
'[08:40:29.938]',-0.215
'[08:40:29.945]',-0.245
'[08:40:29.953]',-0.225
'[08:40:29.961]',-0.225
'[08:40:29.969]',-0.205
'[08:40:29.977]',-0.195
'[08:40:29.984]',-0.195
'[08:40:29.992]',-0.195
'[08:40:30.000]',-0.195
'[08:40:30.008]',-0.195
'[08:40:30.016]',-0.175
'[08:40:30.023]',-0.165
'[08:40:30.031]',-0.145
'[08:40:30.039]',-0.125
'[08:40:30.047]',-0.115
'[08:40:30.055]',-0.105
'[08:40:30.063]',-0.095
'[08:40:30.070]',-0.085
'[08:40:30.078]',-0.055
'[08:40:30.086]',-0.025
'[08:40:30.094]',-0.005
'[08:40:30.102]',0.035
'[08:40:30.109]',0.055
'[08:40:30.117]',0.075
'[08:40:30.125]',0.115
'[08:40:30.133]',0.125
'[08:40:30.141]',0.155
'[08:40:30.148]',0.155
'[08:40:30.156]',0.155
'[08:40:30.164]',0.145
'[08:40:30.172]',0.105
'[08:40:30.180]',0.055
'[08:40:30.188]',0.025
'[08:40:30.195]',-0.035
'[08:40:30.203]',-0.055
'[08:40:30.211]',-0.095
'[08:40:30.219]',-0.105
'[08:40:30.227]',-0.105
'[08:40:30.234]',-0.135
'[08:40:30.242]',-0.135
'[08:40:30.250]',-0.135
'[08:40:30.258]',-0.145
'[08:40:30.266]',-0.135
'[08:40:30.273]',-0.135
'[08:40:30.281]',-0.135
'[08:40:30.289]',-0.135
'[08:40:30.297]',-0.125
'[08:40:30.305]',-0.135
'[08:40:30.313]',-0.125
'[08:40:30.320]',-0.135
'[08:40:30.328]',-0.135
'[08:40:30.336]',-0.135
'[08:40:30.344]',-0.125
'[08:40:30.352]',-0.125
'[08:40:30.359]',-0.145
'[08:40:30.367]',-0.155
'[08:40:30.375]',-0.165
'[08:40:30.383]',-0.175
'[08:40:30.391]',-0.165
'[08:40:30.398]',-0.185
'[08:40:30.406]',-0.175
'[08:40:30.414]',-0.185
'[08:40:30.422]',-0.195
'[08:40:30.430]',-0.205
'[08:40:30.438]',-0.195
'[08:40:30.445]',-0.165
'[08:40:30.453]',-0.085
'[08:40:30.461]',-0.055
'[08:40:30.469]',-0.105
'[08:40:30.477]',-0.125
'[08:40:30.484]',-0.165
'[08:40:30.492]',-0.185
'[08:40:30.500]',-0.225
'[08:40:30.508]',-0.225
'[08:40:30.516]',-0.225
'[08:40:30.523]',-0.225
'[08:40:30.531]',-0.225
'[08:40:30.539]',-0.235
'[08:40:30.547]',-0.235
'[08:40:30.555]',-0.235
'[08:40:30.563]',-0.245
'[08:40:30.570]',-0.235
'[08:40:30.578]',-0.225
'[08:40:30.586]',-0.215
'[08:40:30.594]',-0.225
'[08:40:30.602]',-0.345
'[08:40:30.609]',-0.415
'[08:40:30.617]',-0.065
'[08:40:30.625]',0.645
'[08:40:30.633]',1515
'[08:40:30.641]',1135
'[08:40:30.648]',-0.125
'[08:40:30.656]',-0.595
'[08:40:30.664]',-0.475
'[08:40:30.672]',-0.275
'[08:40:30.680]',-0.215
'[08:40:30.688]',-0.225
'[08:40:30.695]',-0.255
'[08:40:30.703]',-0.245
'[08:40:30.711]',-0.255
'[08:40:30.719]',-0.235
'[08:40:30.727]',-0.215
'[08:40:30.734]',-0.235
'[08:40:30.742]',-0.235
'[08:40:30.750]',-0.225
'[08:40:30.758]',-0.235
'[08:40:30.766]',-0.215
'[08:40:30.773]',-0.205
'[08:40:30.781]',-0.195
'[08:40:30.789]',-0.165
'[08:40:30.797]',-0.165
'[08:40:30.805]',-0.155
'[08:40:30.813]',-0.135
'[08:40:30.820]',-0.125
'[08:40:30.828]',-0.105
'[08:40:30.836]',-0.075
'[08:40:30.844]',-0.055
'[08:40:30.852]',-0.015
'[08:40:30.859]',0.005
'[08:40:30.867]',0.025
'[08:40:30.875]',0.055
'[08:40:30.883]',0.075
'[08:40:30.891]',0.125
'[08:40:30.898]',0.125
'[08:40:30.906]',0.155
'[08:40:30.914]',0.185
'[08:40:30.922]',0.165
'[08:40:30.930]',0.125
'[08:40:30.938]',0.095
'[08:40:30.945]',0.055
'[08:40:30.953]',0.015
'[08:40:30.961]',-0.035
'[08:40:30.969]',-0.065
'[08:40:30.977]',-0.085
'[08:40:30.984]',-0.105
'[08:40:30.992]',-0.125
'[08:40:31.000]',-0.125
'[08:40:31.008]',-0.145
'[08:40:31.016]',-0.135
'[08:40:31.023]',-0.135
'[08:40:31.031]',-0.125
'[08:40:31.039]',-0.125
'[08:40:31.047]',-0.125
'[08:40:31.055]',-0.125
'[08:40:31.063]',-0.115
'[08:40:31.070]',-0.135
'[08:40:31.078]',-0.125
'[08:40:31.086]',-0.125
'[08:40:31.094]',-0.125
'[08:40:31.102]',-0.115
'[08:40:31.109]',-0.125
'[08:40:31.117]',-0.135
'[08:40:31.125]',-0.135
'[08:40:31.133]',-0.145
'[08:40:31.141]',-0.135
'[08:40:31.148]',-0.135
'[08:40:31.156]',-0.155
'[08:40:31.164]',-0.155
'[08:40:31.172]',-0.165
'[08:40:31.180]',-0.165
'[08:40:31.188]',-0.175
'[08:40:31.195]',-0.185
'[08:40:31.203]',-0.175
'[08:40:31.211]',-0.175
'[08:40:31.219]',-0.175
'[08:40:31.227]',-0.155
'[08:40:31.234]',-0.165
'[08:40:31.242]',-0.185
'[08:40:31.250]',-0.155
'[08:40:31.258]',-0.115
'[08:40:31.266]',-0.055
'[08:40:31.273]',-0.045
'[08:40:31.281]',-0.085
'[08:40:31.289]',-0.095
'[08:40:31.297]',-0.125
'[08:40:31.305]',-0.165
'[08:40:31.313]',-0.195
'[08:40:31.320]',-0.195
'[08:40:31.328]',-0.195
'[08:40:31.336]',-0.195
'[08:40:31.344]',-0.195
'[08:40:31.352]',-0.195
'[08:40:31.359]',-0.195
'[08:40:31.367]',-0.195
'[08:40:31.375]',-0.185
'[08:40:31.383]',-0.195
'[08:40:31.391]',-0.175
'[08:40:31.398]',-0.155
'[08:40:31.406]',-0.275
'[08:40:31.414]',-0.395
'[08:40:31.422]',-0.075
'[08:40:31.430]',0.675
'[08:40:31.438]',1565
'[08:40:31.445]',1165
'[08:40:31.453]',-0.105
'[08:40:31.461]',-0.535
'[08:40:31.469]',-0.425
'[08:40:31.477]',-0.225
'[08:40:31.484]',-0.155
'[08:40:31.492]',-0.175
'[08:40:31.500]',-0.185
'[08:40:31.508]',-0.195
'[08:40:31.516]',-0.185
'[08:40:31.523]',-0.195
'[08:40:31.531]',-0.185
'[08:40:31.539]',-0.165
'[08:40:31.547]',-0.175
'[08:40:31.555]',-0.175
'[08:40:31.563]',-0.155
'[08:40:31.570]',-0.155
'[08:40:31.578]',-0.135
'[08:40:31.586]',-0.135
'[08:40:31.594]',-0.125
'[08:40:31.602]',-0.085
'[08:40:31.609]',-0.085
'[08:40:31.617]',-0.075
'[08:40:31.625]',-0.045
'[08:40:31.633]',-0.045
'[08:40:31.641]',-0.005
'[08:40:31.648]',0.015
'[08:40:31.656]',0.045
'[08:40:31.664]',0.075
'[08:40:31.672]',0.095
'[08:40:31.680]',0.125
'[08:40:31.688]',0.145
'[08:40:31.695]',0.185
'[08:40:31.703]',0.215
'[08:40:31.711]',0.225
'[08:40:31.719]',0.235
'[08:40:31.727]',0.225
'[08:40:31.734]',0.195
'[08:40:31.742]',0.155
'[08:40:31.750]',0.115
'[08:40:31.758]',0.065
'[08:40:31.766]',0.035
'[08:40:31.773]',0.005
'[08:40:31.781]',-0.025
'[08:40:31.789]',-0.035
'[08:40:31.797]',-0.055
'[08:40:31.805]',-0.055
'[08:40:31.813]',-0.065
'[08:40:31.820]',-0.065
'[08:40:31.828]',-0.065
'[08:40:31.836]',-0.065
'[08:40:31.844]',-0.045
'[08:40:31.852]',-0.045
'[08:40:31.859]',-0.045
'[08:40:31.867]',-0.065
'[08:40:31.875]',-0.055
'[08:40:31.883]',-0.065
'[08:40:31.891]',-0.055
'[08:40:31.898]',-0.055
'[08:40:31.906]',-0.065
'[08:40:31.914]',-0.045
'[08:40:31.922]',-0.045
'[08:40:31.930]',-0.065
'[08:40:31.938]',-0.065
'[08:40:31.945]',-0.075
'[08:40:31.953]',-0.075
'[08:40:31.961]',-0.085
'[08:40:31.969]',-0.095
'[08:40:31.977]',-0.085
'[08:40:31.984]',-0.095
'[08:40:31.992]',-0.115
'[08:40:32.000]',-0.105
'[08:40:32.008]',-0.115
'[08:40:32.016]',-0.115
'[08:40:32.023]',-0.115
'[08:40:32.031]',-0.105
'[08:40:32.039]',-0.105
'[08:40:32.047]',-0.105
'[08:40:32.055]',-0.125
'[08:40:32.063]',-0.105
'[08:40:32.070]',-0.125
'[08:40:32.078]',-0.115
'[08:40:32.086]',-0.105
'[08:40:32.094]',-0.115
'[08:40:32.102]',-0.105
'[08:40:32.109]',-0.085
'[08:40:32.117]',-0.055
'[08:40:32.125]',0.005
'[08:40:32.133]',0.025
'[08:40:32.141]',-0.025
'[08:40:32.148]',-0.045
'[08:40:32.156]',-0.075
'[08:40:32.164]',-0.095
'[08:40:32.172]',-0.125
'[08:40:32.180]',-0.125
'[08:40:32.188]',-0.135
'[08:40:32.195]',-0.135
'[08:40:32.203]',-0.125
'[08:40:32.211]',-0.125
'[08:40:32.219]',-0.125
'[08:40:32.227]',-0.125
'[08:40:32.234]',-0.125
'[08:40:32.242]',-0.115
'[08:40:32.250]',-0.095
'[08:40:32.258]',-0.125
'[08:40:32.266]',-0.325
'[08:40:32.273]',-0.275
'[08:40:32.281]',0.245
'[08:40:32.289]',1325
'[08:40:32.297]',1655
'[08:40:32.305]',0.465
'[08:40:32.313]',-0.435
'[08:40:32.320]',-0.485
'[08:40:32.328]',-0.285
'[08:40:32.336]',-0.155
'[08:40:32.344]',-0.125
'[08:40:32.352]',-0.135
'[08:40:32.359]',-0.145
'[08:40:32.367]',-0.145
'[08:40:32.375]',-0.145
'[08:40:32.383]',-0.135
'[08:40:32.391]',-0.125
'[08:40:32.398]',-0.135
'[08:40:32.406]',-0.115
'[08:40:32.414]',-0.125
'[08:40:32.422]',-0.105
'[08:40:32.430]',-0.105
'[08:40:32.438]',-0.105
'[08:40:32.445]',-0.075
'[08:40:32.453]',-0.055
'[08:40:32.461]',-0.045
'[08:40:32.469]',-0.025
'[08:40:32.477]',-0.005
'[08:40:32.484]',0.005
'[08:40:32.492]',0.015
'[08:40:32.500]',0.035
'[08:40:32.508]',0.055
'[08:40:32.516]',0.095
'[08:40:32.523]',0.125
'[08:40:32.531]',0.165
'[08:40:32.539]',0.185
'[08:40:32.547]',0.225
'[08:40:32.555]',0.235
'[08:40:32.563]',0.245
'[08:40:32.570]',0.255
'[08:40:32.578]',0.255
'[08:40:32.586]',0.225
'[08:40:32.594]',0.195
'[08:40:32.602]',0.165
'[08:40:32.609]',0.115
'[08:40:32.617]',0.065
'[08:40:32.625]',0.045
'[08:40:32.633]',-0.005
'[08:40:32.641]',-0.035
'[08:40:32.648]',-0.055
'[08:40:32.656]',-0.065
'[08:40:32.664]',-0.065
'[08:40:32.672]',-0.075
'[08:40:32.680]',-0.085
'[08:40:32.688]',-0.065
'[08:40:32.695]',-0.075
'[08:40:32.703]',-0.075
'[08:40:32.711]',-0.085
'[08:40:32.719]',-0.075
'[08:40:32.727]',-0.055
'[08:40:32.734]',-0.075
'[08:40:32.742]',-0.075
'[08:40:32.750]',-0.055
'[08:40:32.758]',-0.075
'[08:40:32.766]',-0.075
'[08:40:32.773]',-0.085
'[08:40:32.781]',-0.075
'[08:40:32.789]',-0.085
'[08:40:32.797]',-0.085
'[08:40:32.805]',-0.105
'[08:40:32.813]',-0.095
'[08:40:32.820]',-0.115
'[08:40:32.828]',-0.115
'[08:40:32.836]',-0.125
'[08:40:32.844]',-0.115
'[08:40:32.852]',-0.105
'[08:40:32.859]',-0.065
'[08:40:32.867]',-0.005
'[08:40:32.875]',-0.015
'[08:40:32.883]',-0.065
'[08:40:32.891]',-0.075
'[08:40:32.898]',-0.135
'[08:40:32.906]',-0.145
'[08:40:32.914]',-0.155
'[08:40:32.922]',-0.165
'[08:40:32.930]',-0.175
'[08:40:32.938]',-0.175
'[08:40:32.945]',-0.175
'[08:40:32.953]',-0.175
'[08:40:32.961]',-0.175
'[08:40:32.969]',-0.175
'[08:40:32.977]',-0.165
'[08:40:32.984]',-0.175
'[08:40:32.992]',-0.175
'[08:40:33.000]',-0.155
'[08:40:33.008]',-0.155
'[08:40:33.016]',-0.345
'[08:40:33.023]',-0.405
'[08:40:33.031]',-0.075
'[08:40:33.039]',0.765
'[08:40:33.047]',1625
'[08:40:33.055]',1505
'[08:40:33.063]',1225
'[08:40:33.070]',0.185
'[08:40:33.078]',-0.585
'[08:40:33.086]',-0.525
'[08:40:33.094]',-0.325
'[08:40:33.102]',-0.185
'[08:40:33.109]',-0.195
'[08:40:33.117]',-0.215
'[08:40:33.125]',-0.205
'[08:40:33.133]',-0.215
'[08:40:33.141]',-0.205
'[08:40:33.148]',-0.195
'[08:40:33.156]',-0.195
'[08:40:33.164]',-0.165
'[08:40:33.172]',-0.175
'[08:40:33.180]',-0.175
'[08:40:33.188]',-0.155
'[08:40:33.195]',-0.155
'[08:40:33.203]',-0.145
'[08:40:33.211]',-0.135
'[08:40:33.219]',-0.115
'[08:40:33.227]',-0.095
'[08:40:33.234]',-0.085
'[08:40:33.242]',-0.065
'[08:40:33.250]',-0.045
'[08:40:33.258]',-0.035
'[08:40:33.266]',-0.005
'[08:40:33.273]',0.015
'[08:40:33.281]',0.045
'[08:40:33.289]',0.075
'[08:40:33.297]',0.105
'[08:40:33.305]',0.115
'[08:40:33.313]',0.145
'[08:40:33.320]',0.145
'[08:40:33.328]',0.155
'[08:40:33.336]',0.135
'[08:40:33.344]',0.115
'[08:40:33.352]',0.085
'[08:40:33.359]',0.045
'[08:40:33.367]',-0.005
'[08:40:33.375]',-0.045
'[08:40:33.383]',-0.085
'[08:40:33.391]',-0.095
'[08:40:33.398]',-0.125
'[08:40:33.406]',-0.115
'[08:40:33.414]',-0.115
'[08:40:33.422]',-0.145
'[08:40:33.430]',-0.155
'[08:40:33.438]',-0.145
'[08:40:33.445]',-0.145
'[08:40:33.453]',-0.145
'[08:40:33.461]',-0.145
'[08:40:33.469]',-0.125
'[08:40:33.477]',-0.125
'[08:40:33.484]',-0.125
'[08:40:33.492]',-0.135
'[08:40:33.500]',-0.115
'[08:40:33.508]',-0.125
'[08:40:33.516]',-0.135
'[08:40:33.523]',-0.135
'[08:40:33.531]',-0.135
'[08:40:33.539]',-0.115
'[08:40:33.547]',-0.145
'[08:40:33.555]',-0.155
'[08:40:33.563]',-0.155
'[08:40:33.570]',-0.165
'[08:40:33.578]',-0.165
'[08:40:33.586]',-0.155
'[08:40:33.594]',-0.165
'[08:40:33.602]',-0.175
'[08:40:33.609]',-0.155
'[08:40:33.617]',-0.125
'[08:40:33.625]',-0.055
'[08:40:33.633]',-0.045
'[08:40:33.641]',-0.085
'[08:40:33.648]',-0.115
'[08:40:33.656]',-0.125
'[08:40:33.664]',-0.165
'[08:40:33.672]',-0.195
'[08:40:33.680]',-0.195
'[08:40:33.688]',-0.205
'[08:40:33.695]',-0.195
'[08:40:33.703]',-0.195
'[08:40:33.711]',-0.205
'[08:40:33.719]',-0.185
'[08:40:33.727]',-0.195
'[08:40:33.734]',-0.195
'[08:40:33.742]',-0.195
'[08:40:33.750]',-0.185
'[08:40:33.758]',-0.175
'[08:40:33.766]',-0.175
'[08:40:33.773]',-0.335
'[08:40:33.781]',-0.365
'[08:40:33.789]',0.045
'[08:40:33.797]',0.855
'[08:40:33.805]',1685
'[08:40:33.813]',0.975
'[08:40:33.820]',-0.235
'[08:40:33.828]',-0.555
'[08:40:33.836]',-0.415
'[08:40:33.844]',-0.215
'[08:40:33.852]',-0.155
'[08:40:33.859]',-0.185
'[08:40:33.867]',-0.195
'[08:40:33.875]',-0.185
'[08:40:33.883]',-0.195
'[08:40:33.891]',-0.185
'[08:40:33.898]',-0.185
'[08:40:33.906]',-0.175
'[08:40:33.914]',-0.165
'[08:40:33.922]',-0.155
'[08:40:33.930]',-0.155
'[08:40:33.938]',-0.135
'[08:40:33.945]',-0.145
'[08:40:33.953]',-0.125
'[08:40:33.961]',-0.115
'[08:40:33.969]',-0.095
'[08:40:33.977]',-0.075
'[08:40:33.984]',-0.065
'[08:40:33.992]',-0.055
'[08:40:34.000]',-0.015
'[08:40:34.008]',0.005
'[08:40:34.016]',0.035
'[08:40:34.023]',0.045
'[08:40:34.031]',0.075
'[08:40:34.039]',0.115
'[08:40:34.047]',0.145
'[08:40:34.055]',0.175
'[08:40:34.063]',0.205
'[08:40:34.070]',0.215
'[08:40:34.078]',0.225
'[08:40:34.086]',0.225
'[08:40:34.094]',0.205
'[08:40:34.102]',0.195
'[08:40:34.109]',0.145
'[08:40:34.117]',0.085
'[08:40:34.125]',0.045
'[08:40:34.133]',0.005
'[08:40:34.141]',-0.005
'[08:40:34.148]',-0.045
'[08:40:34.156]',-0.055
'[08:40:34.164]',-0.055
'[08:40:34.172]',-0.055
'[08:40:34.180]',-0.075
'[08:40:34.188]',-0.075
'[08:40:34.195]',-0.085
'[08:40:34.203]',-0.075
'[08:40:34.211]',-0.075
'[08:40:34.219]',-0.065
'[08:40:34.227]',-0.065
'[08:40:34.234]',-0.065
'[08:40:34.242]',-0.065
'[08:40:34.250]',-0.065
'[08:40:34.258]',-0.065
'[08:40:34.266]',-0.065
'[08:40:34.273]',-0.065
'[08:40:34.281]',-0.075
'[08:40:34.289]',-0.055
'[08:40:34.297]',-0.075
'[08:40:34.305]',-0.085
'[08:40:34.313]',-0.085
'[08:40:34.320]',-0.095
'[08:40:34.328]',-0.085
'[08:40:34.336]',-0.115
'[08:40:34.344]',-0.095
'[08:40:34.352]',-0.105
'[08:40:34.359]',-0.115
'[08:40:34.367]',-0.115
'[08:40:34.375]',-0.125
'[08:40:34.383]',-0.115
'[08:40:34.391]',-0.075
'[08:40:34.398]',-0.025
'[08:40:34.406]',0.035
'[08:40:34.414]',-0.015
'[08:40:34.422]',-0.045
'[08:40:34.430]',-0.095
'[08:40:34.438]',-0.125
'[08:40:34.445]',-0.145
'[08:40:34.453]',-0.135
'[08:40:34.461]',-0.145
'[08:40:34.469]',-0.135
'[08:40:34.477]',-0.145
'[08:40:34.484]',-0.145
'[08:40:34.492]',-0.155
'[08:40:34.500]',-0.165
'[08:40:34.508]',-0.155
'[08:40:34.516]',-0.145
'[08:40:34.523]',-0.145
'[08:40:34.531]',-0.115
'[08:40:34.539]',-0.105
'[08:40:34.547]',-0.255
'[08:40:34.555]',-0.355
'[08:40:34.563]',-0.045
'[08:40:34.570]',0.625
'[08:40:34.578]',1525
'[08:40:34.586]',1245
'[08:40:34.594]',0.045
'[08:40:34.602]',-0.455
'[08:40:34.609]',-0.385
'[08:40:34.617]',-0.195
'[08:40:34.625]',-0.125
'[08:40:34.633]',-0.135
'[08:40:34.641]',-0.145
'[08:40:34.648]',-0.145
'[08:40:34.656]',-0.145
'[08:40:34.664]',-0.135
'[08:40:34.672]',-0.135
'[08:40:34.680]',-0.145
'[08:40:34.688]',-0.125
'[08:40:34.695]',-0.125
'[08:40:34.703]',-0.115
'[08:40:34.711]',-0.115
'[08:40:34.719]',-0.095
'[08:40:34.727]',-0.075
'[08:40:34.734]',-0.075
'[08:40:34.742]',-0.075
'[08:40:34.750]',-0.045
'[08:40:34.758]',-0.035
'[08:40:34.766]',-0.015
'[08:40:34.773]',-0.005
'[08:40:34.781]',0.015
'[08:40:34.789]',0.045
'[08:40:34.797]',0.075
'[08:40:34.805]',0.095
'[08:40:34.813]',0.115
'[08:40:34.820]',0.135
'[08:40:34.828]',0.175
'[08:40:34.836]',0.205
'[08:40:34.844]',0.225
'[08:40:34.852]',0.245
'[08:40:34.859]',0.265
'[08:40:34.867]',0.265
'[08:40:34.875]',0.245
'[08:40:34.883]',0.205
'[08:40:34.891]',0.185
'[08:40:34.898]',0.135
'[08:40:34.906]',0.085
'[08:40:34.914]',0.055
'[08:40:34.922]',0.025
'[08:40:34.930]',-0.005
'[08:40:34.938]',-0.025
'[08:40:34.945]',-0.055
'[08:40:34.953]',-0.045
'[08:40:34.961]',-0.045
'[08:40:34.969]',-0.045
'[08:40:34.977]',-0.055
'[08:40:34.984]',-0.055
'[08:40:34.992]',-0.045
'[08:40:35.000]',-0.055
'[08:40:35.008]',-0.065
'[08:40:35.016]',-0.055
'[08:40:35.023]',-0.055
'[08:40:35.031]',-0.055
'[08:40:35.039]',-0.045
'[08:40:35.047]',-0.045
'[08:40:35.055]',-0.055
'[08:40:35.063]',-0.055
'[08:40:35.070]',-0.065
'[08:40:35.078]',-0.065
'[08:40:35.086]',-0.075
'[08:40:35.094]',-0.085
'[08:40:35.102]',-0.075
'[08:40:35.109]',-0.085
'[08:40:35.117]',-0.105
'[08:40:35.125]',-0.095
'[08:40:35.133]',-0.095
'[08:40:35.141]',-0.105
'[08:40:35.148]',-0.115
'[08:40:35.156]',-0.075
'[08:40:35.164]',-0.045
'[08:40:35.172]',-0.005
'[08:40:35.180]',0.025
'[08:40:35.188]',-0.025
'[08:40:35.195]',-0.055
'[08:40:35.203]',-0.095
'[08:40:35.211]',-0.115
'[08:40:35.219]',-0.115
'[08:40:35.227]',-0.135
'[08:40:35.234]',-0.145
'[08:40:35.242]',-0.145
'[08:40:35.250]',-0.165
'[08:40:35.258]',-0.165
'[08:40:35.266]',-0.155
'[08:40:35.273]',-0.165
'[08:40:35.281]',-0.165
'[08:40:35.289]',-0.155
'[08:40:35.297]',-0.165
'[08:40:35.305]',-0.145
'[08:40:35.313]',-0.135
'[08:40:35.320]',-0.215
'[08:40:35.328]',-0.395
'[08:40:35.336]',-0.285
'[08:40:35.344]',0.165
'[08:40:35.352]',1145
'[08:40:35.359]',1725
'[08:40:35.367]',0.725
'[08:40:35.375]',-0.385
'[08:40:35.383]',-0.565
'[08:40:35.391]',-0.385
'[08:40:35.398]',-0.205
'[08:40:35.406]',-0.155
'[08:40:35.414]',-0.165
'[08:40:35.422]',-0.185
'[08:40:35.430]',-0.195
'[08:40:35.438]',-0.175
'[08:40:35.445]',-0.185
'[08:40:35.453]',-0.155
'[08:40:35.461]',-0.165
'[08:40:35.469]',-0.165
'[08:40:35.477]',-0.145
'[08:40:35.484]',-0.145
'[08:40:35.492]',-0.155
'[08:40:35.500]',-0.115
'[08:40:35.508]',-0.115
'[08:40:35.516]',-0.105
'[08:40:35.523]',-0.105
'[08:40:35.531]',-0.085
'[08:40:35.539]',-0.035
'[08:40:35.547]',-0.035
'[08:40:35.555]',-0.025
'[08:40:35.563]',0.005
'[08:40:35.570]',0.015
'[08:40:35.578]',0.045
'[08:40:35.586]',0.075
'[08:40:35.594]',0.115
'[08:40:35.602]',0.145
'[08:40:35.609]',0.155
'[08:40:35.617]',0.175
'[08:40:35.625]',0.215
'[08:40:35.633]',0.205
'[08:40:35.641]',0.205
'[08:40:35.648]',0.185
'[08:40:35.656]',0.155
'[08:40:35.664]',0.125
'[08:40:35.672]',0.065
'[08:40:35.680]',0.015
'[08:40:35.688]',-0.035
'[08:40:35.695]',-0.065
'[08:40:35.703]',-0.065
'[08:40:35.711]',-0.085
'[08:40:35.719]',-0.095
'[08:40:35.727]',-0.105
'[08:40:35.734]',-0.105
'[08:40:35.742]',-0.105
'[08:40:35.750]',-0.115
'[08:40:35.758]',-0.105
'[08:40:35.766]',-0.105
'[08:40:35.773]',-0.095
'[08:40:35.781]',-0.095
'[08:40:35.789]',-0.085
'[08:40:35.797]',-0.085
'[08:40:35.805]',-0.095
'[08:40:35.813]',-0.095
'[08:40:35.820]',-0.095
'[08:40:35.828]',-0.095
'[08:40:35.836]',-0.095
'[08:40:35.844]',-0.085
'[08:40:35.852]',-0.105
'[08:40:35.859]',-0.115
'[08:40:35.867]',-0.125
'[08:40:35.875]',-0.115
'[08:40:35.883]',-0.075
'[08:40:35.891]',-0.015
'[08:40:35.898]',-0.005
'[08:40:35.906]',-0.045
'[08:40:35.914]',-0.075
'[08:40:35.922]',-0.135
'[08:40:35.930]',-0.155
'[08:40:35.938]',-0.195
'[08:40:35.945]',-0.185
'[08:40:35.953]',-0.185
'[08:40:35.961]',-0.185
'[08:40:35.969]',-0.195
'[08:40:35.977]',-0.185
'[08:40:35.984]',-0.195
'[08:40:35.992]',-0.195
'[08:40:36.000]',-0.185
'[08:40:36.008]',-0.195
'[08:40:36.016]',-0.195
'[08:40:36.023]',-0.185
'[08:40:36.031]',-0.175
'[08:40:36.039]',-0.165
'[08:40:36.047]',-0.355
'[08:40:36.055]',-0.455
'[08:40:36.063]',-0.175
'[08:40:36.070]',0.585
'[08:40:36.078]',1555
'[08:40:36.086]',1315
'[08:40:36.094]',0.055
'[08:40:36.102]',-0.555
'[08:40:36.109]',-0.505
'[08:40:36.117]',-0.335
'[08:40:36.125]',-0.195
'[08:40:36.133]',-0.195
'[08:40:36.141]',-0.195
'[08:40:36.148]',-0.215
'[08:40:36.156]',-0.205
'[08:40:36.164]',-0.185
'[08:40:36.172]',-0.185
'[08:40:36.180]',-0.185
'[08:40:36.188]',-0.175
'[08:40:36.195]',-0.185
'[08:40:36.203]',-0.165
'[08:40:36.211]',-0.145
'[08:40:36.219]',-0.145
'[08:40:36.227]',-0.125
'[08:40:36.234]',-0.115
'[08:40:36.242]',-0.105
'[08:40:36.250]',-0.095
'[08:40:36.258]',-0.085
'[08:40:36.266]',-0.055
'[08:40:36.273]',-0.035
'[08:40:36.281]',-0.015
'[08:40:36.289]',0.015
'[08:40:36.297]',0.045
'[08:40:36.305]',0.045
'[08:40:36.313]',0.085
'[08:40:36.320]',0.115
'[08:40:36.328]',0.145
'[08:40:36.336]',0.155
'[08:40:36.344]',0.185
'[08:40:36.352]',0.215
'[08:40:36.359]',0.235
'[08:40:36.367]',0.205
'[08:40:36.375]',0.175
'[08:40:36.383]',0.125
'[08:40:36.391]',0.105
'[08:40:36.398]',0.055
'[08:40:36.406]',0.025
'[08:40:36.414]',-0.005
'[08:40:36.422]',-0.035
'[08:40:36.430]',-0.055
'[08:40:36.438]',-0.065
'[08:40:36.445]',-0.075
'[08:40:36.453]',-0.075
'[08:40:36.461]',-0.085
'[08:40:36.469]',-0.065
'[08:40:36.477]',-0.065
'[08:40:36.484]',-0.075
'[08:40:36.492]',-0.075
'[08:40:36.500]',-0.075
'[08:40:36.508]',-0.085
'[08:40:36.516]',-0.065
'[08:40:36.523]',-0.065
'[08:40:36.531]',-0.055
'[08:40:36.539]',-0.065
'[08:40:36.547]',-0.075
'[08:40:36.555]',-0.085
'[08:40:36.563]',-0.075
'[08:40:36.570]',-0.085
'[08:40:36.578]',-0.095
'[08:40:36.586]',-0.105
'[08:40:36.594]',-0.095
'[08:40:36.602]',-0.105
'[08:40:36.609]',-0.115
'[08:40:36.617]',-0.095
'[08:40:36.625]',-0.055
'[08:40:36.633]',0.015
'[08:40:36.641]',0.005
'[08:40:36.648]',-0.035
'[08:40:36.656]',-0.055
'[08:40:36.664]',-0.095
'[08:40:36.672]',-0.135
'[08:40:36.680]',-0.145
'[08:40:36.688]',-0.165
'[08:40:36.695]',-0.165
'[08:40:36.703]',-0.165
'[08:40:36.711]',-0.155
'[08:40:36.719]',-0.155
'[08:40:36.727]',-0.165
'[08:40:36.734]',-0.165
'[08:40:36.742]',-0.155
'[08:40:36.750]',-0.175
'[08:40:36.758]',-0.155
'[08:40:36.766]',-0.135
'[08:40:36.773]',-0.165
'[08:40:36.781]',-0.325
'[08:40:36.789]',-0.305
'[08:40:36.797]',0.215
'[08:40:36.805]',1115
'[08:40:36.813]',1605
'[08:40:36.820]',0.765
'[08:40:36.828]',-0.365
'[08:40:36.836]',-0.475
'[08:40:36.844]',-0.285
'[08:40:36.852]',-0.145
'[08:40:36.859]',-0.135
'[08:40:36.867]',-0.165
'[08:40:36.875]',-0.175
'[08:40:36.883]',-0.175
'[08:40:36.891]',-0.165
'[08:40:36.898]',-0.165
'[08:40:36.906]',-0.145
'[08:40:36.914]',-0.145
'[08:40:36.922]',-0.145
'[08:40:36.930]',-0.125
'[08:40:36.938]',-0.145
'[08:40:36.945]',-0.125
'[08:40:36.953]',-0.105
'[08:40:36.961]',-0.105
'[08:40:36.969]',-0.075
'[08:40:36.977]',-0.065
'[08:40:36.984]',-0.055
'[08:40:36.992]',-0.045
'[08:40:37.000]',-0.035
'[08:40:37.008]',-0.005
'[08:40:37.016]',0.015
'[08:40:37.023]',0.035
'[08:40:37.031]',0.065
'[08:40:37.039]',0.105
'[08:40:37.047]',0.125
'[08:40:37.055]',0.145
'[08:40:37.063]',0.185
'[08:40:37.070]',0.215
'[08:40:37.078]',0.235
'[08:40:37.086]',0.245
'[08:40:37.094]',0.255
'[08:40:37.102]',0.255
'[08:40:37.109]',0.215
'[08:40:37.117]',0.165
'[08:40:37.125]',0.145
'[08:40:37.133]',0.075
'[08:40:37.141]',0.045
'[08:40:37.148]',0.015
'[08:40:37.156]',-0.015
'[08:40:37.164]',-0.025
'[08:40:37.172]',-0.045
'[08:40:37.180]',-0.055
'[08:40:37.188]',-0.045
'[08:40:37.195]',-0.055
'[08:40:37.203]',-0.045
'[08:40:37.211]',-0.045
'[08:40:37.219]',-0.055
'[08:40:37.227]',-0.045
'[08:40:37.234]',-0.055
'[08:40:37.242]',-0.045
'[08:40:37.250]',-0.055
'[08:40:37.258]',-0.045
'[08:40:37.266]',-0.045
'[08:40:37.273]',-0.045
'[08:40:37.281]',-0.035
'[08:40:37.289]',-0.045
'[08:40:37.297]',-0.045
'[08:40:37.305]',-0.045
'[08:40:37.313]',-0.055
'[08:40:37.320]',-0.065
'[08:40:37.328]',-0.065
'[08:40:37.336]',-0.075
'[08:40:37.344]',-0.065
'[08:40:37.352]',-0.085
'[08:40:37.359]',-0.075
'[08:40:37.367]',-0.055
'[08:40:37.375]',0.005
'[08:40:37.383]',0.055
'[08:40:37.391]',0.045
'[08:40:37.398]',-0.005
'[08:40:37.406]',-0.025
'[08:40:37.414]',-0.065
'[08:40:37.422]',-0.105
'[08:40:37.430]',-0.115
'[08:40:37.438]',-0.125
'[08:40:37.445]',-0.125
'[08:40:37.453]',-0.125
'[08:40:37.461]',-0.135
'[08:40:37.469]',-0.125
'[08:40:37.477]',-0.115
'[08:40:37.484]',-0.125
'[08:40:37.492]',-0.125
'[08:40:37.500]',-0.115
'[08:40:37.508]',-0.125
'[08:40:37.516]',-0.105
'[08:40:37.523]',-0.105
'[08:40:37.531]',-0.265
'[08:40:37.539]',-0.325
'[08:40:37.547]',0.045
'[08:40:37.555]',0.795
'[08:40:37.563]',1655
'[08:40:37.570]',1155
'[08:40:37.578]',-0.085
'[08:40:37.586]',-0.475
'[08:40:37.594]',-0.355
'[08:40:37.602]',-0.145
'[08:40:37.609]',-0.095
'[08:40:37.617]',-0.115
'[08:40:37.625]',-0.125
'[08:40:37.633]',-0.145
'[08:40:37.641]',-0.135
'[08:40:37.648]',-0.135
'[08:40:37.656]',-0.125
'[08:40:37.664]',-0.105
'[08:40:37.672]',-0.105
'[08:40:37.680]',-0.115
'[08:40:37.688]',-0.105
'[08:40:37.695]',-0.095
'[08:40:37.703]',-0.085
'[08:40:37.711]',-0.065
'[08:40:37.719]',-0.075
'[08:40:37.727]',-0.035
'[08:40:37.734]',-0.025
'[08:40:37.742]',-0.015
'[08:40:37.750]',0.015
'[08:40:37.758]',0.015
'[08:40:37.766]',0.045
'[08:40:37.773]',0.065
'[08:40:37.781]',0.095
'[08:40:37.789]',0.125
'[08:40:37.797]',0.145
'[08:40:37.805]',0.175
'[08:40:37.813]',0.195
'[08:40:37.820]',0.235
'[08:40:37.828]',0.245
'[08:40:37.836]',0.265
'[08:40:37.844]',0.265
'[08:40:37.852]',0.235
'[08:40:37.859]',0.195
'[08:40:37.867]',0.145
'[08:40:37.875]',0.095
'[08:40:37.883]',0.055
'[08:40:37.891]',0.015
'[08:40:37.898]',-0.015
'[08:40:37.906]',-0.015
'[08:40:37.914]',-0.025
'[08:40:37.922]',-0.035
'[08:40:37.930]',-0.045
'[08:40:37.938]',-0.055
'[08:40:37.945]',-0.055
'[08:40:37.953]',-0.045
'[08:40:37.961]',-0.035
'[08:40:37.969]',-0.035
'[08:40:37.977]',-0.035
'[08:40:37.984]',-0.045
'[08:40:37.992]',-0.035
'[08:40:38.000]',-0.045
'[08:40:38.008]',-0.035
'[08:40:38.016]',-0.045
'[08:40:38.023]',-0.045
'[08:40:38.031]',-0.045
'[08:40:38.039]',-0.045
'[08:40:38.047]',-0.045
'[08:40:38.055]',-0.065
'[08:40:38.063]',-0.065
'[08:40:38.070]',-0.085
'[08:40:38.078]',-0.085
'[08:40:38.086]',-0.085
'[08:40:38.094]',-0.085
'[08:40:38.102]',-0.075
'[08:40:38.109]',-0.065
'[08:40:38.117]',-0.055
'[08:40:38.125]',0.015
'[08:40:38.133]',0.025
'[08:40:38.141]',0.015
'[08:40:38.148]',-0.025
'[08:40:38.156]',-0.065
'[08:40:38.164]',-0.105
'[08:40:38.172]',-0.115
'[08:40:38.180]',-0.115
'[08:40:38.188]',-0.105
'[08:40:38.195]',-0.125
'[08:40:38.203]',-0.145
'[08:40:38.211]',-0.165
'[08:40:38.219]',-0.155
'[08:40:38.227]',-0.155
'[08:40:38.234]',-0.155
'[08:40:38.242]',-0.145
'[08:40:38.250]',-0.145
'[08:40:38.258]',-0.145
'[08:40:38.266]',-0.155
'[08:40:38.273]',-0.125
'[08:40:38.281]',-0.185
'[08:40:38.289]',-0.390
'[08:40:38.297]',-0.210
'[08:40:38.305]',0.540
'[08:40:38.313]',1570
'[08:40:38.320]',1070
'[08:40:38.328]',-0.290
'[08:40:38.336]',-0.550
'[08:40:38.344]',-0.380
'[08:40:38.352]',-0.190
'[08:40:38.359]',-0.160
'[08:40:38.367]',-0.170
'[08:40:38.375]',-0.190
'[08:40:38.383]',-0.200
'[08:40:38.391]',-0.190
'[08:40:38.398]',-0.190
'[08:40:38.406]',-0.180
'[08:40:38.414]',-0.180
'[08:40:38.422]',-0.150
'[08:40:38.430]',-0.160
'[08:40:38.438]',-0.170
'[08:40:38.445]',-0.150
'[08:40:38.453]',-0.140
'[08:40:38.461]',-0.120
'[08:40:38.469]',-0.090
'[08:40:38.477]',-0.080
'[08:40:38.484]',-0.080
'[08:40:38.492]',-0.050
'[08:40:38.500]',-0.040
'[08:40:38.508]',-0.005
'[08:40:38.516]',0.015
'[08:40:38.523]',0.035
'[08:40:38.531]',0.075
'[08:40:38.539]',0.105
'[08:40:38.547]',0.135
'[08:40:38.555]',0.165
'[08:40:38.563]',0.175
'[08:40:38.570]',0.195
'[08:40:38.578]',0.195
'[08:40:38.586]',0.175
'[08:40:38.594]',0.155
'[08:40:38.602]',0.115
'[08:40:38.609]',0.075
'[08:40:38.617]',0.035
'[08:40:38.625]',-0.025
'[08:40:38.633]',-0.035
'[08:40:38.641]',-0.085
'[08:40:38.648]',-0.115
'[08:40:38.656]',-0.115
'[08:40:38.664]',-0.115
'[08:40:38.672]',-0.125
'[08:40:38.680]',-0.135
'[08:40:38.688]',-0.155
'[08:40:38.695]',-0.125
'[08:40:38.703]',-0.125
'[08:40:38.711]',-0.125
'[08:40:38.719]',-0.115
'[08:40:38.727]',-0.115
'[08:40:38.734]',-0.125
'[08:40:38.742]',-0.125
'[08:40:38.750]',-0.135
'[08:40:38.758]',-0.115
'[08:40:38.766]',-0.125
'[08:40:38.773]',-0.125
'[08:40:38.781]',-0.135
'[08:40:38.789]',-0.135
'[08:40:38.797]',-0.125
'[08:40:38.805]',-0.135
'[08:40:38.813]',-0.035
'[08:40:38.820]',-0.015
'[08:40:38.828]',-0.035
'[08:40:38.836]',-0.095
'[08:40:38.844]',-0.105
'[08:40:38.852]',-0.145
'[08:40:38.859]',-0.185
'[08:40:38.867]',-0.205
'[08:40:38.875]',-0.195
'[08:40:38.883]',-0.225
'[08:40:38.891]',-0.205
'[08:40:38.898]',-0.215
'[08:40:38.906]',-0.205
'[08:40:38.914]',-0.195
'[08:40:38.922]',-0.205
'[08:40:38.930]',-0.225
'[08:40:38.938]',-0.205
'[08:40:38.945]',-0.205
'[08:40:38.953]',-0.185
'[08:40:38.961]',-0.175
'[08:40:38.969]',-0.185
'[08:40:38.977]',-0.425
'[08:40:38.984]',-0.415
'[08:40:38.992]',-0.015
'[08:40:39.000]',1015
'[08:40:39.008]',1725
'[08:40:39.016]',0.625
'[08:40:39.023]',-0.435
'[08:40:39.031]',-0.625
'[08:40:39.039]',-0.435
'[08:40:39.047]',-0.275
'[08:40:39.055]',-0.205
'[08:40:39.063]',-0.205
'[08:40:39.070]',-0.225
'[08:40:39.078]',-0.235
'[08:40:39.086]',-0.225
'[08:40:39.094]',-0.215
'[08:40:39.102]',-0.195
'[08:40:39.109]',-0.205
'[08:40:39.117]',-0.295
'[08:40:39.125]',1405
'[08:40:39.133]',0.905
'[08:40:39.141]',-0.145
'[08:40:39.148]',-0.235
'[08:40:39.156]',-0.195
'[08:40:39.164]',-0.155
'[08:40:39.172]',-0.145
'[08:40:39.180]',-0.135
'[08:40:39.188]',-0.105
'[08:40:39.195]',-0.105
'[08:40:39.203]',-0.085
'[08:40:39.211]',-0.065
'[08:40:39.219]',-0.035
'[08:40:39.227]',0.005
'[08:40:39.234]',0.015
'[08:40:39.242]',0.025
'[08:40:39.250]',0.055
'[08:40:39.258]',0.095
'[08:40:39.266]',0.115
'[08:40:39.273]',0.125
'[08:40:39.281]',0.135
'[08:40:39.289]',0.105
'[08:40:39.297]',0.065
'[08:40:39.305]',0.035
'[08:40:39.313]',-0.015
'[08:40:39.320]',-0.045
'[08:40:39.328]',-0.075
'[08:40:39.336]',-0.115
'[08:40:39.344]',-0.135
'[08:40:39.352]',-0.145
'[08:40:39.359]',-0.155
'[08:40:39.367]',-0.155
'[08:40:39.375]',-0.185
'[08:40:39.383]',-0.165
'[08:40:39.391]',-0.165
'[08:40:39.398]',-0.165
'[08:40:39.406]',-0.155
'[08:40:39.414]',-0.155
'[08:40:39.422]',-0.145
'[08:40:39.430]',-0.145
'[08:40:39.438]',-0.165
'[08:40:39.445]',-0.155
